"epoch","loss","lr","part","step","time","accuracy","auprc","auroc","challenge_metric","f_beta_measure","f_measure","g_beta_measure"
0.0,0.1728339046239853,8.000730236035311e-05,"train",20.0,"2021-11-22 21:46:59.019261","","","","","","",""
0.0,0.152293398976326,8.002920933031948e-05,"train",40.0,"2021-11-22 21:47:02.336927","","","","","","",""
0.0,0.126165509223938,8.006572057662293e-05,"train",60.0,"2021-11-22 21:47:06.164844","","","","","","",""
0.0,0.13470607995986938,8.011683554380914e-05,"train",80.0,"2021-11-22 21:47:09.328221","","","","","","",""
0.0,0.13236716389656067,8.018255345425274e-05,"train",100.0,"2021-11-22 21:47:12.519683","","","","","","",""
0.0,0.13225188851356506,8.026287330817079e-05,"train",120.0,"2021-11-22 21:47:15.785765","","","","","","",""
0.0,0.13303306698799133,8.03577938836373e-05,"train",140.0,"2021-11-22 21:47:19.122156","","","","","","",""
0.0,0.11337293684482574,8.04673137366021e-05,"train",160.0,"2021-11-22 21:47:22.413328","","","","","","",""
0.0,0.10738455504179001,8.059143120091187e-05,"train",180.0,"2021-11-22 21:47:26.189152","","","","","","",""
0.0,0.1266845464706421,8.073014438833613e-05,"train",200.0,"2021-11-22 21:47:29.396140","","","","","","",""
0.0,0.11107875406742096,8.088345118859724e-05,"train",220.0,"2021-11-22 21:47:32.590717","","","","","","",""
0.0,0.11251400411128998,8.10513492693996e-05,"train",240.0,"2021-11-22 21:47:35.779561","","","","","","",""
0.0,0.1138407364487648,8.123383607646804e-05,"train",260.0,"2021-11-22 21:47:38.977562","","","","","","",""
0.0,0.09848673641681671,8.143090883358495e-05,"train",280.0,"2021-11-22 21:47:42.213578","","","","","","",""
0.0,0.10120756179094315,8.164256454263295e-05,"train",300.0,"2021-11-22 21:47:45.487685","","","","","","",""
0.0,0.10771150141954422,8.186879998364088e-05,"train",320.0,"2021-11-22 21:47:49.411736","","","","","","",""
0.0,0.09921325743198395,8.210961171483213e-05,"train",340.0,"2021-11-22 21:47:52.583586","","","","","","",""
0.0,0.1214686930179596,8.236499607267717e-05,"train",360.0,"2021-11-22 21:47:55.766593","","","","","","",""
0.0,0.0954994186758995,8.26349491719505e-05,"train",380.0,"2021-11-22 21:47:58.961802","","","","","","",""
0.0,0.11095096170902252,8.291946690578713e-05,"train",400.0,"2021-11-22 21:48:02.206002","","","","","","",""
0.0,0.10690675675868988,8.321854494574774e-05,"train",420.0,"2021-11-22 21:48:05.441209","","","","","","",""
0.0,0.11025739461183548,8.353217874188293e-05,"train",440.0,"2021-11-22 21:48:09.236217","","","","","","",""
0.0,0.10535123199224472,8.38603635228035e-05,"train",460.0,"2021-11-22 21:48:12.509426","","","","","","",""
0.0,0.10459298640489578,8.420309429575212e-05,"train",480.0,"2021-11-22 21:48:15.781483","","","","","","",""
0.0,0.10941542685031891,8.456036584667914e-05,"train",500.0,"2021-11-22 21:48:18.965635","","","","","","",""
0.0,0.08674761652946472,8.493217274032315e-05,"train",520.0,"2021-11-22 21:48:22.135242","","","","","","",""
0.0,0.08506494760513306,8.531850932029235e-05,"train",540.0,"2021-11-22 21:48:25.277746","","","","","","",""
0.0,0.09750904887914658,8.571936970915212e-05,"train",560.0,"2021-11-22 21:48:29.021598","","","","","","",""
0.0,0.08562427014112473,8.613474780851246e-05,"train",580.0,"2021-11-22 21:48:32.139331","","","","","","",""
0.0,0.09145092964172363,8.656463729912224e-05,"train",600.0,"2021-11-22 21:48:35.308838","","","","","","",""
0.0,0.07876221090555191,8.700903164096468e-05,"train",620.0,"2021-11-22 21:48:38.467365","","","","","","",""
0.0,0.10507188737392426,8.746792407335769e-05,"train",640.0,"2021-11-22 21:48:41.618078","","","","","","",""
0.0,0.0916285514831543,8.794130761505497e-05,"train",660.0,"2021-11-22 21:48:44.784820","","","","","","",""
0.0,0.09352535754442215,8.842917506435462e-05,"train",680.0,"2021-11-22 21:48:48.671611","","","","","","",""
0.0,0.095179982483387,8.893151899920645e-05,"train",700.0,"2021-11-22 21:48:51.948953","","","","","","",""
0.0,0.09487253427505493,8.944833177732632e-05,"train",720.0,"2021-11-22 21:48:55.289944","","","","","","",""
0.0,0.08197930455207825,8.997960553631186e-05,"train",740.0,"2021-11-22 21:48:58.627458","","","","","","",""
0.0,0.08434353023767471,9.052533219376224e-05,"train",760.0,"2021-11-22 21:49:01.922472","","","","","","",""
0.0,0.09236820042133331,9.108550344740104e-05,"train",780.0,"2021-11-22 21:49:05.252109","","","","","","",""
0.0,0.08831492066383362,9.166011077520208e-05,"train",800.0,"2021-11-22 21:49:09.092049","","","","","","",""
0.0,0.07936698198318481,9.224914543552059e-05,"train",820.0,"2021-11-22 21:49:12.384343","","","","","","",""
0.0,0.09355945885181427,9.285259846722417e-05,"train",840.0,"2021-11-22 21:49:15.768025","","","","","","",""
0.0,0.09054769575595856,9.34704606898307e-05,"train",860.0,"2021-11-22 21:49:19.104873","","","","","","",""
0.0,0.09266462922096252,9.410272270364735e-05,"train",880.0,"2021-11-22 21:49:22.449284","","","","","","",""
0.0,0.10383131355047226,9.474937488991348e-05,"train",900.0,"2021-11-22 21:49:25.777227","","","","","","",""
0.0,0.07700727880001068,9.541040741094719e-05,"train",920.0,"2021-11-22 21:49:29.026563","","","","","","",""
0.0,0.08115886151790619,9.608581021029522e-05,"train",940.0,"2021-11-22 21:49:32.768825","","","","","","",""
0.0,0.08848313242197037,9.677557301288509e-05,"train",960.0,"2021-11-22 21:49:35.992455","","","","","","",""
0.0,0.11117821931838989,9.747968532518238e-05,"train",980.0,"2021-11-22 21:49:39.236669","","","","","","",""
0.0,0.0858321338891983,9.819813643535029e-05,"train",1000.0,"2021-11-22 21:49:42.446596","","","","","","",""
0.0,0.07799189537763596,9.893091541341185e-05,"train",1020.0,"2021-11-22 21:49:45.682949","","","","","","",""
0.0,0.08515553921461105,9.967801111141644e-05,"train",1040.0,"2021-11-22 21:49:48.906940","","","","","","",""
0.0,0.06380463391542435,0.00010043941216361023,"train",1060.0,"2021-11-22 21:49:52.810782","","","","","","",""
0.0,"","","train",1074.0,"2021-11-22 21:51:27.817756",0.41394164301826386,0.3515357264622501,0.8609473846096546,0.3614174468146761,0.26965617192076763,0.28328414093965004,0.15916991681283416
0.0,"","","val",1074.0,"2021-11-22 21:51:51.555680",0.4047895164096022,0.3315173315397238,0.8437766841900227,0.3490926822663674,0.2621367824702658,0.2737894303912794,0.15344119431735667
1.0,0.07285027205944061,0.00010121510698660771,"train",1080.0,"2021-11-22 21:51:55.146461","","","","","","",""
1.0,0.10241308063268661,0.00010200508377956928,"train",1100.0,"2021-11-22 21:51:58.517164","","","","","","",""
1.0,0.061122991144657135,0.00010280933052437993,"train",1120.0,"2021-11-22 21:52:01.982956","","","","","","",""
1.0,0.08320552110671997,0.00010362783498583223,"train",1140.0,"2021-11-22 21:52:05.239783","","","","","","",""
1.0,0.08234486728906631,0.0001044605847118124,"train",1160.0,"2021-11-22 21:52:08.435220","","","","","","",""
1.0,0.0917171910405159,0.0001053075670334907,"train",1180.0,"2021-11-22 21:52:12.359171","","","","","","",""
1.0,0.08358049392700195,0.00010616876906551181,"train",1200.0,"2021-11-22 21:52:15.544835","","","","","","",""
1.0,0.0984582006931305,0.0001070441777061941,"train",1220.0,"2021-11-22 21:52:18.753998","","","","","","",""
1.0,0.10478755831718445,0.00010793377963772563,"train",1240.0,"2021-11-22 21:52:21.924792","","","","","","",""
1.0,0.08132830262184143,0.0001088375613263698,"train",1260.0,"2021-11-22 21:52:25.087243","","","","","","",""
1.0,0.11327793449163437,0.00010975550902266908,"train",1280.0,"2021-11-22 21:52:28.225581","","","","","","",""
1.0,0.0715789645910263,0.00011068760876165474,"train",1300.0,"2021-11-22 21:52:31.948428","","","","","","",""
1.0,0.0925920158624649,0.0001116338463630598,"train",1320.0,"2021-11-22 21:52:35.040154","","","","","","",""
1.0,0.10953501611948013,0.00011259420743153455,"train",1340.0,"2021-11-22 21:52:38.148908","","","","","","",""
1.0,0.0953882709145546,0.00011356867735686535,"train",1360.0,"2021-11-22 21:52:41.250902","","","","","","",""
1.0,0.08554226160049438,0.00011455724131419621,"train",1380.0,"2021-11-22 21:52:44.463955","","","","","","",""
1.0,0.0918242409825325,0.00011555988426425654,"train",1400.0,"2021-11-22 21:52:47.700075","","","","","","",""
1.0,0.0984259694814682,0.00011657659095358746,"train",1420.0,"2021-11-22 21:52:51.502832","","","","","","",""
1.0,0.07576187700033188,0.00011760734591477516,"train",1440.0,"2021-11-22 21:52:54.711419","","","","","","",""
1.0,0.070989228785038,0.00011865213346668618,"train",1460.0,"2021-11-22 21:52:57.904870","","","","","","",""
1.0,0.08880029618740082,0.00011971093771470502,"train",1480.0,"2021-11-22 21:53:01.312247","","","","","","",""
1.0,0.09042617678642273,0.0001207837425509777,"train",1500.0,"2021-11-22 21:53:04.602958","","","","","","",""
1.0,0.10847944766283035,0.00012187053165465503,"train",1520.0,"2021-11-22 21:53:07.885665","","","","","","",""
1.0,0.0655081644654274,0.000122971288492142,"train",1540.0,"2021-11-22 21:53:11.188575","","","","","","",""
1.0,0.07678329199552536,0.00012408599631734863,"train",1560.0,"2021-11-22 21:53:15.114415","","","","","","",""
1.0,0.07589154690504074,0.00012521463817194542,"train",1580.0,"2021-11-22 21:53:18.468313","","","","","","",""
1.0,0.0812775194644928,0.00012635719688562077,"train",1600.0,"2021-11-22 21:53:21.817084","","","","","","",""
1.0,0.062269359827041626,0.00012751365507634267,"train",1620.0,"2021-11-22 21:53:25.068835","","","","","","",""
1.0,0.09292187541723251,0.0001286839951506226,"train",1640.0,"2021-11-22 21:53:28.320393","","","","","","",""
1.0,0.08926621824502945,0.00012986819930378333,"train",1660.0,"2021-11-22 21:53:31.584507","","","","","","",""
1.0,0.07644946873188019,0.00013106624952023064,"train",1680.0,"2021-11-22 21:53:35.655761","","","","","","",""
1.0,0.09128022193908691,0.00013227812757372545,"train",1700.0,"2021-11-22 21:53:38.859521","","","","","","",""
1.0,0.062218911945819855,0.00013350381502766394,"train",1720.0,"2021-11-22 21:53:42.065261","","","","","","",""
1.0,0.09022580087184906,0.00013474329323535494,"train",1740.0,"2021-11-22 21:53:45.260077","","","","","","",""
1.0,0.08634928613901138,0.0001359965433403059,"train",1760.0,"2021-11-22 21:53:48.495182","","","","","","",""
1.0,0.0723048523068428,0.00013726354627650872,"train",1780.0,"2021-11-22 21:53:51.739141","","","","","","",""
1.0,0.06901100277900696,0.00013854428276873052,"train",1800.0,"2021-11-22 21:53:55.544919","","","","","","",""
1.0,0.08069171011447906,0.00013983873333280506,"train",1820.0,"2021-11-22 21:53:58.703840","","","","","","",""
1.0,0.08793780952692032,0.00014114687827593156,"train",1840.0,"2021-11-22 21:54:01.869817","","","","","","",""
1.0,0.08612678945064545,0.00014246869769697352,"train",1860.0,"2021-11-22 21:54:05.217128","","","","","","",""
1.0,0.09308409690856934,0.00014380417148676054,"train",1880.0,"2021-11-22 21:54:08.556252","","","","","","",""
1.0,0.08282013982534409,0.00014515327932839404,"train",1900.0,"2021-11-22 21:54:11.545369","","","","","","",""
1.0,0.06135200336575508,0.0001465160006975598,"train",1920.0,"2021-11-22 21:54:15.218628","","","","","","",""
1.0,0.07130219787359238,0.00014789231486283454,"train",1940.0,"2021-11-22 21:54:18.217419","","","","","","",""
1.0,0.07992803305387497,0.00014928220088600633,"train",1960.0,"2021-11-22 21:54:21.350044","","","","","","",""
1.0,0.06797007471323013,0.00015068563762239045,"train",1980.0,"2021-11-22 21:54:24.538372","","","","","","",""
1.0,0.07535095512866974,0.00015210260372115238,"train",2000.0,"2021-11-22 21:54:27.684496","","","","","","",""
1.0,0.10332824289798737,0.00015353307762563115,"train",2020.0,"2021-11-22 21:54:30.877071","","","","","","",""
1.0,0.09043195843696594,0.00015497703757366872,"train",2040.0,"2021-11-22 21:54:34.579971","","","","","","",""
1.0,0.08855464309453964,0.00015643446159794,"train",2060.0,"2021-11-22 21:54:37.667757","","","","","","",""
1.0,0.10173667222261429,0.0001579053275262887,"train",2080.0,"2021-11-22 21:54:40.746344","","","","","","",""
1.0,0.07918380200862885,0.00015938961298206183,"train",2100.0,"2021-11-22 21:54:43.848800","","","","","","",""
1.0,0.0718654915690422,0.00016088729538445297,"train",2120.0,"2021-11-22 21:54:46.937011","","","","","","",""
1.0,0.08772239834070206,0.000162398351948844,"train",2140.0,"2021-11-22 21:54:50.064997","","","","","","",""
1.0,"","","train",2148.0,"2021-11-22 21:56:20.428124",0.4607873099032235,0.4409225234637711,0.9129395924248548,0.4259872221168,0.3143191183702765,0.32901557018229455,0.1965716595449714
1.0,"","","val",2148.0,"2021-11-22 21:56:45.279389",0.4447987939232286,0.39865446087492834,0.8896311487333702,0.40023323859557813,0.2952081932000882,0.30802641991844126,0.1807790386201222
2.0,0.09738132357597351,0.00016392275968715297,"train",2160.0,"2021-11-22 21:56:50.583908","","","","","","",""
2.0,0.08040294796228409,0.00016546049540818223,"train",2180.0,"2021-11-22 21:56:53.843820","","","","","","",""
2.0,0.07570598274469376,0.00016701153571797313,"train",2200.0,"2021-11-22 21:56:57.096785","","","","","","",""
2.0,0.07715560495853424,0.00016857585702016015,"train",2220.0,"2021-11-22 21:57:00.270647","","","","","","",""
2.0,0.06597282737493515,0.00017015343551633126,"train",2240.0,"2021-11-22 21:57:03.373187","","","","","","",""
2.0,0.07083769142627716,0.0001717442472063892,"train",2260.0,"2021-11-22 21:57:06.647233","","","","","","",""
2.0,0.07351915538311005,0.00017334826788891681,"train",2280.0,"2021-11-22 21:57:10.529306","","","","","","",""
2.0,0.06646814197301865,0.00017496547316154555,"train",2300.0,"2021-11-22 21:57:13.779215","","","","","","",""
2.0,0.0694534108042717,0.00017659583842132573,"train",2320.0,"2021-11-22 21:57:17.039322","","","","","","",""
2.0,0.07643711566925049,0.00017823933886510217,"train",2340.0,"2021-11-22 21:57:20.282220","","","","","","",""
2.0,0.07498252391815186,0.00017989594948989015,"train",2360.0,"2021-11-22 21:57:23.562867","","","","","","",""
2.0,0.06027759239077568,0.00018156564509325753,"train",2380.0,"2021-11-22 21:57:27.339737","","","","","","",""
2.0,0.07185115665197372,0.0001832484002737059,"train",2400.0,"2021-11-22 21:57:30.530052","","","","","","",""
2.0,0.07009723782539368,0.00018494418943105877,"train",2420.0,"2021-11-22 21:57:33.682088","","","","","","",""
2.0,0.06346090137958527,0.00018665298676685078,"train",2440.0,"2021-11-22 21:57:36.841675","","","","","","",""
2.0,0.10609399527311325,0.0001883747662847191,"train",2460.0,"2021-11-22 21:57:39.979206","","","","","","",""
2.0,0.0908331349492073,0.00019010950179080112,"train",2480.0,"2021-11-22 21:57:43.736691","","","","","","",""
2.0,0.06431514769792557,0.00019185716689412995,"train",2500.0,"2021-11-22 21:57:46.918018","","","","","","",""
2.0,0.05932203680276871,0.00019361773500703797,"train",2520.0,"2021-11-22 21:57:50.109766","","","","","","",""
2.0,0.05548066645860672,0.00019539117934556168,"train",2540.0,"2021-11-22 21:57:53.313745","","","","","","",""
2.0,0.0668729692697525,0.00019717747292984696,"train",2560.0,"2021-11-22 21:57:56.556592","","","","","","",""
2.0,0.08127009868621826,0.0001989765885845624,"train",2580.0,"2021-11-22 21:58:00.495400","","","","","","",""
2.0,0.07694216817617416,0.00020078849893931014,"train",2600.0,"2021-11-22 21:58:03.786131","","","","","","",""
2.0,0.05874532088637352,0.0002026131764290434,"train",2620.0,"2021-11-22 21:58:06.994781","","","","","","",""
2.0,0.06909910589456558,0.00020445059329448614,"train",2640.0,"2021-11-22 21:58:10.283216","","","","","","",""
2.0,0.08210521936416626,0.00020630072158255497,"train",2660.0,"2021-11-22 21:58:13.511723","","","","","","",""
2.0,0.06987186521291733,0.00020816353314678467,"train",2680.0,"2021-11-22 21:58:17.377129","","","","","","",""
2.0,0.07990862429141998,0.00021003899964775505,"train",2700.0,"2021-11-22 21:58:20.680982","","","","","","",""
2.0,0.08744332939386368,0.00021192709255352473,"train",2720.0,"2021-11-22 21:58:23.907772","","","","","","",""
2.0,0.06843185424804688,0.00021382778314006255,"train",2740.0,"2021-11-22 21:58:27.105157","","","","","","",""
2.0,0.06878612190485,0.00021574104249168615,"train",2760.0,"2021-11-22 21:58:30.379248","","","","","","",""
2.0,0.06327161937952042,0.00021766684150150133,"train",2780.0,"2021-11-22 21:58:33.665252","","","","","","",""
2.0,0.10270287096500397,0.00021960515087184485,"train",2800.0,"2021-11-22 21:58:37.616865","","","","","","",""
2.0,0.07420524209737778,0.00022155594111472978,"train",2820.0,"2021-11-22 21:58:40.878936","","","","","","",""
2.0,0.059155549854040146,0.0002235191825522959,"train",2840.0,"2021-11-22 21:58:44.125002","","","","","","",""
2.0,0.08250605314970016,0.00022549484531725838,"train",2860.0,"2021-11-22 21:58:47.378245","","","","","","",""
2.0,0.05162247642874718,0.00022748289935336434,"train",2880.0,"2021-11-22 21:58:50.647374","","","","","","",""
2.0,0.07827772200107574,0.00022948331441584964,"train",2900.0,"2021-11-22 21:58:54.470742","","","","","","",""
2.0,0.07947363704442978,0.00023149606007189785,"train",2920.0,"2021-11-22 21:58:57.752347","","","","","","",""
2.0,0.0780654177069664,0.00023352110570110476,"train",2940.0,"2021-11-22 21:59:00.956595","","","","","","",""
2.0,0.06470516324043274,0.00023555842049594305,"train",2960.0,"2021-11-22 21:59:04.154386","","","","","","",""
2.0,0.09537682682275772,0.00023760797346223305,"train",2980.0,"2021-11-22 21:59:07.322458","","","","","","",""
2.0,0.08770352602005005,0.00023966973341961028,"train",3000.0,"2021-11-22 21:59:11.065612","","","","","","",""
2.0,0.08133808523416519,0.0002417436690020044,"train",3020.0,"2021-11-22 21:59:14.228677","","","","","","",""
2.0,0.08077854663133621,0.00024382974865811325,"train",3040.0,"2021-11-22 21:59:17.472725","","","","","","",""
2.0,0.11742845177650452,0.000245927940651884,"train",3060.0,"2021-11-22 21:59:20.745297","","","","","","",""
2.0,0.06371581554412842,0.0002480382130629953,"train",3080.0,"2021-11-22 21:59:23.968054","","","","","","",""
2.0,0.08072616904973984,0.0002501605337873443,"train",3100.0,"2021-11-22 21:59:27.810099","","","","","","",""
2.0,0.06862591207027435,0.0002522948705375337,"train",3120.0,"2021-11-22 21:59:30.947401","","","","","","",""
2.0,0.07085587084293365,0.00025444119084336303,"train",3140.0,"2021-11-22 21:59:34.078848","","","","","","",""
2.0,0.07434510439634323,0.00025659946205232364,"train",3160.0,"2021-11-22 21:59:37.266211","","","","","","",""
2.0,0.06282051652669907,0.0002587696513300941,"train",3180.0,"2021-11-22 21:59:40.967252","","","","","","",""
2.0,0.05716463550925255,0.0002609517256610412,"train",3200.0,"2021-11-22 21:59:45.294313","","","","","","",""
2.0,0.09301349520683289,0.00026314565184872084,"train",3220.0,"2021-11-22 21:59:48.977760","","","","","","",""
2.0,"","","train",3222.0,"2021-11-22 22:02:30.104874",0.5014771156224987,0.49978010966825226,0.9345636030812614,0.45792260292377135,0.36723661718683814,0.38170518460240427,0.23526664725100296
2.0,"","","val",3222.0,"2021-11-22 22:03:13.329566",0.4812710193668097,0.44205808503510846,0.9120570920639547,0.42859763443709775,0.34200719720136774,0.35281091999932024,0.2137287221309164
3.0,0.06879142671823502,0.0002653513965163838,"train",3240.0,"2021-11-22 22:03:20.781561","","","","","","",""
3.0,0.06253941357135773,0.0002675689261074836,"train",3260.0,"2021-11-22 22:03:24.245440","","","","","","",""
3.0,0.0851282849907875,0.00026979820688618605,"train",3280.0,"2021-11-22 22:03:27.819848","","","","","","",""
3.0,0.07754218578338623,0.00027203920493788433,"train",3300.0,"2021-11-22 22:03:31.398723","","","","","","",""
3.0,0.08280260860919952,0.00027429188616971277,"train",3320.0,"2021-11-22 22:03:34.792914","","","","","","",""
3.0,0.08001340925693512,0.0002765562163110668,"train",3340.0,"2021-11-22 22:03:39.282372","","","","","","",""
3.0,0.0808303952217102,0.00027883216091412503,"train",3360.0,"2021-11-22 22:03:42.815155","","","","","","",""
3.0,0.07602818310260773,0.0002811196853543707,"train",3380.0,"2021-11-22 22:03:46.424836","","","","","","",""
3.0,0.062440425157547,0.00028341875483112134,"train",3400.0,"2021-11-22 22:03:50.000834","","","","","","",""
3.0,0.07916122674942017,0.00028572933436805644,"train",3420.0,"2021-11-22 22:03:53.478504","","","","","","",""
3.0,0.0971972644329071,0.0002880513888137504,"train",3440.0,"2021-11-22 22:03:57.612610","","","","","","",""
3.0,0.07711469382047653,0.0002903848828422063,"train",3460.0,"2021-11-22 22:04:01.161269","","","","","","",""
3.0,0.05764879286289215,0.00029272978095339465,"train",3480.0,"2021-11-22 22:04:04.740021","","","","","","",""
3.0,0.10145066678524017,0.00029508604747379243,"train",3500.0,"2021-11-22 22:04:08.480317","","","","","","",""
3.0,0.06213820353150368,0.00029745364655692653,"train",3520.0,"2021-11-22 22:04:11.970624","","","","","","",""
3.0,0.059558235108852386,0.0002998325421839181,"train",3540.0,"2021-11-22 22:04:15.437249","","","","","","",""
3.0,0.06583491712808609,0.0003022226981640318,"train",3560.0,"2021-11-22 22:04:18.871998","","","","","","",""
3.0,0.05732286348938942,0.00030462407813522494,"train",3580.0,"2021-11-22 22:04:22.379388","","","","","","",""
3.0,0.08109738677740097,0.0003070366455647027,"train",3600.0,"2021-11-22 22:04:26.736673","","","","","","",""
3.0,0.07291483879089355,0.000309460363749471,"train",3620.0,"2021-11-22 22:04:30.236488","","","","","","",""
3.0,0.07999282330274582,0.0003118951958168978,"train",3640.0,"2021-11-22 22:04:33.756427","","","","","","",""
3.0,0.06635398417711258,0.0003143411047252722,"train",3660.0,"2021-11-22 22:04:37.234424","","","","","","",""
3.0,0.10900969803333282,0.0003167980532643691,"train",3680.0,"2021-11-22 22:04:40.601187","","","","","","",""
3.0,0.08482366800308228,0.0003192660040560141,"train",3700.0,"2021-11-22 22:04:44.045089","","","","","","",""
3.0,0.07216881215572357,0.0003217449195546528,"train",3720.0,"2021-11-22 22:04:48.456012","","","","","","",""
3.0,0.08354737609624863,0.00032423476204792244,"train",3740.0,"2021-11-22 22:04:51.903973","","","","","","",""
3.0,0.07293938845396042,0.0003267354936572248,"train",3760.0,"2021-11-22 22:04:55.501814","","","","","","",""
3.0,0.06469883024692535,0.0003292470763383026,"train",3780.0,"2021-11-22 22:04:59.189994","","","","","","",""
3.0,0.06267200410366058,0.0003317694718818192,"train",3800.0,"2021-11-22 22:05:02.656124","","","","","","",""
3.0,0.0492376983165741,0.00033430264191393853,"train",3820.0,"2021-11-22 22:05:07.010534","","","","","","",""
3.0,0.0955984964966774,0.0003368465478969097,"train",3840.0,"2021-11-22 22:05:10.626021","","","","","","",""
3.0,0.09242668002843857,0.0003394011511296533,"train",3860.0,"2021-11-22 22:05:13.964012","","","","","","",""
3.0,0.06817270070314407,0.0003419664127483496,"train",3880.0,"2021-11-22 22:05:17.446694","","","","","","",""
3.0,0.07619357109069824,0.00034454229372703074,"train",3900.0,"2021-11-22 22:05:20.964124","","","","","","",""
3.0,0.06684807687997818,0.00034712875487817314,"train",3920.0,"2021-11-22 22:05:24.419849","","","","","","",""
3.0,0.07329650223255157,0.00034972575685329526,"train",3940.0,"2021-11-22 22:05:27.907382","","","","","","",""
3.0,0.07086032629013062,0.0003523332601435541,"train",3960.0,"2021-11-22 22:05:31.322716","","","","","","",""
3.0,0.06010095030069351,0.00035495122508034916,"train",3980.0,"2021-11-22 22:05:35.686260","","","","","","",""
3.0,0.07946324348449707,0.0003575796118359231,"train",4000.0,"2021-11-22 22:05:39.144720","","","","","","",""
3.0,0.05638524517416954,0.00036021838042396906,"train",4020.0,"2021-11-22 22:05:42.616927","","","","","","",""
3.0,0.06412951648235321,0.0003628674907002389,"train",4040.0,"2021-11-22 22:05:46.327278","","","","","","",""
3.0,0.08758185803890228,0.00036552690236315395,"train",4060.0,"2021-11-22 22:05:49.784930","","","","","","",""
3.0,0.11158358305692673,0.00036819657495441773,"train",4080.0,"2021-11-22 22:05:53.634591","","","","","","",""
3.0,0.08464595675468445,0.0003708764678596317,"train",4100.0,"2021-11-22 22:05:58.225307","","","","","","",""
3.0,0.061266932636499405,0.00037356654030891293,"train",4120.0,"2021-11-22 22:06:02.015404","","","","","","",""
3.0,0.07283609360456467,0.0003762667513775148,"train",4140.0,"2021-11-22 22:06:05.524519","","","","","","",""
3.0,0.09716704487800598,0.0003789770599864498,"train",4160.0,"2021-11-22 22:06:09.161711","","","","","","",""
3.0,0.07613378018140793,0.000381697424903113,"train",4180.0,"2021-11-22 22:06:12.643818","","","","","","",""
3.0,0.09040498733520508,0.0003844278047419108,"train",4200.0,"2021-11-22 22:06:16.032889","","","","","","",""
3.0,0.054537367075681686,0.0003871681579648903,"train",4220.0,"2021-11-22 22:06:20.380124","","","","","","",""
3.0,0.07217559218406677,0.0003899184428823709,"train",4240.0,"2021-11-22 22:06:23.888616","","","","","","",""
3.0,0.06496021896600723,0.0003926786176535783,"train",4260.0,"2021-11-22 22:06:27.494902","","","","","","",""
3.0,0.07640336453914642,0.0003954486402872818,"train",4280.0,"2021-11-22 22:06:30.906473","","","","","","",""
3.0,"","","train",4296.0,"2021-11-22 22:09:11.812965",0.5106745252128356,0.544696413728092,0.9467199694955718,0.4860279307848167,0.3884832240840626,0.40089036526962085,0.24895989858409961
3.0,"","","val",4296.0,"2021-11-22 22:10:04.712381",0.4855618694189957,0.47031896342864743,0.9239991527905455,0.45016056435804847,0.3541215120902012,0.3642472387700033,0.2211632170733946
4.0,0.07024965435266495,0.0003982284686424324,"train",4300.0,"2021-11-22 22:10:09.256865","","","","","","",""
4.0,0.06351973861455917,0.0004010180604288045,"train",4320.0,"2021-11-22 22:10:12.989303","","","","","","",""
4.0,0.0780656710267067,0.00040381737320763873,"train",4340.0,"2021-11-22 22:10:17.321053","","","","","","",""
4.0,0.0675710067152977,0.0004066263643922878,"train",4360.0,"2021-11-22 22:10:21.059106","","","","","","",""
4.0,0.08126198500394821,0.0004094449912488646,"train",4380.0,"2021-11-22 22:10:24.607894","","","","","","",""
4.0,0.08153895288705826,0.0004122732108968923,"train",4400.0,"2021-11-22 22:10:28.157141","","","","","","",""
4.0,0.0763983279466629,0.0004151109803099558,"train",4420.0,"2021-11-22 22:10:31.859382","","","","","","",""
4.0,0.09299527853727341,0.00041795825631635764,"train",4440.0,"2021-11-22 22:10:35.711985","","","","","","",""
4.0,0.06617285311222076,0.0004208149955997739,"train",4460.0,"2021-11-22 22:10:40.584105","","","","","","",""
4.0,0.09103965014219284,0.0004236811546999141,"train",4480.0,"2021-11-22 22:10:44.301700","","","","","","",""
4.0,0.06281949579715729,0.0004265566900131805,"train",4500.0,"2021-11-22 22:10:48.173420","","","","","","",""
4.0,0.08407453447580338,0.0004294415577933337,"train",4520.0,"2021-11-22 22:10:51.841874","","","","","","",""
4.0,0.04268386587500572,0.00043233571415215717,"train",4540.0,"2021-11-22 22:10:55.461326","","","","","","",""
4.0,0.05683719366788864,0.0004352391150601242,"train",4560.0,"2021-11-22 22:10:58.973565","","","","","","",""
4.0,0.09426752477884293,0.0004381517163470684,"train",4580.0,"2021-11-22 22:11:03.154922","","","","","","",""
4.0,0.062474749982357025,0.00044107347370285683,"train",4600.0,"2021-11-22 22:11:06.685117","","","","","","",""
4.0,0.07334545999765396,0.00044400434267806194,"train",4620.0,"2021-11-22 22:11:10.285642","","","","","","",""
4.0,0.05972341075539589,0.00044694427868463907,"train",4640.0,"2021-11-22 22:11:13.863646","","","","","","",""
4.0,0.05912119895219803,0.00044989323699660467,"train",4660.0,"2021-11-22 22:11:17.508340","","","","","","",""
4.0,0.049963999539613724,0.0004528511727507165,"train",4680.0,"2021-11-22 22:11:20.912531","","","","","","",""
4.0,0.05680946260690689,0.00045581804094715645,"train",4700.0,"2021-11-22 22:11:24.349253","","","","","","",""
4.0,0.07258307933807373,0.00045879379645021425,"train",4720.0,"2021-11-22 22:11:28.611958","","","","","","",""
4.0,0.059874214231967926,0.0004617783939889759,"train",4740.0,"2021-11-22 22:11:32.354850","","","","","","",""
4.0,0.06771962344646454,0.0004647717881580103,"train",4760.0,"2021-11-22 22:11:35.989248","","","","","","",""
4.0,0.06782472133636475,0.0004677739334180617,"train",4780.0,"2021-11-22 22:11:39.621313","","","","","","",""
4.0,0.10685862600803375,0.00047078478409674144,"train",4800.0,"2021-11-22 22:11:43.180101","","","","","","",""
4.0,0.0851309671998024,0.00047380429438922305,"train",4820.0,"2021-11-22 22:11:46.858053","","","","","","",""
4.0,0.06454037129878998,0.00047683241835893946,"train",4840.0,"2021-11-22 22:11:50.525351","","","","","","",""
4.0,0.09036074578762054,0.0004798691099382815,"train",4860.0,"2021-11-22 22:11:54.868182","","","","","","",""
4.0,0.07381794601678848,0.0004829143229292986,"train",4880.0,"2021-11-22 22:11:58.500596","","","","","","",""
4.0,0.07173103839159012,0.0004859680110044023,"train",4900.0,"2021-11-22 22:12:01.966893","","","","","","",""
4.0,0.05928514897823334,0.0004890301277070699,"train",4920.0,"2021-11-22 22:12:05.530155","","","","","","",""
4.0,0.06250667572021484,0.0004921006264525525,"train",4940.0,"2021-11-22 22:12:09.163637","","","","","","",""
4.0,0.05181176960468292,0.0004951794605285824,"train",4960.0,"2021-11-22 22:12:13.510639","","","","","","",""
4.0,0.06485248357057571,0.0004982665830960853,"train",4980.0,"2021-11-22 22:12:17.260788","","","","","","",""
4.0,0.05627404898405075,0.0005013619471898913,"train",5000.0,"2021-11-22 22:12:20.778294","","","","","","",""
4.0,0.07018256187438965,0.0005044655057194504,"train",5020.0,"2021-11-22 22:12:24.346147","","","","","","",""
4.0,0.05495600774884224,0.0005075772114695486,"train",5040.0,"2021-11-22 22:12:27.868188","","","","","","",""
4.0,0.05301502346992493,0.0005106970171010257,"train",5060.0,"2021-11-22 22:12:31.412500","","","","","","",""
4.0,0.060415297746658325,0.0005138248751514966,"train",5080.0,"2021-11-22 22:12:35.114165","","","","","","",""
4.0,0.0665811151266098,0.0005169607380360731,"train",5100.0,"2021-11-22 22:12:38.645093","","","","","","",""
4.0,0.08295585215091705,0.000520104558048086,"train",5120.0,"2021-11-22 22:12:43.021623","","","","","","",""
4.0,0.09740075469017029,0.0005232562873598136,"train",5140.0,"2021-11-22 22:12:46.560316","","","","","","",""
4.0,0.0729621946811676,0.0005264158780232072,"train",5160.0,"2021-11-22 22:12:50.124358","","","","","","",""
4.0,0.0874423161149025,0.0005295832819706228,"train",5180.0,"2021-11-22 22:12:53.680481","","","","","","",""
4.0,0.07523141801357269,0.0005327584510155488,"train",5200.0,"2021-11-22 22:12:57.162940","","","","","","",""
4.0,0.07768271863460541,0.000535941336853343,"train",5220.0,"2021-11-22 22:13:00.791821","","","","","","",""
4.0,0.05361601710319519,0.0005391318910619655,"train",5240.0,"2021-11-22 22:13:05.037800","","","","","","",""
4.0,0.08297405391931534,0.0005423300651027144,"train",5260.0,"2021-11-22 22:13:08.643780","","","","","","",""
4.0,0.09826671332120895,0.0005455358103209663,"train",5280.0,"2021-11-22 22:13:12.182248","","","","","","",""
4.0,0.08337261527776718,0.0005487490779469157,"train",5300.0,"2021-11-22 22:13:15.894335","","","","","","",""
4.0,0.0649183839559555,0.000551969819096316,"train",5320.0,"2021-11-22 22:13:19.463421","","","","","","",""
4.0,0.03980690985918045,0.0005551979847712252,"train",5340.0,"2021-11-22 22:13:23.899224","","","","","","",""
4.0,0.05436282232403755,0.0005584335258607489,"train",5360.0,"2021-11-22 22:13:27.428085","","","","","","",""
4.0,"","","train",5370.0,"2021-11-22 22:16:06.103920",0.5232627519464454,0.5796294992976871,0.9530789933424182,0.5316574532752384,0.40674189227394975,0.42397874009880404,0.2641225254049932
4.0,"","","val",5370.0,"2021-11-22 22:16:48.578999",0.49078047083381654,0.49398900307145516,0.9321070896444522,0.4921233757972815,0.3739445767910385,0.38474307812404446,0.23622855555288774
5.0,0.07749255001544952,0.0005616763931417894,"train",5380.0,"2021-11-22 22:16:54.198799","","","","","","",""
5.0,0.05614422261714935,0.0005649265372797939,"train",5400.0,"2021-11-22 22:16:57.591530","","","","","","",""
5.0,0.057835765182971954,0.0005681839088295046,"train",5420.0,"2021-11-22 22:17:01.138988","","","","","","",""
5.0,0.056820858269929886,0.0005714484582357109,"train",5440.0,"2021-11-22 22:17:04.601306","","","","","","",""
5.0,0.06784433126449585,0.0005747201358340048,"train",5460.0,"2021-11-22 22:17:08.902917","","","","","","",""
5.0,0.0565812885761261,0.0005779988918515344,"train",5480.0,"2021-11-22 22:17:12.460324","","","","","","",""
5.0,0.056940946727991104,0.0005812846764077623,"train",5500.0,"2021-11-22 22:17:15.941481","","","","","","",""
5.0,0.07416271418333054,0.0005845774395152243,"train",5520.0,"2021-11-22 22:17:19.499312","","","","","","",""
5.0,0.09434805810451508,0.0005878771310802895,"train",5540.0,"2021-11-22 22:17:22.970493","","","","","","",""
5.0,0.07794835418462753,0.0005911837009039229,"train",5560.0,"2021-11-22 22:17:26.452556","","","","","","",""
5.0,0.08375748246908188,0.0005944970986824485,"train",5580.0,"2021-11-22 22:17:30.689547","","","","","","",""
5.0,0.05187125504016876,0.000597817274008315,"train",5600.0,"2021-11-22 22:17:34.152877","","","","","","",""
5.0,0.06859251111745834,0.0006011441763708635,"train",5620.0,"2021-11-22 22:17:37.670958","","","","","","",""
5.0,0.053641512989997864,0.0006044777551570929,"train",5640.0,"2021-11-22 22:17:41.168626","","","","","","",""
5.0,0.056420475244522095,0.000607817959652434,"train",5660.0,"2021-11-22 22:17:44.730160","","","","","","",""
5.0,0.048936400562524796,0.0006111647390415189,"train",5680.0,"2021-11-22 22:17:48.368107","","","","","","",""
5.0,0.06829218566417694,0.0006145180424089525,"train",5700.0,"2021-11-22 22:17:51.992263","","","","","","",""
5.0,0.07450391352176666,0.0006178778187400902,"train",5720.0,"2021-11-22 22:17:56.447055","","","","","","",""
5.0,0.0744384303689003,0.0006212440169218129,"train",5740.0,"2021-11-22 22:18:00.068263","","","","","","",""
5.0,0.09527061879634857,0.0006246165857433027,"train",5760.0,"2021-11-22 22:18:03.548262","","","","","","",""
5.0,0.05463355407118797,0.0006279954738968251,"train",5780.0,"2021-11-22 22:18:07.186629","","","","","","",""
5.0,0.0957474559545517,0.0006313806299785075,"train",5800.0,"2021-11-22 22:18:10.710241","","","","","","",""
5.0,0.08697595447301865,0.0006347720024891209,"train",5820.0,"2021-11-22 22:18:15.455481","","","","","","",""
5.0,0.056950315833091736,0.0006381695398348657,"train",5840.0,"2021-11-22 22:18:18.959810","","","","","","",""
5.0,0.06701091676950455,0.0006415731903281542,"train",5860.0,"2021-11-22 22:18:24.062608","","","","","","",""
5.0,0.06627226620912552,0.0006449829021883979,"train",5880.0,"2021-11-22 22:18:29.817213","","","","","","",""
5.0,0.08829498291015625,0.0006483986235427956,"train",5900.0,"2021-11-22 22:18:36.286990","","","","","","",""
5.0,0.06217918172478676,0.0006518203024271213,"train",5920.0,"2021-11-22 22:18:42.520189","","","","","","",""
5.0,0.06629858165979385,0.0006552478867865169,"train",5940.0,"2021-11-22 22:18:48.193733","","","","","","",""
5.0,0.06668349355459213,0.0006586813244762815,"train",5960.0,"2021-11-22 22:18:55.512812","","","","","","",""
5.0,0.0723869651556015,0.0006621205632626672,"train",5980.0,"2021-11-22 22:19:01.727393","","","","","","",""
5.0,0.08974116295576096,0.0006655655508236717,"train",6000.0,"2021-11-22 22:19:08.546249","","","","","","",""
5.0,0.05644567310810089,0.0006690162347498356,"train",6020.0,"2021-11-22 22:19:14.057058","","","","","","",""
5.0,0.056422509253025055,0.0006724725625450389,"train",6040.0,"2021-11-22 22:19:18.732707","","","","","","",""
5.0,0.06396298110485077,0.0006759344816273003,"train",6060.0,"2021-11-22 22:19:25.210150","","","","","","",""
5.0,0.05908867344260216,0.0006794019393295771,"train",6080.0,"2021-11-22 22:19:30.830110","","","","","","",""
5.0,0.052763745188713074,0.0006828748829005654,"train",6100.0,"2021-11-22 22:19:36.875751","","","","","","",""
5.0,0.07063771784305573,0.0006863532595055041,"train",6120.0,"2021-11-22 22:19:42.527156","","","","","","",""
5.0,0.0757737085223198,0.0006898370162269777,"train",6140.0,"2021-11-22 22:19:48.523638","","","","","","",""
5.0,0.061119984835386276,0.0006933261000657217,"train",6160.0,"2021-11-22 22:19:55.531675","","","","","","",""
5.0,0.06285329163074493,0.000696820457941429,"train",6180.0,"2021-11-22 22:20:01.465800","","","","","","",""
5.0,0.05428730323910713,0.000700320036693557,"train",6200.0,"2021-11-22 22:20:07.275172","","","","","","",""
5.0,0.049886081367731094,0.0007038247830821358,"train",6220.0,"2021-11-22 22:20:13.442522","","","","","","",""
5.0,0.070063017308712,0.0007073346437885815,"train",6240.0,"2021-11-22 22:20:18.948266","","","","","","",""
5.0,0.04888896644115448,0.000710849565416502,"train",6260.0,"2021-11-22 22:20:26.006435","","","","","","",""
5.0,0.06679509580135345,0.0007143694944925134,"train",6280.0,"2021-11-22 22:20:31.940864","","","","","","",""
5.0,0.06983693689107895,0.0007178943774670524,"train",6300.0,"2021-11-22 22:20:37.957433","","","","","","",""
5.0,0.06622856855392456,0.0007214241607151901,"train",6320.0,"2021-11-22 22:20:43.822460","","","","","","",""
5.0,0.06153350695967674,0.000724958790537449,"train",6340.0,"2021-11-22 22:20:49.416600","","","","","","",""
5.0,0.08100511878728867,0.0007284982131606195,"train",6360.0,"2021-11-22 22:20:55.199926","","","","","","",""
5.0,0.08664589375257492,0.0007320423747385781,"train",6380.0,"2021-11-22 22:21:01.716671","","","","","","",""
5.0,0.0864785760641098,0.0007355912213531054,"train",6400.0,"2021-11-22 22:21:07.478268","","","","","","",""
5.0,0.05880097299814224,0.000739144699014708,"train",6420.0,"2021-11-22 22:21:12.350155","","","","","","",""
5.0,0.0623297318816185,0.0007427027536634401,"train",6440.0,"2021-11-22 22:21:17.435734","","","","","","",""
5.0,"","","train",6444.0,"2021-11-22 22:22:59.595540",0.5396929345848795,0.6102072835923629,0.9594540473116473,0.5218070473783436,0.4251057017175764,0.44856467354197094,0.2746458268587126
5.0,"","","val",6444.0,"2021-11-22 22:23:24.526638",0.5125826278557347,0.5141967163984548,0.9372922998720241,0.4820612297407877,0.3831551272905846,0.39933723978764707,0.24337667856149783
6.0,0.0689861997961998,0.0007462653311697235,"train",6460.0,"2021-11-22 22:23:29.648036","","","","","","",""
6.0,0.05542195215821266,0.0007498323773351733,"train",6480.0,"2021-11-22 22:23:33.634266","","","","","","",""
6.0,0.04953200742602348,0.0007534038378934223,"train",6500.0,"2021-11-22 22:23:36.856154","","","","","","",""
6.0,0.05160319060087204,0.0007569796585109453,"train",6520.0,"2021-11-22 22:23:40.109932","","","","","","",""
6.0,0.0642387643456459,0.0007605597847878862,"train",6540.0,"2021-11-22 22:23:43.321021","","","","","","",""
6.0,0.07909698784351349,0.0007641441622588871,"train",6560.0,"2021-11-22 22:23:46.471600","","","","","","",""
6.0,0.06983569264411926,0.0007677327363939143,"train",6580.0,"2021-11-22 22:23:49.670182","","","","","","",""
6.0,0.056396741420030594,0.0007713254525990895,"train",6600.0,"2021-11-22 22:23:52.900842","","","","","","",""
6.0,0.05336382985115051,0.0007749222562175211,"train",6620.0,"2021-11-22 22:23:56.082454","","","","","","",""
6.0,0.06532079726457596,0.000778523092530133,"train",6640.0,"2021-11-22 22:23:59.869648","","","","","","",""
6.0,0.05296843871474266,0.0007821279067564996,"train",6660.0,"2021-11-22 22:24:03.181733","","","","","","",""
6.0,0.0436023473739624,0.0007857366440556786,"train",6680.0,"2021-11-22 22:24:06.386684","","","","","","",""
6.0,0.09076327830553055,0.0007893492495270442,"train",6700.0,"2021-11-22 22:24:09.602167","","","","","","",""
6.0,0.057758305221796036,0.0007929656682111239,"train",6720.0,"2021-11-22 22:24:12.878231","","","","","","",""
6.0,0.05216383561491966,0.0007965858450904332,"train",6740.0,"2021-11-22 22:24:16.181482","","","","","","",""
6.0,0.06100419908761978,0.000800209725090314,"train",6760.0,"2021-11-22 22:24:19.567067","","","","","","",""
6.0,0.055564217269420624,0.0008038372530797706,"train",6780.0,"2021-11-22 22:24:22.793433","","","","","","",""
6.0,0.07453478872776031,0.0008074683738723109,"train",6800.0,"2021-11-22 22:24:26.778219","","","","","","",""
6.0,0.05285985767841339,0.0008111030322267832,"train",6820.0,"2021-11-22 22:24:30.050694","","","","","","",""
6.0,0.08393636345863342,0.0008147411728482187,"train",6840.0,"2021-11-22 22:24:33.328220","","","","","","",""
6.0,0.06097787991166115,0.0008183827403886721,"train",6860.0,"2021-11-22 22:24:36.592584","","","","","","",""
6.0,0.058519914746284485,0.0008220276794480633,"train",6880.0,"2021-11-22 22:24:39.814579","","","","","","",""
6.0,0.04706038162112236,0.0008256759345750203,"train",6900.0,"2021-11-22 22:24:43.005819","","","","","","",""
6.0,0.08726852387189865,0.0008293274502677234,"train",6920.0,"2021-11-22 22:24:46.217827","","","","","","",""
6.0,0.07299433648586273,0.0008329821709747486,"train",6940.0,"2021-11-22 22:24:49.467144","","","","","","",""
6.0,0.061561472713947296,0.0008366400410959136,"train",6960.0,"2021-11-22 22:24:53.332040","","","","","","",""
6.0,0.06888245791196823,0.000840301004983123,"train",6980.0,"2021-11-22 22:24:56.585670","","","","","","",""
6.0,0.07597417384386063,0.0008439650069412147,"train",7000.0,"2021-11-22 22:24:59.800004","","","","","","",""
6.0,0.06257321685552597,0.0008476319912288095,"train",7020.0,"2021-11-22 22:25:03.012452","","","","","","",""
6.0,0.0743788406252861,0.0008513019020591544,"train",7040.0,"2021-11-22 22:25:06.302159","","","","","","",""
6.0,0.05936553701758385,0.0008549746836009771,"train",7060.0,"2021-11-22 22:25:09.577072","","","","","","",""
6.0,0.04554174095392227,0.0008586502799793306,"train",7080.0,"2021-11-22 22:25:12.817128","","","","","","",""
6.0,0.06818126887083054,0.0008623286352764453,"train",7100.0,"2021-11-22 22:25:16.050579","","","","","","",""
6.0,0.06191946193575859,0.0008660096935325802,"train",7120.0,"2021-11-22 22:25:19.975191","","","","","","",""
6.0,0.07549317926168442,0.0008696933987468731,"train",7140.0,"2021-11-22 22:25:23.224642","","","","","","",""
6.0,0.0471942164003849,0.0008733796948781924,"train",7160.0,"2021-11-22 22:25:26.455754","","","","","","",""
6.0,0.0504099503159523,0.0008770685258459915,"train",7180.0,"2021-11-22 22:25:29.861713","","","","","","",""
6.0,0.056615639477968216,0.0008807598355311595,"train",7200.0,"2021-11-22 22:25:33.225355","","","","","","",""
6.0,0.0987255796790123,0.0008844535677768764,"train",7220.0,"2021-11-22 22:25:36.562275","","","","","","",""
6.0,0.0980517566204071,0.0008881496663894681,"train",7240.0,"2021-11-22 22:25:39.865906","","","","","","",""
6.0,0.07551492750644684,0.0008918480751392592,"train",7260.0,"2021-11-22 22:25:43.709216","","","","","","",""
6.0,0.06451760977506638,0.00089554873776143,"train",7280.0,"2021-11-22 22:25:46.997327","","","","","","",""
6.0,0.07113384455442429,0.0008992515979568724,"train",7300.0,"2021-11-22 22:25:50.280596","","","","","","",""
6.0,0.07726861536502838,0.0009029565993930457,"train",7320.0,"2021-11-22 22:25:53.541617","","","","","","",""
6.0,0.07016532868146896,0.0009066636857048339,"train",7340.0,"2021-11-22 22:25:56.837540","","","","","","",""
6.0,0.05710498243570328,0.0009103728004954039,"train",7360.0,"2021-11-22 22:26:00.151684","","","","","","",""
6.0,0.06783407926559448,0.0009140838873370617,"train",7380.0,"2021-11-22 22:26:03.470897","","","","","","",""
6.0,0.05751107633113861,0.0009177968897721136,"train",7400.0,"2021-11-22 22:26:06.745369","","","","","","",""
6.0,0.07580716907978058,0.0009215117513137218,"train",7420.0,"2021-11-22 22:26:10.491228","","","","","","",""
6.0,0.0624869167804718,0.0009252284154467663,"train",7440.0,"2021-11-22 22:26:13.773758","","","","","","",""
6.0,0.05720061808824539,0.0009289468256287042,"train",7460.0,"2021-11-22 22:26:17.125295","","","","","","",""
6.0,0.052735067903995514,0.0009326669252904287,"train",7480.0,"2021-11-22 22:26:20.468707","","","","","","",""
6.0,0.08664172142744064,0.0009363886578371307,"train",7500.0,"2021-11-22 22:26:23.827654","","","","","","",""
6.0,"","","train",7518.0,"2021-11-22 22:27:53.839346",0.5537946590991778,0.6232388427506361,0.9630010785730814,0.5807482839966647,0.45537395680391207,0.4809076539744908,0.3017714568572627
6.0,"","","val",7518.0,"2021-11-22 22:28:19.294332",0.5194827786153311,0.5215982394461526,0.9398036742042934,0.5326773448231609,0.40785031034765734,0.4257737206384453,0.26202912692260427
7.0,0.06524965912103653,0.0009401119666491604,"train",7520.0,"2021-11-22 22:28:22.018602","","","","","","",""
7.0,0.059222687035799026,0.0009438367950828869,"train",7540.0,"2021-11-22 22:28:25.575571","","","","","","",""
7.0,0.074128158390522,0.000947563086471561,"train",7560.0,"2021-11-22 22:28:29.567192","","","","","","",""
7.0,0.061742234975099564,0.0009512907841261783,"train",7580.0,"2021-11-22 22:28:32.816264","","","","","","",""
7.0,0.08810374140739441,0.0009550198313363391,"train",7600.0,"2021-11-22 22:28:36.012112","","","","","","",""
7.0,0.046991780400276184,0.0009587501713711128,"train",7620.0,"2021-11-22 22:28:39.248056","","","","","","",""
7.0,0.08706249296665192,0.0009624817474799023,"train",7640.0,"2021-11-22 22:28:42.464352","","","","","","",""
7.0,0.07945132255554199,0.0009662145028933038,"train",7660.0,"2021-11-22 22:28:45.689369","","","","","","",""
7.0,0.08099865168333054,0.0009699483808239733,"train",7680.0,"2021-11-22 22:28:48.933374","","","","","","",""
7.0,0.05891795456409454,0.0009736833244674895,"train",7700.0,"2021-11-22 22:28:52.823241","","","","","","",""
7.0,0.04728259518742561,0.0009774192770032192,"train",7720.0,"2021-11-22 22:28:56.046262","","","","","","",""
7.0,0.06081727147102356,0.0009811561815951785,"train",7740.0,"2021-11-22 22:28:59.294180","","","","","","",""
7.0,0.05646772310137749,0.0009848939813929015,"train",7760.0,"2021-11-22 22:29:02.533146","","","","","","",""
7.0,0.09147804230451584,0.0009886326195323026,"train",7780.0,"2021-11-22 22:29:05.789085","","","","","","",""
7.0,0.062096644192934036,0.0009923720391365428,"train",7800.0,"2021-11-22 22:29:09.036191","","","","","","",""
7.0,0.047167908400297165,0.000996112183316893,"train",7820.0,"2021-11-22 22:29:12.882025","","","","","","",""
7.0,0.05381457507610321,0.0009998529951736029,"train",7840.0,"2021-11-22 22:29:16.128214","","","","","","",""
7.0,0.06434403359889984,0.0010035944177967638,"train",7860.0,"2021-11-22 22:29:19.384070","","","","","","",""
7.0,0.045432623475790024,0.0010073363942671744,"train",7880.0,"2021-11-22 22:29:22.631484","","","","","","",""
7.0,0.07142046838998795,0.0010110788676572094,"train",7900.0,"2021-11-22 22:29:25.974033","","","","","","",""
7.0,0.07001859694719315,0.0010148217810316822,"train",7920.0,"2021-11-22 22:29:29.202565","","","","","","",""
7.0,0.07540915906429291,0.0010185650774487127,"train",7940.0,"2021-11-22 22:29:33.100811","","","","","","",""
7.0,0.060863226652145386,0.0010223086999605951,"train",7960.0,"2021-11-22 22:29:36.313477","","","","","","",""
7.0,0.0860045924782753,0.0010260525916146609,"train",7980.0,"2021-11-22 22:29:39.547502","","","","","","",""
7.0,0.07127613574266434,0.0010297966954541469,"train",8000.0,"2021-11-22 22:29:42.770858","","","","","","",""
7.0,0.04592789709568024,0.001033540954519064,"train",8020.0,"2021-11-22 22:29:45.935403","","","","","","",""
7.0,0.05851712077856064,0.0010372853118470592,"train",8040.0,"2021-11-22 22:29:49.251769","","","","","","",""
7.0,0.06773433834314346,0.0010410297104742857,"train",8060.0,"2021-11-22 22:29:53.160599","","","","","","",""
7.0,0.05297646299004555,0.0010447740934362692,"train",8080.0,"2021-11-22 22:29:56.371413","","","","","","",""
7.0,0.05596501752734184,0.0010485184037687715,"train",8100.0,"2021-11-22 22:29:59.632199","","","","","","",""
7.0,0.0803118348121643,0.0010522625845086615,"train",8120.0,"2021-11-22 22:30:02.943378","","","","","","",""
7.0,0.08895713090896606,0.0010560065786947796,"train",8140.0,"2021-11-22 22:30:06.275340","","","","","","",""
7.0,0.06433125585317612,0.0010597503293688013,"train",8160.0,"2021-11-22 22:30:09.577244","","","","","","",""
7.0,0.08019553124904633,0.001063493779576111,"train",8180.0,"2021-11-22 22:30:13.445002","","","","","","",""
7.0,0.05072486773133278,0.0010672368723666614,"train",8200.0,"2021-11-22 22:30:16.766282","","","","","","",""
7.0,0.0788276419043541,0.0010709795507958426,"train",8220.0,"2021-11-22 22:30:19.887578","","","","","","",""
7.0,0.10082109272480011,0.0010747217579253504,"train",8240.0,"2021-11-22 22:30:23.063777","","","","","","",""
7.0,0.05740141496062279,0.0010784634368240487,"train",8260.0,"2021-11-22 22:30:26.253842","","","","","","",""
7.0,0.044037334620952606,0.0010822045305688382,"train",8280.0,"2021-11-22 22:30:29.472135","","","","","","",""
7.0,0.07188708335161209,0.0010859449822455227,"train",8300.0,"2021-11-22 22:30:32.679253","","","","","","",""
7.0,0.04097030684351921,0.001089684734949672,"train",8320.0,"2021-11-22 22:30:36.545439","","","","","","",""
7.0,0.05139656364917755,0.00109342373178749,"train",8340.0,"2021-11-22 22:30:39.815429","","","","","","",""
7.0,0.05937999114394188,0.0010971619158766821,"train",8360.0,"2021-11-22 22:30:43.099675","","","","","","",""
7.0,0.061276309192180634,0.0011008992303473152,"train",8380.0,"2021-11-22 22:30:46.432515","","","","","","",""
7.0,0.06863000243902206,0.001104635618342687,"train",8400.0,"2021-11-22 22:30:49.793765","","","","","","",""
7.0,0.08362244069576263,0.001108371023020191,"train",8420.0,"2021-11-22 22:30:52.961973","","","","","","",""
7.0,0.05096333846449852,0.0011121053875521787,"train",8440.0,"2021-11-22 22:30:56.669616","","","","","","",""
7.0,0.07510252296924591,0.0011158386551268257,"train",8460.0,"2021-11-22 22:30:59.772261","","","","","","",""
7.0,0.07994846254587173,0.0011195707689489972,"train",8480.0,"2021-11-22 22:31:02.903925","","","","","","",""
7.0,0.0736231654882431,0.0011233016722411097,"train",8500.0,"2021-11-22 22:31:06.064968","","","","","","",""
7.0,0.05040725693106651,0.0011270313082439951,"train",8520.0,"2021-11-22 22:31:09.222329","","","","","","",""
7.0,0.047014832496643066,0.001130759620217767,"train",8540.0,"2021-11-22 22:31:12.383997","","","","","","",""
7.0,0.06527961790561676,0.0011344865514426794,"train",8560.0,"2021-11-22 22:31:16.194926","","","","","","",""
7.0,0.054892487823963165,0.0011382120452199938,"train",8580.0,"2021-11-22 22:31:19.326288","","","","","","",""
7.0,"","","train",8592.0,"2021-11-22 22:32:54.726469",0.5511023793931455,0.642943651783485,0.965713248721214,0.5850671420860498,0.4728185740616219,0.5008166132855802,0.31331463678934934
7.0,"","","val",8592.0,"2021-11-22 22:33:19.157213",0.5121187521744173,0.5399556611611983,0.9445962748083379,0.5357120577553534,0.41490902464784846,0.4350985217123894,0.26745901790661547
8.0,0.08447964489459991,0.001141936044872839,"train",8600.0,"2021-11-22 22:33:22.970835","","","","","","",""
8.0,0.07674219459295273,0.0011456584937470744,"train",8620.0,"2021-11-22 22:33:26.319855","","","","","","",""
8.0,0.06274744123220444,0.0011493793352121522,"train",8640.0,"2021-11-22 22:33:29.615090","","","","","","",""
8.0,0.07840336859226227,0.0011530985126619784,"train",8660.0,"2021-11-22 22:33:33.561193","","","","","","",""
8.0,0.048969920724630356,0.001156815969515773,"train",8680.0,"2021-11-22 22:33:36.792348","","","","","","",""
8.0,0.06181933730840683,0.001160531649218934,"train",8700.0,"2021-11-22 22:33:40.060188","","","","","","",""
8.0,0.06002959981560707,0.001164245495243894,"train",8720.0,"2021-11-22 22:33:43.329797","","","","","","",""
8.0,0.042280782014131546,0.0011679574510909817,"train",8740.0,"2021-11-22 22:33:46.591545","","","","","","",""
8.0,0.060747213661670685,0.0011716674602892828,"train",8760.0,"2021-11-22 22:33:49.907173","","","","","","",""
8.0,0.08571742475032806,0.0011753754663974968,"train",8780.0,"2021-11-22 22:33:53.741093","","","","","","",""
8.0,0.09626713395118713,0.0011790814130047968,"train",8800.0,"2021-11-22 22:33:57.011073","","","","","","",""
8.0,0.08465656638145447,0.001182785243731688,"train",8820.0,"2021-11-22 22:34:00.225437","","","","","","",""
8.0,0.050507914274930954,0.0011864869022308656,"train",8840.0,"2021-11-22 22:34:03.476245","","","","","","",""
8.0,0.050540558993816376,0.0011901863321880693,"train",8860.0,"2021-11-22 22:34:06.751009","","","","","","",""
8.0,0.037673987448215485,0.001193883477322945,"train",8880.0,"2021-11-22 22:34:10.615909","","","","","","",""
8.0,0.06877010315656662,0.0011975782813898961,"train",8900.0,"2021-11-22 22:34:13.939382","","","","","","",""
8.0,0.05166769400238991,0.0012012706881789417,"train",8920.0,"2021-11-22 22:34:17.222906","","","","","","",""
8.0,0.07762350142002106,0.001204960641516572,"train",8940.0,"2021-11-22 22:34:20.520456","","","","","","",""
8.0,0.0688471570611,0.0012086480852666014,"train",8960.0,"2021-11-22 22:34:23.828409","","","","","","",""
8.0,0.07797326147556305,0.0012123329633310235,"train",8980.0,"2021-11-22 22:34:27.727388","","","","","","",""
8.0,0.04497990012168884,0.0012160152196508643,"train",9000.0,"2021-11-22 22:34:30.976514","","","","","","",""
8.0,0.07046866416931152,0.0012196947982070355,"train",9020.0,"2021-11-22 22:34:34.187634","","","","","","",""
8.0,0.059896305203437805,0.0012233716430211856,"train",9040.0,"2021-11-22 22:34:37.449089","","","","","","",""
8.0,0.07369320839643478,0.001227045698156553,"train",9060.0,"2021-11-22 22:34:40.696133","","","","","","",""
8.0,0.08388747274875641,0.0012307169077188148,"train",9080.0,"2021-11-22 22:34:44.579398","","","","","","",""
8.0,0.07640838623046875,0.0012343852158569401,"train",9100.0,"2021-11-22 22:34:47.878792","","","","","","",""
8.0,0.04439001902937889,0.0012380505667640377,"train",9120.0,"2021-11-22 22:34:51.041979","","","","","","",""
8.0,0.09382543712854385,0.0012417129046782046,"train",9140.0,"2021-11-22 22:34:54.193718","","","","","","",""
8.0,0.08227205276489258,0.0012453721738833758,"train",9160.0,"2021-11-22 22:34:57.390195","","","","","","",""
8.0,0.0523361898958683,0.001249028318710172,"train",9180.0,"2021-11-22 22:35:01.366918","","","","","","",""
8.0,0.09111371636390686,0.0012526812835367447,"train",9200.0,"2021-11-22 22:35:04.755264","","","","","","",""
8.0,0.0938703715801239,0.0012563310127896242,"train",9220.0,"2021-11-22 22:35:08.114579","","","","","","",""
8.0,0.05660894140601158,0.0012599774509445645,"train",9240.0,"2021-11-22 22:35:11.490863","","","","","","",""
8.0,0.05900729075074196,0.0012636205425273874,"train",9260.0,"2021-11-22 22:35:14.701501","","","","","","",""
8.0,0.038294319063425064,0.0012672602321148268,"train",9280.0,"2021-11-22 22:35:17.923978","","","","","","",""
8.0,0.05129100754857063,0.0012708964643353732,"train",9300.0,"2021-11-22 22:35:21.704593","","","","","","",""
8.0,0.08107107132673264,0.001274529183870114,"train",9320.0,"2021-11-22 22:35:24.906247","","","","","","",""
8.0,0.05603046342730522,0.0012781583354535748,"train",9340.0,"2021-11-22 22:35:28.116828","","","","","","",""
8.0,0.035747867077589035,0.0012817838638745646,"train",9360.0,"2021-11-22 22:35:31.333002","","","","","","",""
8.0,0.09473651647567749,0.001285405713977009,"train",9380.0,"2021-11-22 22:35:34.524308","","","","","","",""
8.0,0.0764155238866806,0.0012890238306607947,"train",9400.0,"2021-11-22 22:35:38.463969","","","","","","",""
8.0,0.07335969060659409,0.001292638158882606,"train",9420.0,"2021-11-22 22:35:41.873965","","","","","","",""
8.0,0.042320117354393005,0.0012962486436567603,"train",9440.0,"2021-11-22 22:35:45.385541","","","","","","",""
8.0,0.06298176944255829,0.0012998552300560484,"train",9460.0,"2021-11-22 22:35:48.776965","","","","","","",""
8.0,0.056606899946928024,0.0013034578632125668,"train",9480.0,"2021-11-22 22:35:52.110655","","","","","","",""
8.0,0.06380253285169601,0.0013070564883185534,"train",9500.0,"2021-11-22 22:35:55.932774","","","","","","",""
8.0,0.06582624465227127,0.001310651050627223,"train",9520.0,"2021-11-22 22:35:59.194487","","","","","","",""
8.0,0.05391070619225502,0.001314241495453598,"train",9540.0,"2021-11-22 22:36:02.443746","","","","","","",""
8.0,0.06870397180318832,0.00131782776817534,"train",9560.0,"2021-11-22 22:36:05.636296","","","","","","",""
8.0,0.07249721139669418,0.0013214098142335837,"train",9580.0,"2021-11-22 22:36:08.930641","","","","","","",""
8.0,0.05103501304984093,0.001324987579133764,"train",9600.0,"2021-11-22 22:36:12.912266","","","","","","",""
8.0,0.1098465770483017,0.0013285610084464463,"train",9620.0,"2021-11-22 22:36:16.275521","","","","","","",""
8.0,0.07158532738685608,0.001332130047808155,"train",9640.0,"2021-11-22 22:36:19.589166","","","","","","",""
8.0,0.04167575389146805,0.001335694642922199,"train",9660.0,"2021-11-22 22:36:22.924266","","","","","","",""
8.0,"","","train",9666.0,"2021-11-22 22:37:56.561304",0.5696718329331296,0.6553304007772454,0.9670006886789217,0.58529536110877,0.4849035832175873,0.5175712440671908,0.3192469243757339
8.0,"","","val",9666.0,"2021-11-22 22:38:20.442407",0.5280644787197031,0.5472663569921348,0.9455677646043353,0.5338491544058606,0.42654833024750416,0.45263756725996573,0.27198985050022534
9.0,0.06074165180325508,0.0013392547395594985,"train",9680.0,"2021-11-22 22:38:25.325750","","","","","","",""
9.0,0.04264858365058899,0.001342810283559412,"train",9700.0,"2021-11-22 22:38:28.669125","","","","","","",""
9.0,0.06443101912736893,0.0013463612208305564,"train",9720.0,"2021-11-22 22:38:32.773111","","","","","","",""
9.0,0.0824870690703392,0.0013499074973516321,"train",9740.0,"2021-11-22 22:38:36.027631","","","","","","",""
9.0,0.053963158279657364,0.0013534490591722464,"train",9760.0,"2021-11-22 22:38:39.272427","","","","","","",""
9.0,0.03879471495747566,0.0013569858524137305,"train",9780.0,"2021-11-22 22:38:42.495125","","","","","","",""
9.0,0.05600390583276749,0.001360517823269962,"train",9800.0,"2021-11-22 22:38:45.704651","","","","","","",""
9.0,0.04608524963259697,0.0013640449180081834,"train",9820.0,"2021-11-22 22:38:48.921130","","","","","","",""
9.0,0.06102817878127098,0.0013675670829698173,"train",9840.0,"2021-11-22 22:38:52.109797","","","","","","",""
9.0,0.04871441051363945,0.0013710842645712853,"train",9860.0,"2021-11-22 22:38:55.332171","","","","","","",""
9.0,0.06016957014799118,0.0013745964093048219,"train",9880.0,"2021-11-22 22:38:59.153483","","","","","","",""
9.0,0.05293959006667137,0.0013781034637392886,"train",9900.0,"2021-11-22 22:39:02.377456","","","","","","",""
9.0,0.04696965217590332,0.0013816053745209864,"train",9920.0,"2021-11-22 22:39:05.613748","","","","","","",""
9.0,0.04481871426105499,0.0013851020883744697,"train",9940.0,"2021-11-22 22:39:08.835559","","","","","","",""
9.0,0.07789749652147293,0.001388593552103353,"train",9960.0,"2021-11-22 22:39:12.065892","","","","","","",""
9.0,0.07873335480690002,0.0013920797125911233,"train",9980.0,"2021-11-22 22:39:15.389829","","","","","","",""
9.0,0.07291556894779205,0.001395560516801947,"train",10000.0,"2021-11-22 22:39:18.792985","","","","","","",""
9.0,0.09005596488714218,0.0013990359117814774,"train",10020.0,"2021-11-22 22:39:22.104635","","","","","","",""
9.0,0.049128517508506775,0.0014025058446576583,"train",10040.0,"2021-11-22 22:39:25.810128","","","","","","",""
9.0,0.07697712630033493,0.0014059702626415317,"train",10060.0,"2021-11-22 22:39:28.942286","","","","","","",""
9.0,0.05561839044094086,0.0014094291130280377,"train",10080.0,"2021-11-22 22:39:32.127928","","","","","","",""
9.0,0.06990973651409149,0.0014128823431968183,"train",10100.0,"2021-11-22 22:39:35.268613","","","","","","",""
9.0,0.07825031876564026,0.001416329900613017,"train",10120.0,"2021-11-22 22:39:38.451769","","","","","","",""
9.0,0.057651907205581665,0.0014197717328280782,"train",10140.0,"2021-11-22 22:39:41.735276","","","","","","",""
9.0,0.05920981988310814,0.0014232077874805457,"train",10160.0,"2021-11-22 22:39:44.860822","","","","","","",""
9.0,0.07048298418521881,0.0014266380122968589,"train",10180.0,"2021-11-22 22:39:47.911627","","","","","","",""
9.0,0.049082234501838684,0.0014300623550921468,"train",10200.0,"2021-11-22 22:39:51.606841","","","","","","",""
9.0,0.07906869798898697,0.0014334807637710243,"train",10220.0,"2021-11-22 22:39:54.701952","","","","","","",""
9.0,0.07265932857990265,0.0014368931863283831,"train",10240.0,"2021-11-22 22:39:57.899527","","","","","","",""
9.0,0.044250644743442535,0.0014402995708501826,"train",10260.0,"2021-11-22 22:40:01.087727","","","","","","",""
9.0,0.07536355406045914,0.0014436998655142422,"train",10280.0,"2021-11-22 22:40:04.251608","","","","","","",""
9.0,0.06350652873516083,0.0014470940185910258,"train",10300.0,"2021-11-22 22:40:07.483340","","","","","","",""
9.0,0.07586123049259186,0.001450481978444431,"train",10320.0,"2021-11-22 22:40:10.752650","","","","","","",""
9.0,0.04568483307957649,0.0014538636935325763,"train",10340.0,"2021-11-22 22:40:14.607289","","","","","","",""
9.0,0.045005276799201965,0.0014572391124085817,"train",10360.0,"2021-11-22 22:40:17.870211","","","","","","",""
9.0,0.05965510010719299,0.0014606081837213525,"train",10380.0,"2021-11-22 22:40:21.088395","","","","","","",""
9.0,0.052405983209609985,0.0014639708562163639,"train",10400.0,"2021-11-22 22:40:24.316094","","","","","","",""
9.0,0.07610220462083817,0.001467327078736435,"train",10420.0,"2021-11-22 22:40:27.487813","","","","","","",""
9.0,0.03985350951552391,0.0014706768002225108,"train",10440.0,"2021-11-22 22:40:30.682988","","","","","","",""
9.0,0.07556342333555222,0.0014740199697144392,"train",10460.0,"2021-11-22 22:40:33.874090","","","","","","",""
9.0,0.05123455822467804,0.0014773565363517442,"train",10480.0,"2021-11-22 22:40:37.061451","","","","","","",""
9.0,0.0517096221446991,0.0014806864493744007,"train",10500.0,"2021-11-22 22:40:40.809106","","","","","","",""
9.0,0.06577665358781815,0.0014840096581236072,"train",10520.0,"2021-11-22 22:40:44.021604","","","","","","",""
9.0,0.04888584837317467,0.001487326112042556,"train",10540.0,"2021-11-22 22:40:47.252977","","","","","","",""
9.0,0.04512323811650276,0.0014906357606772013,"train",10560.0,"2021-11-22 22:40:50.501156","","","","","","",""
9.0,0.08096592873334885,0.0014939385536770291,"train",10580.0,"2021-11-22 22:40:53.693738","","","","","","",""
9.0,0.05635744705796242,0.0014972344407958218,"train",10600.0,"2021-11-22 22:40:56.930390","","","","","","",""
9.0,0.051431071013212204,0.0015005233718924213,"train",10620.0,"2021-11-22 22:41:00.167870","","","","","","",""
9.0,0.03276282548904419,0.0015038052969314946,"train",10640.0,"2021-11-22 22:41:03.409722","","","","","","",""
9.0,0.08211977779865265,0.0015070801659842939,"train",10660.0,"2021-11-22 22:41:07.297132","","","","","","",""
9.0,0.05479847639799118,0.001510347929229414,"train",10680.0,"2021-11-22 22:41:10.521349","","","","","","",""
9.0,0.06944327056407928,0.0015136085369535537,"train",10700.0,"2021-11-22 22:41:13.785109","","","","","","",""
9.0,0.05825156345963478,0.0015168619395522708,"train",10720.0,"2021-11-22 22:41:17.143052","","","","","","",""
9.0,0.04608730226755142,0.0015201080875307349,"train",10740.0,"2021-11-22 22:41:20.364715","","","","","","",""
9.0,"","","train",10740.0,"2021-11-22 22:42:46.902824",0.5892017754493196,0.6746066453286473,0.970096048687854,0.6174015185655893,0.5391405530211306,0.565802591186096,0.3636459787413149
9.0,"","","val",10740.0,"2021-11-22 22:43:11.578247",0.5348486605589702,0.5591277762390067,0.9478681670467543,0.550357370323786,0.46140295624864536,0.48405809109815995,0.29524687551285567
10.0,0.04106810316443443,0.0015233469315044834,"train",10760.0,"2021-11-22 22:43:17.432420","","","","","","",""
10.0,0.05956234037876129,0.0015265784222001709,"train",10780.0,"2021-11-22 22:43:20.761818","","","","","","",""
10.0,0.0486067458987236,0.0015298025104563185,"train",10800.0,"2021-11-22 22:43:24.758942","","","","","","",""
10.0,0.06549163162708282,0.001533019147224064,"train",10820.0,"2021-11-22 22:43:27.952765","","","","","","",""
10.0,0.0972830206155777,0.0015362282835679054,"train",10840.0,"2021-11-22 22:43:31.232073","","","","","","",""
10.0,0.06458993256092072,0.0015394298706664469,"train",10860.0,"2021-11-22 22:43:34.483735","","","","","","",""
10.0,0.08959638327360153,0.001542623859813141,"train",10880.0,"2021-11-22 22:43:37.767891","","","","","","",""
10.0,0.09062793105840683,0.00154581020241703,"train",10900.0,"2021-11-22 22:43:41.600893","","","","","","",""
10.0,0.042870692908763885,0.0015489888500034858,"train",10920.0,"2021-11-22 22:43:44.900651","","","","","","",""
10.0,0.0779431015253067,0.0015521597542149444,"train",10940.0,"2021-11-22 22:43:48.256085","","","","","","",""
10.0,0.050441958010196686,0.0015553228668116455,"train",10960.0,"2021-11-22 22:43:51.640036","","","","","","",""
10.0,0.06886569410562515,0.0015584781396723642,"train",10980.0,"2021-11-22 22:43:54.872466","","","","","","",""
10.0,0.07111856341362,0.0015616255247951432,"train",11000.0,"2021-11-22 22:43:57.987777","","","","","","",""
10.0,0.051553163677453995,0.0015647649742980233,"train",11020.0,"2021-11-22 22:44:01.757800","","","","","","",""
10.0,0.04521583020687103,0.0015678964404197727,"train",11040.0,"2021-11-22 22:44:05.084826","","","","","","",""
10.0,0.04563203081488609,0.0015710198755206112,"train",11060.0,"2021-11-22 22:44:08.325958","","","","","","",""
10.0,0.0936586782336235,0.0015741352320829379,"train",11080.0,"2021-11-22 22:44:11.529783","","","","","","",""
10.0,0.08300621807575226,0.0015772424627120527,"train",11100.0,"2021-11-22 22:44:14.802126","","","","","","",""
10.0,0.08660485595464706,0.0015803415201368761,"train",11120.0,"2021-11-22 22:44:18.599963","","","","","","",""
10.0,0.061023224145174026,0.001583432357210671,"train",11140.0,"2021-11-22 22:44:21.863694","","","","","","",""
10.0,0.0546271912753582,0.001586514926911758,"train",11160.0,"2021-11-22 22:44:25.279447","","","","","","",""
10.0,0.055421993136405945,0.0015895891823442313,"train",11180.0,"2021-11-22 22:44:28.570513","","","","","","",""
10.0,0.06662475317716599,0.0015926550767386717,"train",11200.0,"2021-11-22 22:44:31.773963","","","","","","",""
10.0,0.05672367289662361,0.0015957125634528599,"train",11220.0,"2021-11-22 22:44:35.726077","","","","","","",""
10.0,0.054548852145671844,0.0015987615959724836,"train",11240.0,"2021-11-22 22:44:38.977326","","","","","","",""
10.0,0.05815712362527847,0.0016018021279118457,"train",11260.0,"2021-11-22 22:44:42.311298","","","","","","",""
10.0,0.08045053482055664,0.0016048341130145728,"train",11280.0,"2021-11-22 22:44:45.575004","","","","","","",""
10.0,0.07091298699378967,0.0016078575051543145,"train",11300.0,"2021-11-22 22:44:48.733046","","","","","","",""
10.0,0.08690282702445984,0.0016108722583354478,"train",11320.0,"2021-11-22 22:44:52.458104","","","","","","",""
10.0,0.0764656811952591,0.0016138783266937777,"train",11340.0,"2021-11-22 22:44:55.617314","","","","","","",""
10.0,0.0479065366089344,0.0016168756644972322,"train",11360.0,"2021-11-22 22:44:58.962152","","","","","","",""
10.0,0.051972854882478714,0.0016198642261465587,"train",11380.0,"2021-11-22 22:45:02.256370","","","","","","",""
10.0,0.052825719118118286,0.0016228439661760208,"train",11400.0,"2021-11-22 22:45:05.524308","","","","","","",""
10.0,0.0684983879327774,0.001625814839254086,"train",11420.0,"2021-11-22 22:45:09.360367","","","","","","",""
10.0,0.03809277340769768,0.0016287768001841164,"train",11440.0,"2021-11-22 22:45:12.614324","","","","","","",""
10.0,0.05766022577881813,0.001631729803905059,"train",11460.0,"2021-11-22 22:45:15.878260","","","","","","",""
10.0,0.08562368899583817,0.0016346738054921273,"train",11480.0,"2021-11-22 22:45:19.101043","","","","","","",""
10.0,0.051667071878910065,0.001637608760157486,"train",11500.0,"2021-11-22 22:45:22.368719","","","","","","",""
10.0,0.048270996659994125,0.0016405346232509356,"train",11520.0,"2021-11-22 22:45:25.561929","","","","","","",""
10.0,0.0891408920288086,0.0016434513502605861,"train",11540.0,"2021-11-22 22:45:29.388268","","","","","","",""
10.0,0.05039626732468605,0.0016463588968135383,"train",11560.0,"2021-11-22 22:45:32.647736","","","","","","",""
10.0,0.0768461525440216,0.0016492572186765577,"train",11580.0,"2021-11-22 22:45:35.884337","","","","","","",""
10.0,0.054829712957143784,0.001652146271756747,"train",11600.0,"2021-11-22 22:45:39.091848","","","","","","",""
10.0,0.050085533410310745,0.0016550260121022172,"train",11620.0,"2021-11-22 22:45:42.327019","","","","","","",""
10.0,0.06059375777840614,0.0016578963959027562,"train",11640.0,"2021-11-22 22:45:46.144380","","","","","","",""
10.0,0.0691269040107727,0.001660757379490496,"train",11660.0,"2021-11-22 22:45:49.420863","","","","","","",""
10.0,0.040943801403045654,0.0016636089193405761,"train",11680.0,"2021-11-22 22:45:52.693507","","","","","","",""
10.0,0.08283795416355133,0.0016664509720718049,"train",11700.0,"2021-11-22 22:45:55.904794","","","","","","",""
10.0,0.05975274741649628,0.0016692834944473224,"train",11720.0,"2021-11-22 22:45:59.042865","","","","","","",""
10.0,0.04355921968817711,0.0016721064433752554,"train",11740.0,"2021-11-22 22:46:02.857693","","","","","","",""
10.0,0.07033927738666534,0.0016749197759093734,"train",11760.0,"2021-11-22 22:46:06.103607","","","","","","",""
10.0,0.05071476846933365,0.0016777234492497436,"train",11780.0,"2021-11-22 22:46:09.399527","","","","","","",""
10.0,0.05896560847759247,0.0016805174207433808,"train",11800.0,"2021-11-22 22:46:12.706117","","","","","","",""
10.0,"","","train",11814.0,"2021-11-22 22:47:41.099682",0.606388706978098,0.6964473969541506,0.9726067535475954,0.607364062472422,0.5055346363295488,0.5403211117758979,0.34648761258325833
10.0,"","","val",11814.0,"2021-11-22 22:48:04.482109",0.5590861649078047,0.5790286159724377,0.9511003807954668,0.5475623807738041,0.4389835325534849,0.46601921179770944,0.2866312333572335
11.0,0.049357928335666656,0.0016833016478848956,"train",11820.0,"2021-11-22 22:48:07.951420","","","","","","",""
11.0,0.04457421228289604,0.0016860760883171426,"train",11840.0,"2021-11-22 22:48:11.397609","","","","","","",""
11.0,0.05114588141441345,0.001688840699831864,"train",11860.0,"2021-11-22 22:48:15.416611","","","","","","",""
11.0,0.05609705671668053,0.0016915954403703313,"train",11880.0,"2021-11-22 22:48:18.682955","","","","","","",""
11.0,0.052719924598932266,0.0016943402680239862,"train",11900.0,"2021-11-22 22:48:21.882060","","","","","","",""
11.0,0.07801300287246704,0.0016970751410350774,"train",11920.0,"2021-11-22 22:48:25.223177","","","","","","",""
11.0,0.06415333598852158,0.001699800017797296,"train",11940.0,"2021-11-22 22:48:28.599563","","","","","","",""
11.0,0.04182673618197441,0.0017025148568564086,"train",11960.0,"2021-11-22 22:48:31.944640","","","","","","",""
11.0,0.05379023030400276,0.001705219616910888,"train",11980.0,"2021-11-22 22:48:35.310374","","","","","","",""
11.0,0.03839652240276337,0.001707914256812541,"train",12000.0,"2021-11-22 22:48:39.198812","","","","","","",""
11.0,0.046024806797504425,0.0017105987355671352,"train",12020.0,"2021-11-22 22:48:42.338141","","","","","","",""
11.0,0.082675039768219,0.0017132730123350227,"train",12040.0,"2021-11-22 22:48:45.513473","","","","","","",""
11.0,0.0737900361418724,0.00171593704643176,"train",12060.0,"2021-11-22 22:48:48.684019","","","","","","",""
11.0,0.05879707634449005,0.0017185907973287285,"train",12080.0,"2021-11-22 22:48:51.823883","","","","","","",""
11.0,0.07023253291845322,0.0017212342246537506,"train",12100.0,"2021-11-22 22:48:54.879136","","","","","","",""
11.0,0.04497706890106201,0.0017238672881917032,"train",12120.0,"2021-11-22 22:48:57.968677","","","","","","",""
11.0,0.03468150645494461,0.001726489947885131,"train",12140.0,"2021-11-22 22:49:01.095831","","","","","","",""
11.0,0.050415076315402985,0.0017291021638348543,"train",12160.0,"2021-11-22 22:49:04.900625","","","","","","",""
11.0,0.033178240060806274,0.0017317038963005765,"train",12180.0,"2021-11-22 22:49:08.081471","","","","","","",""
11.0,0.049550414085388184,0.00173429510570149,"train",12200.0,"2021-11-22 22:49:11.275224","","","","","","",""
11.0,0.049713846296072006,0.0017368757526168759,"train",12220.0,"2021-11-22 22:49:14.459937","","","","","","",""
11.0,0.07361958920955658,0.0017394457977867057,"train",12240.0,"2021-11-22 22:49:17.722807","","","","","","",""
11.0,0.05025266855955124,0.0017420052021122378,"train",12260.0,"2021-11-22 22:49:21.012981","","","","","","",""
11.0,0.07802741974592209,0.0017445539266566128,"train",12280.0,"2021-11-22 22:49:24.403002","","","","","","",""
11.0,0.06061322242021561,0.001747091932645445,"train",12300.0,"2021-11-22 22:49:27.689415","","","","","","",""
11.0,0.06752710044384003,0.0017496191814674125,"train",12320.0,"2021-11-22 22:49:31.566556","","","","","","",""
11.0,0.0580173023045063,0.001752135634674846,"train",12340.0,"2021-11-22 22:49:34.931718","","","","","","",""
11.0,0.04543294012546539,0.0017546412539843118,"train",12360.0,"2021-11-22 22:49:38.171768","","","","","","",""
11.0,0.05049174651503563,0.001757136001277194,"train",12380.0,"2021-11-22 22:49:41.615899","","","","","","",""
11.0,0.05577637627720833,0.001759619838600278,"train",12400.0,"2021-11-22 22:49:45.073242","","","","","","",""
11.0,0.0434810109436512,0.0017620927281663229,"train",12420.0,"2021-11-22 22:49:48.513345","","","","","","",""
11.0,0.04040055721998215,0.0017645546323546398,"train",12440.0,"2021-11-22 22:49:51.779073","","","","","","",""
11.0,0.06545934081077576,0.0017670055137116636,"train",12460.0,"2021-11-22 22:49:55.045186","","","","","","",""
11.0,0.06295747309923172,0.0017694453349515209,"train",12480.0,"2021-11-22 22:49:59.016291","","","","","","",""
11.0,0.05251077190041542,0.0017718740589566,"train",12500.0,"2021-11-22 22:50:02.316463","","","","","","",""
11.0,0.07763593643903732,0.0017742916487781134,"train",12520.0,"2021-11-22 22:50:05.660998","","","","","","",""
11.0,0.04075915366411209,0.0017766980676366608,"train",12540.0,"2021-11-22 22:50:08.984678","","","","","","",""
11.0,0.04789652302861214,0.001779093278922789,"train",12560.0,"2021-11-22 22:50:12.245674","","","","","","",""
11.0,0.07875839620828629,0.001781477246197548,"train",12580.0,"2021-11-22 22:50:15.496947","","","","","","",""
11.0,0.046572670340538025,0.0017838499331930462,"train",12600.0,"2021-11-22 22:50:18.750434","","","","","","",""
11.0,0.04941679909825325,0.001786211303813001,"train",12620.0,"2021-11-22 22:50:21.987699","","","","","","",""
11.0,0.05262982100248337,0.0017885613221332894,"train",12640.0,"2021-11-22 22:50:25.965101","","","","","","",""
11.0,0.07307463884353638,0.0017908999524024931,"train",12660.0,"2021-11-22 22:50:29.452219","","","","","","",""
11.0,0.055256981402635574,0.0017932271590424438,"train",12680.0,"2021-11-22 22:50:33.010140","","","","","","",""
11.0,0.04682789742946625,0.0017955429066487635,"train",12700.0,"2021-11-22 22:50:36.307781","","","","","","",""
11.0,0.05372505262494087,0.0017978471599914025,"train",12720.0,"2021-11-22 22:50:39.613532","","","","","","",""
11.0,0.04531030356884003,0.0018001398840151778,"train",12740.0,"2021-11-22 22:50:42.907198","","","","","","",""
11.0,0.08727061003446579,0.0018024210438403031,"train",12760.0,"2021-11-22 22:50:46.194032","","","","","","",""
11.0,0.042448315769433975,0.0018046906047629228,"train",12780.0,"2021-11-22 22:50:50.038749","","","","","","",""
11.0,0.05252625420689583,0.0018069485322556372,"train",12800.0,"2021-11-22 22:50:53.245600","","","","","","",""
11.0,0.07003451883792877,0.001809194791968029,"train",12820.0,"2021-11-22 22:50:56.443949","","","","","","",""
11.0,0.059973277151584625,0.0018114293497271863,"train",12840.0,"2021-11-22 22:50:59.677653","","","","","","",""
11.0,0.05902666598558426,0.0018136521715382218,"train",12860.0,"2021-11-22 22:51:02.906605","","","","","","",""
11.0,0.04967416077852249,0.0018158632235847892,"train",12880.0,"2021-11-22 22:51:06.102994","","","","","","",""
11.0,"","","train",12888.0,"2021-11-22 22:52:36.168553",0.6087462708287855,0.7106571762737274,0.9741027643948671,0.6432967912504391,0.5415813943112536,0.5800997929233038,0.37303516568818496
11.0,"","","val",12888.0,"2021-11-22 22:53:00.537595",0.5622173257566973,0.5925240155619806,0.9536588350362574,0.584499695554993,0.4644972757253324,0.4949142272271834,0.30491116304750093
12.0,0.050132542848587036,0.0018180624722295999,"train",12900.0,"2021-11-22 22:53:05.025019","","","","","","",""
12.0,0.03975400701165199,0.001820249884014933,"train",12920.0,"2021-11-22 22:53:08.370088","","","","","","",""
12.0,0.04988054186105728,0.001822425425663144,"train",12940.0,"2021-11-22 22:53:12.336389","","","","","","",""
12.0,0.06579594314098358,0.0018245890640771725,"train",12960.0,"2021-11-22 22:53:15.547926","","","","","","",""
12.0,0.03902031108736992,0.0018267407663410452,"train",12980.0,"2021-11-22 22:53:18.770573","","","","","","",""
12.0,0.0684288889169693,0.0018288804997203755,"train",13000.0,"2021-11-22 22:53:22.030465","","","","","","",""
12.0,0.07248487323522568,0.0018310082316628634,"train",13020.0,"2021-11-22 22:53:25.296134","","","","","","",""
12.0,0.06938360631465912,0.0018331239297987893,"train",13040.0,"2021-11-22 22:53:28.581960","","","","","","",""
12.0,0.06568487733602524,0.0018352275619415066,"train",13060.0,"2021-11-22 22:53:32.405671","","","","","","",""
12.0,0.044132329523563385,0.0018373190960879326,"train",13080.0,"2021-11-22 22:53:35.608269","","","","","","",""
12.0,0.07878237962722778,0.0018393985004190336,"train",13100.0,"2021-11-22 22:53:38.728934","","","","","","",""
12.0,0.04387365281581879,0.00184146574330031,"train",13120.0,"2021-11-22 22:53:41.810840","","","","","","",""
12.0,0.06121593341231346,0.001843520793282278,"train",13140.0,"2021-11-22 22:53:44.997628","","","","","","",""
12.0,0.05178418383002281,0.0018455636191009464,"train",13160.0,"2021-11-22 22:53:48.186771","","","","","","",""
12.0,0.05546872690320015,0.001847594189678294,"train",13180.0,"2021-11-22 22:53:51.975843","","","","","","",""
12.0,0.05448940396308899,0.0018496124741227415,"train",13200.0,"2021-11-22 22:53:55.116003","","","","","","",""
12.0,0.04575126990675926,0.001851618441729622,"train",13220.0,"2021-11-22 22:53:58.292436","","","","","","",""
12.0,0.04782281816005707,0.0018536120619816467,"train",13240.0,"2021-11-22 22:54:01.463309","","","","","","",""
12.0,0.057212356477975845,0.0018555933045493712,"train",13260.0,"2021-11-22 22:54:04.603125","","","","","","",""
12.0,0.04063655808568001,0.0018575621392916554,"train",13280.0,"2021-11-22 22:54:07.747729","","","","","","",""
12.0,0.0497971847653389,0.0018595185362561225,"train",13300.0,"2021-11-22 22:54:11.547073","","","","","","",""
12.0,0.05069698020815849,0.0018614624656796155,"train",13320.0,"2021-11-22 22:54:14.611431","","","","","","",""
12.0,0.06441062688827515,0.0018633938979886484,"train",13340.0,"2021-11-22 22:54:17.701964","","","","","","",""
12.0,0.06900877505540848,0.0018653128037998568,"train",13360.0,"2021-11-22 22:54:20.877464","","","","","","",""
12.0,0.057744935154914856,0.0018672191539204459,"train",13380.0,"2021-11-22 22:54:24.080235","","","","","","",""
12.0,0.051643017679452896,0.0018691129193486335,"train",13400.0,"2021-11-22 22:54:27.332407","","","","","","",""
12.0,0.06432861089706421,0.0018709940712740908,"train",13420.0,"2021-11-22 22:54:31.277484","","","","","","",""
12.0,0.04070044681429863,0.0018728625810783823,"train",13440.0,"2021-11-22 22:54:34.507222","","","","","","",""
12.0,0.05929875746369362,0.0018747184203353996,"train",13460.0,"2021-11-22 22:54:37.730818","","","","","","",""
12.0,0.05887361988425255,0.0018765615608117947,"train",13480.0,"2021-11-22 22:54:40.933065","","","","","","",""
12.0,0.05108640342950821,0.0018783919744674096,"train",13500.0,"2021-11-22 22:54:44.221376","","","","","","",""
12.0,0.0523197241127491,0.0018802096334557027,"train",13520.0,"2021-11-22 22:54:47.640383","","","","","","",""
12.0,0.06502009928226471,0.0018820145101241712,"train",13540.0,"2021-11-22 22:54:50.913792","","","","","","",""
12.0,0.07047698646783829,0.0018838065770147745,"train",13560.0,"2021-11-22 22:54:54.930847","","","","","","",""
12.0,0.06299436837434769,0.0018855858068643496,"train",13580.0,"2021-11-22 22:54:58.212928","","","","","","",""
12.0,0.06344151496887207,0.001887352172605026,"train",13600.0,"2021-11-22 22:55:01.500982","","","","","","",""
12.0,0.06326846778392792,0.0018891056473646398,"train",13620.0,"2021-11-22 22:55:04.775148","","","","","","",""
12.0,0.048502422869205475,0.0018908462044671395,"train",13640.0,"2021-11-22 22:55:08.036536","","","","","","",""
12.0,0.04813209921121597,0.001892573817432993,"train",13660.0,"2021-11-22 22:55:11.225760","","","","","","",""
12.0,0.05433238297700882,0.0018942884599795914,"train",13680.0,"2021-11-22 22:55:15.066655","","","","","","",""
12.0,0.030235445126891136,0.001895990106021648,"train",13700.0,"2021-11-22 22:55:18.309907","","","","","","",""
12.0,0.05966654047369957,0.0018976787296715943,"train",13720.0,"2021-11-22 22:55:21.596965","","","","","","",""
12.0,0.048577114939689636,0.0018993543052399757,"train",13740.0,"2021-11-22 22:55:24.848600","","","","","","",""
12.0,0.047157324850559235,0.0019010168072358413,"train",13760.0,"2021-11-22 22:55:28.061393","","","","","","",""
12.0,0.0637342631816864,0.0019026662103671305,"train",13780.0,"2021-11-22 22:55:31.274447","","","","","","",""
12.0,0.03953270986676216,0.0019043024895410605,"train",13800.0,"2021-11-22 22:55:35.113103","","","","","","",""
12.0,0.04304850101470947,0.001905925619864506,"train",13820.0,"2021-11-22 22:55:38.361526","","","","","","",""
12.0,0.06436798721551895,0.001907535576644378,"train",13840.0,"2021-11-22 22:55:41.657112","","","","","","",""
12.0,0.044311750680208206,0.0019091323353880008,"train",13860.0,"2021-11-22 22:55:44.946661","","","","","","",""
12.0,0.046546246856451035,0.0019107158718034828,"train",13880.0,"2021-11-22 22:55:48.203960","","","","","","",""
12.0,0.04505693167448044,0.001912286161800088,"train",13900.0,"2021-11-22 22:55:51.428996","","","","","","",""
12.0,0.05963507667183876,0.0019138431814886008,"train",13920.0,"2021-11-22 22:55:55.176720","","","","","","",""
12.0,0.09672493487596512,0.0019153869071816896,"train",13940.0,"2021-11-22 22:55:58.256833","","","","","","",""
12.0,0.05894189700484276,0.0019169173153942693,"train",13960.0,"2021-11-22 22:56:01.446560","","","","","","",""
12.0,"","","train",13962.0,"2021-11-22 22:57:28.565802",0.626879138470494,0.7279139244410943,0.9774554059130707,0.6329110441560428,0.545971508756277,0.5731166651399238,0.3854076059797228
12.0,"","","val",13962.0,"2021-11-22 22:57:53.496312",0.5739881711701265,0.6021567097508131,0.9562707149802603,0.5678906852783899,0.4776509173576304,0.49888113217736396,0.31696861743851507
13.0,0.053511545062065125,0.0019184343828438557,"train",13980.0,"2021-11-22 22:57:59.008232","","","","","","",""
13.0,0.054424479603767395,0.0019199380864509208,"train",14000.0,"2021-11-22 22:58:02.207621","","","","","","",""
13.0,0.04310895875096321,0.0019214284033392457,"train",14020.0,"2021-11-22 22:58:05.300715","","","","","","",""
13.0,0.050723444670438766,0.0019229053108362649,"train",14040.0,"2021-11-22 22:58:09.153033","","","","","","",""
13.0,0.03787899762392044,0.0019243687864734145,"train",14060.0,"2021-11-22 22:58:12.548473","","","","","","",""
13.0,0.04540088772773743,0.0019258188079864732,"train",14080.0,"2021-11-22 22:58:15.917013","","","","","","",""
13.0,0.06222042068839073,0.0019272553533158999,"train",14100.0,"2021-11-22 22:58:19.174553","","","","","","",""
13.0,0.03771227225661278,0.0019286784006071697,"train",14120.0,"2021-11-22 22:58:22.426151","","","","","","",""
13.0,0.05267767980694771,0.0019300879282111083,"train",14140.0,"2021-11-22 22:58:25.613490","","","","","","",""
13.0,0.07892533391714096,0.0019314839146842185,"train",14160.0,"2021-11-22 22:58:28.845198","","","","","","",""
13.0,0.039173319935798645,0.0019328663387890076,"train",14180.0,"2021-11-22 22:58:32.768417","","","","","","",""
13.0,0.03580741211771965,0.0019342351794943119,"train",14200.0,"2021-11-22 22:58:36.092226","","","","","","",""
13.0,0.047238487750291824,0.0019355904159756138,"train",14220.0,"2021-11-22 22:58:39.346003","","","","","","",""
13.0,0.05102403461933136,0.0019369320276153613,"train",14240.0,"2021-11-22 22:58:42.650550","","","","","","",""
13.0,0.06291933357715607,0.00193825999400328,"train",14260.0,"2021-11-22 22:58:45.942626","","","","","","",""
13.0,0.04547650367021561,0.0019395742949366843,"train",14280.0,"2021-11-22 22:58:49.279264","","","","","","",""
13.0,0.04677679017186165,0.0019408749104207845,"train",14300.0,"2021-11-22 22:58:53.336583","","","","","","",""
13.0,0.04315996170043945,0.0019421618206689913,"train",14320.0,"2021-11-22 22:58:56.689863","","","","","","",""
13.0,0.08629148453474045,0.0019434350061032163,"train",14340.0,"2021-11-22 22:58:59.970071","","","","","","",""
13.0,0.05815064162015915,0.0019446944473541703,"train",14360.0,"2021-11-22 22:59:03.262319","","","","","","",""
13.0,0.03580853343009949,0.0019459401252616573,"train",14380.0,"2021-11-22 22:59:06.705488","","","","","","",""
13.0,0.07626347988843918,0.001947172020874868,"train",14400.0,"2021-11-22 22:59:10.126739","","","","","","",""
13.0,0.05464119464159012,0.0019483901154526647,"train",14420.0,"2021-11-22 22:59:13.916485","","","","","","",""
13.0,0.04109155386686325,0.0019495943904638694,"train",14440.0,"2021-11-22 22:59:17.105706","","","","","","",""
13.0,0.04931254684925079,0.0019507848275875444,"train",14460.0,"2021-11-22 22:59:20.334030","","","","","","",""
13.0,0.04375395551323891,0.0019519614087132712,"train",14480.0,"2021-11-22 22:59:23.668608","","","","","","",""
13.0,0.02849341370165348,0.0019531241159414263,"train",14500.0,"2021-11-22 22:59:27.012745","","","","","","",""
13.0,0.06258156150579453,0.001954272931583453,"train",14520.0,"2021-11-22 22:59:30.391804","","","","","","",""
13.0,0.05383185297250748,0.0019554078381621306,"train",14540.0,"2021-11-22 22:59:34.396901","","","","","","",""
13.0,0.03691656142473221,0.0019565288184118417,"train",14560.0,"2021-11-22 22:59:37.705738","","","","","","",""
13.0,0.03898501396179199,0.0019576358552788314,"train",14580.0,"2021-11-22 22:59:40.961087","","","","","","",""
13.0,0.045918695628643036,0.0019587289319214713,"train",14600.0,"2021-11-22 22:59:44.246097","","","","","","",""
13.0,0.05220479518175125,0.0019598080317105113,"train",14620.0,"2021-11-22 22:59:47.499559","","","","","","",""
13.0,0.057958293706178665,0.001960873138229337,"train",14640.0,"2021-11-22 22:59:50.747313","","","","","","",""
13.0,0.05352180823683739,0.0019619242352742153,"train",14660.0,"2021-11-22 22:59:54.678398","","","","","","",""
13.0,0.049523111432790756,0.001962961306854543,"train",14680.0,"2021-11-22 22:59:57.986908","","","","","","",""
13.0,0.047339532524347305,0.0019639843371930905,"train",14700.0,"2021-11-22 23:00:01.107358","","","","","","",""
13.0,0.029048366472125053,0.001964993310726241,"train",14720.0,"2021-11-22 23:00:04.084445","","","","","","",""
13.0,0.06810111552476883,0.0019659882121042262,"train",14740.0,"2021-11-22 23:00:07.041189","","","","","","",""
13.0,0.042369741946458817,0.001966969026191363,"train",14760.0,"2021-11-22 23:00:10.216803","","","","","","",""
13.0,0.04553365707397461,0.0019679357380662805,"train",14780.0,"2021-11-22 23:00:13.434221","","","","","","",""
13.0,0.038563720881938934,0.001968888333022148,"train",14800.0,"2021-11-22 23:00:17.285323","","","","","","",""
13.0,0.06843198835849762,0.0019698267965669,"train",14820.0,"2021-11-22 23:00:20.553388","","","","","","",""
13.0,0.05576440319418907,0.0019707511144234557,"train",14840.0,"2021-11-22 23:00:23.869801","","","","","","",""
13.0,0.05952923372387886,0.001971661272529935,"train",14860.0,"2021-11-22 23:00:27.147072","","","","","","",""
13.0,0.09149587154388428,0.001972557257039875,"train",14880.0,"2021-11-22 23:00:30.423006","","","","","","",""
13.0,0.07534851133823395,0.0019734390543224385,"train",14900.0,"2021-11-22 23:00:33.720906","","","","","","",""
13.0,0.04656335338950157,0.001974306650962622,"train",14920.0,"2021-11-22 23:00:37.602069","","","","","","",""
13.0,0.055408451706171036,0.0019751600337614608,"train",14940.0,"2021-11-22 23:00:40.707504","","","","","","",""
13.0,0.05717563256621361,0.0019759991897362284,"train",14960.0,"2021-11-22 23:00:43.870238","","","","","","",""
13.0,0.05402645468711853,0.0019768241061206343,"train",14980.0,"2021-11-22 23:00:47.085415","","","","","","",""
13.0,0.07452287524938583,0.0019776347703650186,"train",15000.0,"2021-11-22 23:00:50.380270","","","","","","",""
13.0,0.044869571924209595,0.001978431170136543,"train",15020.0,"2021-11-22 23:00:53.791045","","","","","","",""
13.0,"","","train",15036.0,"2021-11-22 23:02:25.477796",0.6355089863930728,0.7470332182893713,0.979807294695605,0.6510451965231366,0.5587224637244417,0.5957282666362628,0.3934046674562227
13.0,"","","val",15036.0,"2021-11-22 23:02:48.752249",0.5818740577525223,0.6094893653343174,0.958714801189,0.5824973460379493,0.4889356837463985,0.5174399062481956,0.32527293269338065
14.0,0.045844290405511856,0.0019792132933193784,"train",15040.0,"2021-11-22 23:02:51.833449","","","","","","",""
14.0,0.036376725882291794,0.001979981128014888,"train",15060.0,"2021-11-22 23:02:55.238859","","","","","","",""
14.0,0.03058963641524315,0.001980734662541811,"train",15080.0,"2021-11-22 23:02:58.510651","","","","","","",""
14.0,0.03889013081789017,0.0019814738854364374,"train",15100.0,"2021-11-22 23:03:01.780748","","","","","","",""
14.0,0.063895083963871,0.0019821987854527832,"train",15120.0,"2021-11-22 23:03:05.002983","","","","","","",""
14.0,0.06760567426681519,0.0019829093515627634,"train",15140.0,"2021-11-22 23:03:08.933960","","","","","","",""
14.0,0.04087801277637482,0.001983605572956358,"train",15160.0,"2021-11-22 23:03:12.345827","","","","","","",""
14.0,0.057381145656108856,0.001984287439041775,"train",15180.0,"2021-11-22 23:03:15.711317","","","","","","",""
14.0,0.06462171673774719,0.001984954939445616,"train",15200.0,"2021-11-22 23:03:18.975678","","","","","","",""
14.0,0.038588233292102814,0.0019856080640130295,"train",15220.0,"2021-11-22 23:03:22.249149","","","","","","",""
14.0,0.03794537112116814,0.0019862468028078676,"train",15240.0,"2021-11-22 23:03:26.087729","","","","","","",""
14.0,0.03787584230303764,0.001986871146112837,"train",15260.0,"2021-11-22 23:03:29.360231","","","","","","",""
14.0,0.06049264594912529,0.0019874810844296466,"train",15280.0,"2021-11-22 23:03:32.654665","","","","","","",""
14.0,0.08916822075843811,0.0019880766084791517,"train",15300.0,"2021-11-22 23:03:36.070837","","","","","","",""
14.0,0.04887383431196213,0.0019886577092014953,"train",15320.0,"2021-11-22 23:03:39.617274","","","","","","",""
14.0,0.04929366707801819,0.001989224377756247,"train",15340.0,"2021-11-22 23:03:42.920812","","","","","","",""
14.0,0.039924997836351395,0.0019897766055225353,"train",15360.0,"2021-11-22 23:03:46.901331","","","","","","",""
14.0,0.03525051847100258,0.0019903143840991813,"train",15380.0,"2021-11-22 23:03:50.194325","","","","","","",""
14.0,0.034587498754262924,0.0019908377053048246,"train",15400.0,"2021-11-22 23:03:53.442258","","","","","","",""
14.0,0.057124871760606766,0.001991346561178048,"train",15420.0,"2021-11-22 23:03:56.676257","","","","","","",""
14.0,0.057137832045555115,0.0019918409439775003,"train",15440.0,"2021-11-22 23:03:59.957497","","","","","","",""
14.0,0.04384322091937065,0.0019923208461820117,"train",15460.0,"2021-11-22 23:04:03.643007","","","","","","",""
14.0,0.03943010792136192,0.001992786260490709,"train",15480.0,"2021-11-22 23:04:06.789068","","","","","","",""
14.0,0.06541740894317627,0.0019932371798231287,"train",15500.0,"2021-11-22 23:04:10.093314","","","","","","",""
14.0,0.032250598073005676,0.0019936735973193212,"train",15520.0,"2021-11-22 23:04:13.467467","","","","","","",""
14.0,0.04373207315802574,0.001994095506339958,"train",15540.0,"2021-11-22 23:04:16.803176","","","","","","",""
14.0,0.048887863755226135,0.001994502900466431,"train",15560.0,"2021-11-22 23:04:20.633675","","","","","","",""
14.0,0.032119493931531906,0.0019948957735009517,"train",15580.0,"2021-11-22 23:04:23.910390","","","","","","",""
14.0,0.05527903512120247,0.0019952741194666436,"train",15600.0,"2021-11-22 23:04:27.172361","","","","","","",""
14.0,0.040239572525024414,0.0019956379326076354,"train",15620.0,"2021-11-22 23:04:30.486386","","","","","","",""
14.0,0.04819827899336815,0.001995987207389146,"train",15640.0,"2021-11-22 23:04:33.745468","","","","","","",""
14.0,0.06978441774845123,0.0019963219384975706,"train",15660.0,"2021-11-22 23:04:37.602278","","","","","","",""
14.0,0.0327097587287426,0.001996642120840561,"train",15680.0,"2021-11-22 23:04:40.952343","","","","","","",""
14.0,0.06528455018997192,0.001996947749547103,"train",15700.0,"2021-11-22 23:04:44.232016","","","","","","",""
14.0,0.06840862333774567,0.0019972388199675905,"train",15720.0,"2021-11-22 23:04:47.478266","","","","","","",""
14.0,0.0693076029419899,0.001997515327673896,"train",15740.0,"2021-11-22 23:04:50.771482","","","","","","",""
14.0,0.042426347732543945,0.0019977772684594388,"train",15760.0,"2021-11-22 23:04:54.691161","","","","","","",""
14.0,0.03814176842570305,0.0019980246383392475,"train",15780.0,"2021-11-22 23:04:58.058179","","","","","","",""
14.0,0.038489799946546555,0.0019982574335500225,"train",15800.0,"2021-11-22 23:05:01.389760","","","","","","",""
14.0,0.07214981317520142,0.001998475650550192,"train",15820.0,"2021-11-22 23:05:04.643884","","","","","","",""
14.0,0.06787674129009247,0.0019986792860199657,"train",15840.0,"2021-11-22 23:05:07.866068","","","","","","",""
14.0,0.03801050782203674,0.001998868336861386,"train",15860.0,"2021-11-22 23:05:11.119021","","","","","","",""
14.0,0.04156472906470299,0.001999042800198376,"train",15880.0,"2021-11-22 23:05:14.945155","","","","","","",""
14.0,0.03481457754969597,0.00199920267337678,"train",15900.0,"2021-11-22 23:05:18.208490","","","","","","",""
14.0,0.04346764087677002,0.0019993479539644077,"train",15920.0,"2021-11-22 23:05:21.373500","","","","","","",""
14.0,0.039415061473846436,0.0019994786397510697,"train",15940.0,"2021-11-22 23:05:24.604302","","","","","","",""
14.0,0.03831413760781288,0.0019995947287486096,"train",15960.0,"2021-11-22 23:05:27.846487","","","","","","",""
14.0,0.03737054392695427,0.0019996962191909367,"train",15980.0,"2021-11-22 23:05:31.727836","","","","","","",""
14.0,0.04636615142226219,0.0019997831095340513,"train",16000.0,"2021-11-22 23:05:34.989691","","","","","","",""
14.0,0.03931780159473419,0.001999855398456069,"train",16020.0,"2021-11-22 23:05:38.258703","","","","","","",""
14.0,0.047584664076566696,0.00199991308485724,"train",16040.0,"2021-11-22 23:05:41.451888","","","","","","",""
14.0,0.06571529060602188,0.001999956167859967,"train",16060.0,"2021-11-22 23:05:44.711246","","","","","","",""
14.0,0.07482115179300308,0.0019999846468088172,"train",16080.0,"2021-11-22 23:05:48.643832","","","","","","",""
14.0,0.05865081772208214,0.0019999985212705335,"train",16100.0,"2021-11-22 23:05:51.921569","","","","","","",""
14.0,"","","train",16110.0,"2021-11-22 23:07:20.708179",0.6416502946954813,0.7561460872209895,0.981669795064964,0.6689448520398235,0.5986243735550801,0.6388426196551911,0.4151781641798854
14.0,"","","val",16110.0,"2021-11-22 23:07:44.902507",0.575495767134408,0.6062343148505953,0.9584645111199424,0.5868838446368723,0.5015812515338766,0.5329648532115709,0.3245961451872746
15.0,0.06403879076242447,0.0019999995774202316,"train",16120.0,"2021-11-22 23:07:48.995449","","","","","","",""
15.0,0.05157593637704849,0.0019999966438102564,"train",16140.0,"2021-11-22 23:07:52.394977","","","","","","",""
15.0,0.04786839708685875,0.0019999909162942875,"train",16160.0,"2021-11-22 23:07:55.711085","","","","","","",""
15.0,0.041948795318603516,0.001999982394888327,"train",16180.0,"2021-11-22 23:07:59.170512","","","","","","",""
15.0,0.07403564453125,0.0019999710796161823,"train",16200.0,"2021-11-22 23:08:02.431830","","","","","","",""
15.0,0.058118466287851334,0.0019999569705094686,"train",16220.0,"2021-11-22 23:08:06.308831","","","","","","",""
15.0,0.07141118496656418,0.001999940067607605,"train",16240.0,"2021-11-22 23:08:09.526485","","","","","","",""
15.0,0.03775285556912422,0.001999920370957817,"train",16260.0,"2021-11-22 23:08:12.749394","","","","","","",""
15.0,0.037039924412965775,0.0019998978806151355,"train",16280.0,"2021-11-22 23:08:16.034119","","","","","","",""
15.0,0.05335898697376251,0.0019998725966423976,"train",16300.0,"2021-11-22 23:08:19.253718","","","","","","",""
15.0,0.05898711457848549,0.001999844519110244,"train",16320.0,"2021-11-22 23:08:22.462119","","","","","","",""
15.0,0.04709496721625328,0.001999813648097122,"train",16340.0,"2021-11-22 23:08:25.633720","","","","","","",""
15.0,0.04926283657550812,0.001999779983689282,"train",16360.0,"2021-11-22 23:08:28.945442","","","","","","",""
15.0,0.036297380924224854,0.0019997435259807806,"train",16380.0,"2021-11-22 23:08:32.780830","","","","","","",""
15.0,0.03459196165204048,0.001999704275073478,"train",16400.0,"2021-11-22 23:08:36.202348","","","","","","",""
15.0,0.045735716819763184,0.0019996622310770383,"train",16420.0,"2021-11-22 23:08:39.558072","","","","","","",""
15.0,0.036779966205358505,0.0019996173941089286,"train",16440.0,"2021-11-22 23:08:42.783424","","","","","","",""
15.0,0.04736896976828575,0.0019995697642944212,"train",16460.0,"2021-11-22 23:08:46.115989","","","","","","",""
15.0,0.07844331115484238,0.0019995193417665894,"train",16480.0,"2021-11-22 23:08:49.430914","","","","","","",""
15.0,0.07181258499622345,0.0019994661266663108,"train",16500.0,"2021-11-22 23:08:52.693085","","","","","","",""
15.0,0.04577400162816048,0.001999410119142264,"train",16520.0,"2021-11-22 23:08:56.578984","","","","","","",""
15.0,0.03763730451464653,0.0019993513193509297,"train",16540.0,"2021-11-22 23:08:59.810505","","","","","","",""
15.0,0.06959349662065506,0.0019992897274565906,"train",16560.0,"2021-11-22 23:09:02.950051","","","","","","",""
15.0,0.07666103541851044,0.0019992253436313303,"train",16580.0,"2021-11-22 23:09:06.158599","","","","","","",""
15.0,0.045899759978055954,0.0019991581680550313,"train",16600.0,"2021-11-22 23:09:09.312970","","","","","","",""
15.0,0.042614396661520004,0.0019990882009153785,"train",16620.0,"2021-11-22 23:09:12.467484","","","","","","",""
15.0,0.0342307984828949,0.001999015442407854,"train",16640.0,"2021-11-22 23:09:15.632399","","","","","","",""
15.0,0.047152794897556305,0.0019989398927357403,"train",16660.0,"2021-11-22 23:09:18.806681","","","","","","",""
15.0,0.036979641765356064,0.0019988615521101174,"train",16680.0,"2021-11-22 23:09:22.655677","","","","","","",""
15.0,0.04656447470188141,0.0019987804207498637,"train",16700.0,"2021-11-22 23:09:25.868054","","","","","","",""
15.0,0.04464801773428917,0.0019986964988816533,"train",16720.0,"2021-11-22 23:09:29.111441","","","","","","",""
15.0,0.07059794664382935,0.0019986097867399585,"train",16740.0,"2021-11-22 23:09:32.283914","","","","","","",""
15.0,0.057942427694797516,0.0019985202845670463,"train",16760.0,"2021-11-22 23:09:35.452105","","","","","","",""
15.0,0.06885646283626556,0.0019984279926129798,"train",16780.0,"2021-11-22 23:09:38.638140","","","","","","",""
15.0,0.031757764518260956,0.001998332911135615,"train",16800.0,"2021-11-22 23:09:41.853975","","","","","","",""
15.0,0.061031829565763474,0.0019982350404006036,"train",16820.0,"2021-11-22 23:09:45.096208","","","","","","",""
15.0,0.0447402149438858,0.0019981343806813883,"train",16840.0,"2021-11-22 23:09:48.903374","","","","","","",""
15.0,0.05138318985700607,0.001998030932259205,"train",16860.0,"2021-11-22 23:09:52.138017","","","","","","",""
15.0,0.04664143547415733,0.0019979246954230823,"train",16880.0,"2021-11-22 23:09:55.453472","","","","","","",""
15.0,0.03509176895022392,0.0019978156704698363,"train",16900.0,"2021-11-22 23:09:58.888216","","","","","","",""
15.0,0.03507078438997269,0.001997703857704076,"train",16920.0,"2021-11-22 23:10:02.335001","","","","","","",""
15.0,0.04347716271877289,0.0019975892574381976,"train",16940.0,"2021-11-22 23:10:05.846748","","","","","","",""
15.0,0.045452430844306946,0.001997471869992386,"train",16960.0,"2021-11-22 23:10:09.100499","","","","","","",""
15.0,0.051799703389406204,0.0019973516956946127,"train",16980.0,"2021-11-22 23:10:12.343587","","","","","","",""
15.0,0.06131921708583832,0.0019972287348806366,"train",17000.0,"2021-11-22 23:10:16.239462","","","","","","",""
15.0,0.03782074525952339,0.0019971029878940003,"train",17020.0,"2021-11-22 23:10:19.417200","","","","","","",""
15.0,0.06815405935049057,0.0019969744550860317,"train",17040.0,"2021-11-22 23:10:22.601639","","","","","","",""
15.0,0.041595131158828735,0.0019968431368158433,"train",17060.0,"2021-11-22 23:10:25.809014","","","","","","",""
15.0,0.08292623609304428,0.001996709033450327,"train",17080.0,"2021-11-22 23:10:29.032626","","","","","","",""
15.0,0.04413449019193649,0.0019965721453641585,"train",17100.0,"2021-11-22 23:10:32.294203","","","","","","",""
15.0,0.0512833446264267,0.0019964324729397935,"train",17120.0,"2021-11-22 23:10:35.444283","","","","","","",""
15.0,0.03251185268163681,0.0019962900165674657,"train",17140.0,"2021-11-22 23:10:38.598202","","","","","","",""
15.0,0.04462164640426636,0.0019961447766451887,"train",17160.0,"2021-11-22 23:10:42.479634","","","","","","",""
15.0,0.06483253091573715,0.001995996753578751,"train",17180.0,"2021-11-22 23:10:45.794215","","","","","","",""
15.0,"","","train",17184.0,"2021-11-22 23:12:15.308474",0.6621407261878774,0.7795561605117229,0.9836315081974788,0.6947883972798653,0.6220117096275042,0.6589399003895264,0.4432886124093338
15.0,"","","val",17184.0,"2021-11-22 23:12:40.108368",0.5932969964049635,0.6200662069670001,0.9599022094511457,0.6081199306805551,0.5195201327374421,0.5465119235216679,0.3449758403227825
16.0,0.08737477660179138,0.001995845947781719,"train",17200.0,"2021-11-22 23:12:45.325289","","","","","","",""
16.0,0.04653625190258026,0.001995692359675433,"train",17220.0,"2021-11-22 23:12:48.669922","","","","","","",""
16.0,0.06221920996904373,0.0019955359896890066,"train",17240.0,"2021-11-22 23:12:51.992995","","","","","","",""
16.0,0.04377401992678642,0.0019953768382593258,"train",17260.0,"2021-11-22 23:12:55.173901","","","","","","",""
16.0,0.046936579048633575,0.0019952149058310486,"train",17280.0,"2021-11-22 23:12:59.192820","","","","","","",""
16.0,0.06499893218278885,0.001995050192856602,"train",17300.0,"2021-11-22 23:13:02.411212","","","","","","",""
16.0,0.03266473114490509,0.001994882699796182,"train",17320.0,"2021-11-22 23:13:05.620987","","","","","","",""
16.0,0.047371700406074524,0.001994712427117752,"train",17340.0,"2021-11-22 23:13:08.837289","","","","","","",""
16.0,0.047189705073833466,0.0019945393752970413,"train",17360.0,"2021-11-22 23:13:12.075339","","","","","","",""
16.0,0.04991387575864792,0.001994363544817544,"train",17380.0,"2021-11-22 23:13:15.297731","","","","","","",""
16.0,0.04740030691027641,0.001994184936170517,"train",17400.0,"2021-11-22 23:13:18.416601","","","","","","",""
16.0,0.0644804984331131,0.0019940035498549804,"train",17420.0,"2021-11-22 23:13:22.416293","","","","","","",""
16.0,0.03910520672798157,0.0019938193863777145,"train",17440.0,"2021-11-22 23:13:25.553098","","","","","","",""
16.0,0.042143117636442184,0.001993632446253258,"train",17460.0,"2021-11-22 23:13:28.699859","","","","","","",""
16.0,0.06245577707886696,0.0019934427300039074,"train",17480.0,"2021-11-22 23:13:31.905201","","","","","","",""
16.0,0.04603089019656181,0.001993250238159717,"train",17500.0,"2021-11-22 23:13:35.041986","","","","","","",""
16.0,0.03984754905104637,0.0019930549712584944,"train",17520.0,"2021-11-22 23:13:38.252644","","","","","","",""
16.0,0.03653112053871155,0.001992856929845801,"train",17540.0,"2021-11-22 23:13:42.055374","","","","","","",""
16.0,0.049306485801935196,0.0019926561144749497,"train",17560.0,"2021-11-22 23:13:45.238561","","","","","","",""
16.0,0.06946661323308945,0.001992452525707004,"train",17580.0,"2021-11-22 23:13:48.442484","","","","","","",""
16.0,0.029730962589383125,0.0019922461641107767,"train",17600.0,"2021-11-22 23:13:51.685300","","","","","","",""
16.0,0.036948274821043015,0.001992037030262826,"train",17620.0,"2021-11-22 23:13:54.915538","","","","","","",""
16.0,0.06779050827026367,0.0019918251247474567,"train",17640.0,"2021-11-22 23:13:58.212898","","","","","","",""
16.0,0.05153392627835274,0.001991610448156718,"train",17660.0,"2021-11-22 23:14:02.171179","","","","","","",""
16.0,0.039992984384298325,0.0019913930010903996,"train",17680.0,"2021-11-22 23:14:05.594659","","","","","","",""
16.0,0.036814361810684204,0.001991172784156033,"train",17700.0,"2021-11-22 23:14:09.011780","","","","","","",""
16.0,0.07596225291490555,0.0019909497979688877,"train",17720.0,"2021-11-22 23:14:12.274555","","","","","","",""
16.0,0.029031112790107727,0.0019907240431519713,"train",17740.0,"2021-11-22 23:14:15.517904","","","","","","",""
16.0,0.07317419350147247,0.001990495520336026,"train",17760.0,"2021-11-22 23:14:18.679683","","","","","","",""
16.0,0.04035164788365364,0.0019902642301595284,"train",17780.0,"2021-11-22 23:14:22.482855","","","","","","",""
16.0,0.03534082695841789,0.001990030173268685,"train",17800.0,"2021-11-22 23:14:25.700495","","","","","","",""
16.0,0.027487127110362053,0.0019897933503174345,"train",17820.0,"2021-11-22 23:14:28.842394","","","","","","",""
16.0,0.04916536808013916,0.0019895537619674425,"train",17840.0,"2021-11-22 23:14:32.180168","","","","","","",""
16.0,0.03779564052820206,0.001989311408888101,"train",17860.0,"2021-11-22 23:14:35.653593","","","","","","",""
16.0,0.06874948740005493,0.001989066291756527,"train",17880.0,"2021-11-22 23:14:38.986504","","","","","","",""
16.0,0.07354534417390823,0.00198881841125756,"train",17900.0,"2021-11-22 23:14:42.771029","","","","","","",""
16.0,0.040545422583818436,0.0019885677680837595,"train",17920.0,"2021-11-22 23:14:45.971465","","","","","","",""
16.0,0.05489165335893631,0.001988314362935404,"train",17940.0,"2021-11-22 23:14:49.192716","","","","","","",""
16.0,0.05253303796052933,0.0019880581965204896,"train",17960.0,"2021-11-22 23:14:52.425653","","","","","","",""
16.0,0.05062596872448921,0.0019877992695547255,"train",17980.0,"2021-11-22 23:14:55.650114","","","","","","",""
16.0,0.08507675677537918,0.0019875375827615354,"train",18000.0,"2021-11-22 23:14:58.852234","","","","","","",""
16.0,0.061313580721616745,0.0019872731368720527,"train",18020.0,"2021-11-22 23:15:02.148517","","","","","","",""
16.0,0.057459987699985504,0.00198700593262512,"train",18040.0,"2021-11-22 23:15:06.010603","","","","","","",""
16.0,0.0556526854634285,0.001986735970767286,"train",18060.0,"2021-11-22 23:15:09.272939","","","","","","",""
16.0,0.03432464227080345,0.001986463252052804,"train",18080.0,"2021-11-22 23:15:12.526434","","","","","","",""
16.0,0.07530073076486588,0.0019861877772436305,"train",18100.0,"2021-11-22 23:15:15.806404","","","","","","",""
16.0,0.056317929178476334,0.001985909547109422,"train",18120.0,"2021-11-22 23:15:19.060438","","","","","","",""
16.0,0.03311874717473984,0.001985628562427533,"train",18140.0,"2021-11-22 23:15:22.365931","","","","","","",""
16.0,0.07425335794687271,0.001985344823983014,"train",18160.0,"2021-11-22 23:15:26.378952","","","","","","",""
16.0,0.039846546947956085,0.001985058332568609,"train",18180.0,"2021-11-22 23:15:29.624376","","","","","","",""
16.0,0.05389532819390297,0.001984769088984755,"train",18200.0,"2021-11-22 23:15:32.893593","","","","","","",""
16.0,0.04000309482216835,0.001984477094039576,"train",18220.0,"2021-11-22 23:15:36.076842","","","","","","",""
16.0,0.05992827191948891,0.001984182348548885,"train",18240.0,"2021-11-22 23:15:39.257149","","","","","","",""
16.0,"","","train",18258.0,"2021-11-22 23:17:08.893580",0.6739430983045914,0.793452267576191,0.9852371604878252,0.7092971783512976,0.6145721039661818,0.6501128947723693,0.44152223470241964
16.0,"","","val",18258.0,"2021-11-22 23:17:34.009509",0.5999652093239012,0.6266852642803974,0.9609898531476794,0.6184344256681068,0.5107906701747319,0.5391229390299401,0.3392214566962695
17.0,0.10111206024885178,0.00198388485333618,"train",18260.0,"2021-11-22 23:17:36.814354","","","","","","",""
17.0,0.04172036424279213,0.0019835846092326396,"train",18280.0,"2021-11-22 23:17:41.050780","","","","","","",""
17.0,0.03208339586853981,0.0019832816170771246,"train",18300.0,"2021-11-22 23:17:44.303787","","","","","","",""
17.0,0.049731530249118805,0.001982975877716172,"train",18320.0,"2021-11-22 23:17:47.510008","","","","","","",""
17.0,0.0692603662610054,0.0019826673920039957,"train",18340.0,"2021-11-22 23:17:50.750439","","","","","","",""
17.0,0.058663930743932724,0.0019823561608024822,"train",18360.0,"2021-11-22 23:17:53.947578","","","","","","",""
17.0,0.03834843263030052,0.0019820421849811886,"train",18380.0,"2021-11-22 23:17:57.749109","","","","","","",""
17.0,0.03741306811571121,0.0019817254654173402,"train",18400.0,"2021-11-22 23:18:01.026595","","","","","","",""
17.0,0.027254687622189522,0.0019814060029958278,"train",18420.0,"2021-11-22 23:18:04.309988","","","","","","",""
17.0,0.05606714263558388,0.001981083798609206,"train",18440.0,"2021-11-22 23:18:07.559606","","","","","","",""
17.0,0.03633752092719078,0.0019807588531576908,"train",18460.0,"2021-11-22 23:18:10.761790","","","","","","",""
17.0,0.03788602724671364,0.0019804311675491555,"train",18480.0,"2021-11-22 23:18:14.543589","","","","","","",""
17.0,0.03367595002055168,0.00198010074269913,"train",18500.0,"2021-11-22 23:18:17.826300","","","","","","",""
17.0,0.05990896001458168,0.0019797675795307965,"train",18520.0,"2021-11-22 23:18:21.078931","","","","","","",""
17.0,0.03351656347513199,0.0019794316789749885,"train",18540.0,"2021-11-22 23:18:24.330767","","","","","","",""
17.0,0.03939208388328552,0.0019790930419701877,"train",18560.0,"2021-11-22 23:18:27.544635","","","","","","",""
17.0,0.04084639996290207,0.0019787516694625214,"train",18580.0,"2021-11-22 23:18:31.359187","","","","","","",""
17.0,0.03881854563951492,0.0019784075624057584,"train",18600.0,"2021-11-22 23:18:34.603754","","","","","","",""
17.0,0.08274192363023758,0.0019780607217613094,"train",18620.0,"2021-11-22 23:18:37.827978","","","","","","",""
17.0,0.03780537471175194,0.001977711148498221,"train",18640.0,"2021-11-22 23:18:41.038721","","","","","","",""
17.0,0.045146841555833817,0.0019773588435931756,"train",18660.0,"2021-11-22 23:18:44.286827","","","","","","",""
17.0,0.03241940587759018,0.0019770038080304873,"train",18680.0,"2021-11-22 23:18:47.571824","","","","","","",""
17.0,0.08629991114139557,0.001976646042802099,"train",18700.0,"2021-11-22 23:18:51.419279","","","","","","",""
17.0,0.05355190485715866,0.0019762855489075808,"train",18720.0,"2021-11-22 23:18:54.665632","","","","","","",""
17.0,0.05371635779738426,0.001975922327354126,"train",18740.0,"2021-11-22 23:18:57.946110","","","","","","",""
17.0,0.06966123729944229,0.001975556379156549,"train",18760.0,"2021-11-22 23:19:01.219752","","","","","","",""
17.0,0.04138512164354324,0.0019751877053372823,"train",18780.0,"2021-11-22 23:19:04.512122","","","","","","",""
17.0,0.07733529061079025,0.001974816306926373,"train",18800.0,"2021-11-22 23:19:08.379635","","","","","","",""
17.0,0.042314428836107254,0.001974442184961482,"train",18820.0,"2021-11-22 23:19:11.611461","","","","","","",""
17.0,0.05791858583688736,0.0019740653404878776,"train",18840.0,"2021-11-22 23:19:14.805218","","","","","","",""
17.0,0.033989764750003815,0.0019736857745584362,"train",18860.0,"2021-11-22 23:19:18.006238","","","","","","",""
17.0,0.055872682482004166,0.0019733034882336367,"train",18880.0,"2021-11-22 23:19:21.307547","","","","","","",""
17.0,0.0699661374092102,0.0019729184825815586,"train",18900.0,"2021-11-22 23:19:25.183028","","","","","","",""
17.0,0.0497102253139019,0.0019725307586778806,"train",18920.0,"2021-11-22 23:19:28.441225","","","","","","",""
17.0,0.07256033271551132,0.001972140317605874,"train",18940.0,"2021-11-22 23:19:31.676550","","","","","","",""
17.0,0.053841784596443176,0.0019717471604564028,"train",18960.0,"2021-11-22 23:19:34.964940","","","","","","",""
17.0,0.06022908538579941,0.0019713512883279185,"train",18980.0,"2021-11-22 23:19:38.083637","","","","","","",""
17.0,0.04506500065326691,0.00197095270232646,"train",19000.0,"2021-11-22 23:19:41.906637","","","","","","",""
17.0,0.0668356791138649,0.001970551403565646,"train",19020.0,"2021-11-22 23:19:45.157213","","","","","","",""
17.0,0.047984667122364044,0.0019701473931666765,"train",19040.0,"2021-11-22 23:19:48.463316","","","","","","",""
17.0,0.06272619962692261,0.001969740672258327,"train",19060.0,"2021-11-22 23:19:51.703118","","","","","","",""
17.0,0.05002601817250252,0.0019693312419769454,"train",19080.0,"2021-11-22 23:19:54.944630","","","","","","",""
17.0,0.04575138911604881,0.0019689191034664498,"train",19100.0,"2021-11-22 23:19:58.823889","","","","","","",""
17.0,0.041303232312202454,0.0019685042578783257,"train",19120.0,"2021-11-22 23:20:02.030333","","","","","","",""
17.0,0.04297902062535286,0.00196808670637162,"train",19140.0,"2021-11-22 23:20:05.283097","","","","","","",""
17.0,0.046923648566007614,0.001967666450112942,"train",19160.0,"2021-11-22 23:20:08.528509","","","","","","",""
17.0,0.03297765180468559,0.001967243490276456,"train",19180.0,"2021-11-22 23:20:11.763472","","","","","","",""
17.0,0.04385704547166824,0.0019668178280438818,"train",19200.0,"2021-11-22 23:20:15.017936","","","","","","",""
17.0,0.05464247614145279,0.0019663894646044875,"train",19220.0,"2021-11-22 23:20:18.956741","","","","","","",""
17.0,0.03160501644015312,0.001965958401155089,"train",19240.0,"2021-11-22 23:20:22.201048","","","","","","",""
17.0,0.10654943436384201,0.0019655246389000463,"train",19260.0,"2021-11-22 23:20:25.409541","","","","","","",""
17.0,0.03444494307041168,0.0019650881790512597,"train",19280.0,"2021-11-22 23:20:28.587506","","","","","","",""
17.0,0.04120977222919464,0.001964649022828165,"train",19300.0,"2021-11-22 23:20:31.782872","","","","","","",""
17.0,0.06739097833633423,0.0019642071714577325,"train",19320.0,"2021-11-22 23:20:35.587129","","","","","","",""
17.0,"","","train",19332.0,"2021-11-22 23:22:06.208488",0.6755439132649349,0.7994811121655034,0.985893849069162,0.7145696056838017,0.6325959324517219,0.6698857390977773,0.45339853003675196
17.0,"","","val",19332.0,"2021-11-22 23:22:29.842969",0.5930650585643048,0.6195652902598868,0.9589881187767995,0.6150768365824364,0.5183446240215175,0.5480546634381711,0.3429951166755191
18.0,0.03726682439446449,0.0019637626261744634,"train",19340.0,"2021-11-22 23:22:33.562457","","","","","","",""
18.0,0.04554717615246773,0.001963315388220384,"train",19360.0,"2021-11-22 23:22:36.916591","","","","","","",""
18.0,0.032505102455616,0.0019628654588450443,"train",19380.0,"2021-11-22 23:22:40.281258","","","","","","",""
18.0,0.08353466540575027,0.001962412839305514,"train",19400.0,"2021-11-22 23:22:43.523088","","","","","","",""
18.0,0.03085898980498314,0.0019619575308663785,"train",19420.0,"2021-11-22 23:22:46.704825","","","","","","",""
18.0,0.07728125900030136,0.001961499534799737,"train",19440.0,"2021-11-22 23:22:49.922445","","","","","","",""
18.0,0.031172744929790497,0.001961038852385196,"train",19460.0,"2021-11-22 23:22:53.836297","","","","","","",""
18.0,0.0397825613617897,0.0019605754849098683,"train",19480.0,"2021-11-22 23:22:57.140051","","","","","","",""
18.0,0.06092628836631775,0.0019601094336683693,"train",19500.0,"2021-11-22 23:23:00.427634","","","","","","",""
18.0,0.05449019372463226,0.0019596406999628116,"train",19520.0,"2021-11-22 23:23:03.676938","","","","","","",""
18.0,0.06783616542816162,0.0019591692851028022,"train",19540.0,"2021-11-22 23:23:06.908059","","","","","","",""
18.0,0.05552693083882332,0.001958695190405441,"train",19560.0,"2021-11-22 23:23:10.103629","","","","","","",""
18.0,0.036206986755132675,0.001958218417195312,"train",19580.0,"2021-11-22 23:23:13.308656","","","","","","",""
18.0,0.07610735297203064,0.001957738966804486,"train",19600.0,"2021-11-22 23:23:16.522757","","","","","","",""
18.0,0.02553190290927887,0.001957256840572511,"train",19620.0,"2021-11-22 23:23:20.358326","","","","","","",""
18.0,0.028230346739292145,0.0019567720398464133,"train",19640.0,"2021-11-22 23:23:23.541376","","","","","","",""
18.0,0.0674564316868782,0.00195628456598069,"train",19660.0,"2021-11-22 23:23:26.839060","","","","","","",""
18.0,0.027443790808320045,0.001955794420337307,"train",19680.0,"2021-11-22 23:23:30.078224","","","","","","",""
18.0,0.030292091891169548,0.0019553016042856957,"train",19700.0,"2021-11-22 23:23:33.281766","","","","","","",""
18.0,0.05486127361655235,0.001954806119202748,"train",19720.0,"2021-11-22 23:23:36.452363","","","","","","",""
18.0,0.06309660524129868,0.001954307966472812,"train",19740.0,"2021-11-22 23:23:39.837115","","","","","","",""
18.0,0.05985535681247711,0.0019538071474876914,"train",19760.0,"2021-11-22 23:23:43.188222","","","","","","",""
18.0,0.05329454690217972,0.001953303663646636,"train",19780.0,"2021-11-22 23:23:47.094124","","","","","","",""
18.0,0.03807082772254944,0.0019527975163563436,"train",19800.0,"2021-11-22 23:23:50.345370","","","","","","",""
18.0,0.05586935207247734,0.0019522887070309524,"train",19820.0,"2021-11-22 23:23:53.556205","","","","","","",""
18.0,0.05683412030339241,0.0019517772370920379,"train",19840.0,"2021-11-22 23:23:56.805969","","","","","","",""
18.0,0.030101370066404343,0.0019512631079686104,"train",19860.0,"2021-11-22 23:24:00.007520","","","","","","",""
18.0,0.046021606773138046,0.001950746321097108,"train",19880.0,"2021-11-22 23:24:03.243437","","","","","","",""
18.0,0.05844421312212944,0.0019502268779213957,"train",19900.0,"2021-11-22 23:24:06.565599","","","","","","",""
18.0,0.036174096167087555,0.0019497047798927598,"train",19920.0,"2021-11-22 23:24:10.636222","","","","","","",""
18.0,0.07356052845716476,0.001949180028469903,"train",19940.0,"2021-11-22 23:24:13.918336","","","","","","",""
18.0,0.05383675917983055,0.0019486526251189435,"train",19960.0,"2021-11-22 23:24:17.155368","","","","","","",""
18.0,0.04823770001530647,0.0019481225713134064,"train",19980.0,"2021-11-22 23:24:20.479250","","","","","","",""
18.0,0.03928656876087189,0.0019475898685342235,"train",20000.0,"2021-11-22 23:24:23.980663","","","","","","",""
18.0,0.059254053980112076,0.0019470545182697272,"train",20020.0,"2021-11-22 23:24:27.373840","","","","","","",""
18.0,0.05004308000206947,0.001946516522015647,"train",20040.0,"2021-11-22 23:24:30.775778","","","","","","",""
18.0,0.036193765699863434,0.0019459758812751047,"train",20060.0,"2021-11-22 23:24:34.107598","","","","","","",""
18.0,0.045019734650850296,0.0019454325975586106,"train",20080.0,"2021-11-22 23:24:37.971166","","","","","","",""
18.0,0.0402059480547905,0.0019448866723840602,"train",20100.0,"2021-11-22 23:24:41.172120","","","","","","",""
18.0,0.07235535234212875,0.001944338107276728,"train",20120.0,"2021-11-22 23:24:44.257131","","","","","","",""
18.0,0.03928812965750694,0.0019437869037692644,"train",20140.0,"2021-11-22 23:24:47.343642","","","","","","",""
18.0,0.03323987126350403,0.0019432330634016912,"train",20160.0,"2021-11-22 23:24:50.363987","","","","","","",""
18.0,0.06208988279104233,0.0019426765877213986,"train",20180.0,"2021-11-22 23:24:53.345900","","","","","","",""
18.0,0.05790652334690094,0.0019421174782831383,"train",20200.0,"2021-11-22 23:24:56.341200","","","","","","",""
18.0,0.044347476214170456,0.0019415557366490208,"train",20220.0,"2021-11-22 23:24:59.330411","","","","","","",""
