"epoch","loss","lr","part","step","time","accuracy","auprc","auroc","challenge_metric","f_beta_measure","f_measure","g_beta_measure"
0.0,0.11637014895677567,8.000730236035311e-05,"train",20.0,"2021-11-23 01:07:50.120608","","","","","","",""
0.0,0.10961033403873444,8.002920933031948e-05,"train",40.0,"2021-11-23 01:07:55.222302","","","","","","",""
0.0,0.09273877739906311,8.006572057662293e-05,"train",60.0,"2021-11-23 01:08:00.212141","","","","","","",""
0.0,0.09955820441246033,8.011683554380914e-05,"train",80.0,"2021-11-23 01:08:05.932093","","","","","","",""
0.0,0.09316861629486084,8.018255345425274e-05,"train",100.0,"2021-11-23 01:08:10.900719","","","","","","",""
0.0,0.07578597962856293,8.026287330817079e-05,"train",120.0,"2021-11-23 01:08:16.382090","","","","","","",""
0.0,0.0794953778386116,8.03577938836373e-05,"train",140.0,"2021-11-23 01:08:21.282840","","","","","","",""
0.0,0.0843101367354393,8.04673137366021e-05,"train",160.0,"2021-11-23 01:08:26.788632","","","","","","",""
0.0,0.0841006189584732,8.059143120091187e-05,"train",180.0,"2021-11-23 01:08:31.777963","","","","","","",""
0.0,0.0850183442234993,8.073014438833613e-05,"train",200.0,"2021-11-23 01:08:36.781491","","","","","","",""
0.0,0.07245683670043945,8.088345118859724e-05,"train",220.0,"2021-11-23 01:08:42.355064","","","","","","",""
0.0,0.08383788913488388,8.10513492693996e-05,"train",240.0,"2021-11-23 01:08:47.337181","","","","","","",""
0.0,0.06669134646654129,8.123383607646804e-05,"train",260.0,"2021-11-23 01:08:52.934754","","","","","","",""
0.0,0.08347883820533752,8.143090883358495e-05,"train",280.0,"2021-11-23 01:08:57.897634","","","","","","",""
0.0,0.07103525847196579,8.164256454263295e-05,"train",300.0,"2021-11-23 01:09:02.868889","","","","","","",""
0.0,0.07720203697681427,8.186879998364088e-05,"train",320.0,"2021-11-23 01:09:08.422048","","","","","","",""
0.0,0.08137869834899902,8.210961171483213e-05,"train",340.0,"2021-11-23 01:09:13.432612","","","","","","",""
0.0,0.10328179597854614,8.236499607267717e-05,"train",360.0,"2021-11-23 01:09:19.026883","","","","","","",""
0.0,0.10722639411687851,8.26349491719505e-05,"train",380.0,"2021-11-23 01:09:24.034450","","","","","","",""
0.0,0.06884905695915222,8.291946690578713e-05,"train",400.0,"2021-11-23 01:09:29.099348","","","","","","",""
0.0,0.06588679552078247,8.321854494574774e-05,"train",420.0,"2021-11-23 01:09:34.755218","","","","","","",""
0.0,0.09117119759321213,8.353217874188293e-05,"train",440.0,"2021-11-23 01:09:39.805527","","","","","","",""
0.0,0.06217651441693306,8.38603635228035e-05,"train",460.0,"2021-11-23 01:09:44.845293","","","","","","",""
0.0,0.07841122150421143,8.420309429575212e-05,"train",480.0,"2021-11-23 01:09:50.489470","","","","","","",""
0.0,0.09368369728326797,8.456036584667914e-05,"train",500.0,"2021-11-23 01:09:55.517736","","","","","","",""
0.0,0.08167361468076706,8.493217274032315e-05,"train",520.0,"2021-11-23 01:10:01.311344","","","","","","",""
0.0,0.05877496302127838,8.531850932029235e-05,"train",540.0,"2021-11-23 01:10:06.401903","","","","","","",""
0.0,0.08457202464342117,8.571936970915212e-05,"train",560.0,"2021-11-23 01:10:11.454069","","","","","","",""
0.0,0.09452071040868759,8.613474780851246e-05,"train",580.0,"2021-11-23 01:10:17.087711","","","","","","",""
0.0,0.061012350022792816,8.656463729912224e-05,"train",600.0,"2021-11-23 01:10:22.109901","","","","","","",""
0.0,0.06971605867147446,8.700903164096468e-05,"train",620.0,"2021-11-23 01:10:27.752501","","","","","","",""
0.0,0.08851086348295212,8.746792407335769e-05,"train",640.0,"2021-11-23 01:10:32.792639","","","","","","",""
0.0,0.09419170022010803,8.794130761505497e-05,"train",660.0,"2021-11-23 01:10:37.894873","","","","","","",""
0.0,0.07179747521877289,8.842917506435462e-05,"train",680.0,"2021-11-23 01:10:43.568018","","","","","","",""
0.0,0.06667609512805939,8.893151899920645e-05,"train",700.0,"2021-11-23 01:10:48.609707","","","","","","",""
0.0,0.09188801795244217,8.944833177732632e-05,"train",720.0,"2021-11-23 01:10:54.332574","","","","","","",""
0.0,0.058090683072805405,8.997960553631186e-05,"train",740.0,"2021-11-23 01:10:59.402953","","","","","","",""
0.0,0.0764666274189949,9.052533219376224e-05,"train",760.0,"2021-11-23 01:11:04.434265","","","","","","",""
0.0,0.0582248792052269,9.108550344740104e-05,"train",780.0,"2021-11-23 01:11:10.076202","","","","","","",""
0.0,0.06016440689563751,9.166011077520208e-05,"train",800.0,"2021-11-23 01:11:15.149564","","","","","","",""
0.0,0.0690460056066513,9.224914543552059e-05,"train",820.0,"2021-11-23 01:11:20.802672","","","","","","",""
0.0,0.09784764796495438,9.285259846722417e-05,"train",840.0,"2021-11-23 01:11:25.870755","","","","","","",""
0.0,0.05925197899341583,9.34704606898307e-05,"train",860.0,"2021-11-23 01:11:30.900987","","","","","","",""
0.0,0.0887337476015091,9.410272270364735e-05,"train",880.0,"2021-11-23 01:11:36.515308","","","","","","",""
0.0,0.06739208847284317,9.474937488991348e-05,"train",900.0,"2021-11-23 01:11:41.525038","","","","","","",""
0.0,0.06754320114850998,9.541040741094719e-05,"train",920.0,"2021-11-23 01:11:47.073594","","","","","","",""
0.0,0.10058293491601944,9.608581021029522e-05,"train",940.0,"2021-11-23 01:11:52.011160","","","","","","",""
0.0,0.07238525152206421,9.677557301288509e-05,"train",960.0,"2021-11-23 01:11:57.051545","","","","","","",""
0.0,0.07546988874673843,9.747968532518238e-05,"train",980.0,"2021-11-23 01:12:02.634957","","","","","","",""
0.0,0.09516041725873947,9.819813643535029e-05,"train",1000.0,"2021-11-23 01:12:07.634351","","","","","","",""
0.0,0.08320273458957672,9.893091541341185e-05,"train",1020.0,"2021-11-23 01:12:12.672017","","","","","","",""
0.0,0.06952878087759018,9.967801111141644e-05,"train",1040.0,"2021-11-23 01:12:18.323539","","","","","","",""
0.0,0.06317891925573349,0.00010043941216361023,"train",1060.0,"2021-11-23 01:12:23.307008","","","","","","",""
0.0,"","","train",1074.0,"2021-11-23 01:14:30.411627",0.502131994469912,0.5317124637887706,0.9402490217925558,0.5108657492158425,0.4094651749662945,0.42263394254043285,0.25919930531489555
0.0,"","","val",1074.0,"2021-11-23 01:15:02.839060",0.48683752754261855,0.48783725167571546,0.9256389874698562,0.4847897387848744,0.38847853472923577,0.39820557589850014,0.24410349537380213
1.0,0.06809661537408829,0.00010121510698660771,"train",1080.0,"2021-11-23 01:15:07.341915","","","","","","",""
1.0,0.05234399437904358,0.00010200508377956928,"train",1100.0,"2021-11-23 01:15:12.486971","","","","","","",""
1.0,0.04974940046668053,0.00010280933052437993,"train",1120.0,"2021-11-23 01:15:17.674573","","","","","","",""
1.0,0.05533425882458687,0.00010362783498583223,"train",1140.0,"2021-11-23 01:15:23.460110","","","","","","",""
1.0,0.05217631161212921,0.0001044605847118124,"train",1160.0,"2021-11-23 01:15:28.470021","","","","","","",""
1.0,0.06866586208343506,0.0001053075670334907,"train",1180.0,"2021-11-23 01:15:34.118993","","","","","","",""
1.0,0.07403380423784256,0.00010616876906551181,"train",1200.0,"2021-11-23 01:15:39.132299","","","","","","",""
1.0,0.05592220649123192,0.0001070441777061941,"train",1220.0,"2021-11-23 01:15:44.871684","","","","","","",""
1.0,0.06421484798192978,0.00010793377963772563,"train",1240.0,"2021-11-23 01:15:49.848892","","","","","","",""
1.0,0.06269428879022598,0.0001088375613263698,"train",1260.0,"2021-11-23 01:15:54.871612","","","","","","",""
1.0,0.05559020861983299,0.00010975550902266908,"train",1280.0,"2021-11-23 01:16:00.616680","","","","","","",""
1.0,0.06912709772586823,0.00011068760876165474,"train",1300.0,"2021-11-23 01:16:05.646329","","","","","","",""
1.0,0.06757128238677979,0.0001116338463630598,"train",1320.0,"2021-11-23 01:16:10.677076","","","","","","",""
1.0,0.09078772366046906,0.00011259420743153455,"train",1340.0,"2021-11-23 01:16:16.290895","","","","","","",""
1.0,0.05424971878528595,0.00011356867735686535,"train",1360.0,"2021-11-23 01:16:21.259922","","","","","","",""
1.0,0.05762739107012749,0.00011455724131419621,"train",1380.0,"2021-11-23 01:16:26.912169","","","","","","",""
1.0,0.06345981359481812,0.00011555988426425654,"train",1400.0,"2021-11-23 01:16:31.941260","","","","","","",""
1.0,0.07031957060098648,0.00011657659095358746,"train",1420.0,"2021-11-23 01:16:36.984194","","","","","","",""
1.0,0.07321625202894211,0.00011760734591477516,"train",1440.0,"2021-11-23 01:16:42.619763","","","","","","",""
1.0,0.05311831831932068,0.00011865213346668618,"train",1460.0,"2021-11-23 01:16:47.655091","","","","","","",""
1.0,0.057916175574064255,0.00011971093771470502,"train",1480.0,"2021-11-23 01:16:53.284662","","","","","","",""
1.0,0.06361906230449677,0.0001207837425509777,"train",1500.0,"2021-11-23 01:16:58.263367","","","","","","",""
1.0,0.07134013622999191,0.00012187053165465503,"train",1520.0,"2021-11-23 01:17:03.849961","","","","","","",""
1.0,0.05473035201430321,0.000122971288492142,"train",1540.0,"2021-11-23 01:17:08.811103","","","","","","",""
1.0,0.05563919246196747,0.00012408599631734863,"train",1560.0,"2021-11-23 01:17:13.800614","","","","","","",""
1.0,0.0833270326256752,0.00012521463817194542,"train",1580.0,"2021-11-23 01:17:19.486430","","","","","","",""
1.0,0.0557977631688118,0.00012635719688562077,"train",1600.0,"2021-11-23 01:17:24.526179","","","","","","",""
1.0,0.056785888969898224,0.00012751365507634267,"train",1620.0,"2021-11-23 01:17:29.557793","","","","","","",""
1.0,0.0636492520570755,0.0001286839951506226,"train",1640.0,"2021-11-23 01:17:35.252613","","","","","","",""
1.0,0.05986626073718071,0.00012986819930378333,"train",1660.0,"2021-11-23 01:17:40.310757","","","","","","",""
1.0,0.07975827902555466,0.00013106624952023064,"train",1680.0,"2021-11-23 01:17:46.025106","","","","","","",""
1.0,0.055823519825935364,0.00013227812757372545,"train",1700.0,"2021-11-23 01:17:51.101541","","","","","","",""
1.0,0.055595073848962784,0.00013350381502766394,"train",1720.0,"2021-11-23 01:17:56.027874","","","","","","",""
1.0,0.05310948193073273,0.00013474329323535494,"train",1740.0,"2021-11-23 01:18:01.563751","","","","","","",""
1.0,0.0754210576415062,0.0001359965433403059,"train",1760.0,"2021-11-23 01:18:06.529534","","","","","","",""
1.0,0.08843886107206345,0.00013726354627650872,"train",1780.0,"2021-11-23 01:18:12.169589","","","","","","",""
1.0,0.05457174405455589,0.00013854428276873052,"train",1800.0,"2021-11-23 01:18:17.147445","","","","","","",""
1.0,0.06712089478969574,0.00013983873333280506,"train",1820.0,"2021-11-23 01:18:22.793936","","","","","","",""
1.0,0.0659649595618248,0.00014114687827593156,"train",1840.0,"2021-11-23 01:18:27.703444","","","","","","",""
1.0,0.0802103653550148,0.00014246869769697352,"train",1860.0,"2021-11-23 01:18:33.199783","","","","","","",""
1.0,0.0785507783293724,0.00014380417148676054,"train",1880.0,"2021-11-23 01:18:38.122720","","","","","","",""
1.0,0.08860074728727341,0.00014515327932839404,"train",1900.0,"2021-11-23 01:18:43.055063","","","","","","",""
1.0,0.05192442238330841,0.0001465160006975598,"train",1920.0,"2021-11-23 01:18:48.588016","","","","","","",""
1.0,0.05992679297924042,0.00014789231486283454,"train",1940.0,"2021-11-23 01:18:53.498596","","","","","","",""
1.0,0.07923443615436554,0.00014928220088600633,"train",1960.0,"2021-11-23 01:18:59.152133","","","","","","",""
1.0,0.06276317685842514,0.00015068563762239045,"train",1980.0,"2021-11-23 01:19:04.213608","","","","","","",""
1.0,0.08315549790859222,0.00015210260372115238,"train",2000.0,"2021-11-23 01:19:09.168180","","","","","","",""
1.0,0.062382541596889496,0.00015353307762563115,"train",2020.0,"2021-11-23 01:19:14.799065","","","","","","",""
1.0,0.07332252711057663,0.00015497703757366872,"train",2040.0,"2021-11-23 01:19:19.729589","","","","","","",""
1.0,0.04307246953248978,0.00015643446159794,"train",2060.0,"2021-11-23 01:19:25.329139","","","","","","",""
1.0,0.053377971053123474,0.0001579053275262887,"train",2080.0,"2021-11-23 01:19:30.398953","","","","","","",""
1.0,0.0736868754029274,0.00015938961298206183,"train",2100.0,"2021-11-23 01:19:36.043264","","","","","","",""
1.0,0.05598882585763931,0.00016088729538445297,"train",2120.0,"2021-11-23 01:19:41.070321","","","","","","",""
1.0,0.04769447445869446,0.000162398351948844,"train",2140.0,"2021-11-23 01:19:46.000954","","","","","","",""
1.0,"","","train",2148.0,"2021-11-23 01:21:52.441380",0.5533435203376265,0.5977527386103245,0.9550194136215219,0.5783013905589452,0.45156700173064096,0.4643214633227654,0.2990938233566345
1.0,"","","val",2148.0,"2021-11-23 01:22:25.837681",0.5280064942595385,0.5310619420239264,0.9406003076773929,0.544617345634127,0.41922950124522484,0.4254935320788977,0.2707604106838665
2.0,0.07825741916894913,0.00016392275968715297,"train",2160.0,"2021-11-23 01:22:31.898717","","","","","","",""
2.0,0.07928433269262314,0.00016546049540818223,"train",2180.0,"2021-11-23 01:22:37.193285","","","","","","",""
2.0,0.08330929279327393,0.00016701153571797313,"train",2200.0,"2021-11-23 01:22:43.096543","","","","","","",""
2.0,0.08069038391113281,0.00016857585702016015,"train",2220.0,"2021-11-23 01:22:48.126841","","","","","","",""
2.0,0.07015671581029892,0.00017015343551633126,"train",2240.0,"2021-11-23 01:22:53.081147","","","","","","",""
2.0,0.06685041636228561,0.0001717442472063892,"train",2260.0,"2021-11-23 01:22:58.769487","","","","","","",""
2.0,0.06744794547557831,0.00017334826788891681,"train",2280.0,"2021-11-23 01:23:03.828892","","","","","","",""
2.0,0.0684165358543396,0.00017496547316154555,"train",2300.0,"2021-11-23 01:23:09.552590","","","","","","",""
2.0,0.043702222406864166,0.00017659583842132573,"train",2320.0,"2021-11-23 01:23:14.572484","","","","","","",""
2.0,0.040628645569086075,0.00017823933886510217,"train",2340.0,"2021-11-23 01:23:19.588367","","","","","","",""
2.0,0.051534947007894516,0.00017989594948989015,"train",2360.0,"2021-11-23 01:23:25.265425","","","","","","",""
2.0,0.07077663391828537,0.00018156564509325753,"train",2380.0,"2021-11-23 01:23:30.265721","","","","","","",""
2.0,0.07351483404636383,0.0001832484002737059,"train",2400.0,"2021-11-23 01:23:35.783585","","","","","","",""
2.0,0.05143014341592789,0.00018494418943105877,"train",2420.0,"2021-11-23 01:23:40.742666","","","","","","",""
2.0,0.04696929082274437,0.00018665298676685078,"train",2440.0,"2021-11-23 01:23:45.671143","","","","","","",""
2.0,0.044156383723020554,0.0001883747662847191,"train",2460.0,"2021-11-23 01:23:51.259886","","","","","","",""
2.0,0.07995063066482544,0.00019010950179080112,"train",2480.0,"2021-11-23 01:23:56.273955","","","","","","",""
2.0,0.08718463778495789,0.00019185716689412995,"train",2500.0,"2021-11-23 01:24:01.763013","","","","","","",""
2.0,0.08356422930955887,0.00019361773500703797,"train",2520.0,"2021-11-23 01:24:06.649142","","","","","","",""
2.0,0.07089874148368835,0.00019539117934556168,"train",2540.0,"2021-11-23 01:24:12.164025","","","","","","",""
2.0,0.0554761178791523,0.00019717747292984696,"train",2560.0,"2021-11-23 01:24:17.125976","","","","","","",""
2.0,0.06010996550321579,0.0001989765885845624,"train",2580.0,"2021-11-23 01:24:22.108692","","","","","","",""
2.0,0.046067580580711365,0.00020078849893931014,"train",2600.0,"2021-11-23 01:24:27.739941","","","","","","",""
2.0,0.07099565863609314,0.0002026131764290434,"train",2620.0,"2021-11-23 01:24:32.682022","","","","","","",""
2.0,0.047902632504701614,0.00020445059329448614,"train",2640.0,"2021-11-23 01:24:38.219550","","","","","","",""
2.0,0.07434895634651184,0.00020630072158255497,"train",2660.0,"2021-11-23 01:24:43.159985","","","","","","",""
2.0,0.06554184854030609,0.00020816353314678467,"train",2680.0,"2021-11-23 01:24:48.090592","","","","","","",""
2.0,0.06236923485994339,0.00021003899964775505,"train",2700.0,"2021-11-23 01:24:53.613018","","","","","","",""
2.0,0.05620275437831879,0.00021192709255352473,"train",2720.0,"2021-11-23 01:24:58.516370","","","","","","",""
2.0,0.075763039290905,0.00021382778314006255,"train",2740.0,"2021-11-23 01:25:03.446496","","","","","","",""
2.0,0.05638493597507477,0.00021574104249168615,"train",2760.0,"2021-11-23 01:25:08.969942","","","","","","",""
2.0,0.05838458985090256,0.00021766684150150133,"train",2780.0,"2021-11-23 01:25:13.881267","","","","","","",""
2.0,0.054519347846508026,0.00021960515087184485,"train",2800.0,"2021-11-23 01:25:19.462285","","","","","","",""
2.0,0.0628739595413208,0.00022155594111472978,"train",2820.0,"2021-11-23 01:25:24.466939","","","","","","",""
2.0,0.07008018344640732,0.0002235191825522959,"train",2840.0,"2021-11-23 01:25:29.504191","","","","","","",""
2.0,0.0611857995390892,0.00022549484531725838,"train",2860.0,"2021-11-23 01:25:35.106748","","","","","","",""
2.0,0.06083350256085396,0.00022748289935336434,"train",2880.0,"2021-11-23 01:25:40.090579","","","","","","",""
2.0,0.07462359964847565,0.00022948331441584964,"train",2900.0,"2021-11-23 01:25:45.648749","","","","","","",""
2.0,0.07539836317300797,0.00023149606007189785,"train",2920.0,"2021-11-23 01:25:50.594545","","","","","","",""
2.0,0.06540603935718536,0.00023352110570110476,"train",2940.0,"2021-11-23 01:25:55.534281","","","","","","",""
2.0,0.07767615467309952,0.00023555842049594305,"train",2960.0,"2021-11-23 01:26:01.204738","","","","","","",""
2.0,0.08584199100732803,0.00023760797346223305,"train",2980.0,"2021-11-23 01:26:06.196458","","","","","","",""
2.0,0.06155451759696007,0.00023966973341961028,"train",3000.0,"2021-11-23 01:26:11.810388","","","","","","",""
2.0,0.07160519063472748,0.0002417436690020044,"train",3020.0,"2021-11-23 01:26:16.740726","","","","","","",""
2.0,0.07899226993322372,0.00024382974865811325,"train",3040.0,"2021-11-23 01:26:21.632601","","","","","","",""
2.0,0.04258330166339874,0.000245927940651884,"train",3060.0,"2021-11-23 01:26:27.107881","","","","","","",""
2.0,0.06832548975944519,0.0002480382130629953,"train",3080.0,"2021-11-23 01:26:31.978965","","","","","","",""
2.0,0.09189411997795105,0.0002501605337873443,"train",3100.0,"2021-11-23 01:26:37.571301","","","","","","",""
2.0,0.04727719724178314,0.0002522948705375337,"train",3120.0,"2021-11-23 01:26:42.552522","","","","","","",""
2.0,0.06256667524576187,0.00025444119084336303,"train",3140.0,"2021-11-23 01:26:48.114308","","","","","","",""
2.0,0.0713510662317276,0.00025659946205232364,"train",3160.0,"2021-11-23 01:26:53.118273","","","","","","",""
2.0,0.07915377616882324,0.0002587696513300941,"train",3180.0,"2021-11-23 01:26:58.103068","","","","","","",""
2.0,0.06880336999893188,0.0002609517256610412,"train",3200.0,"2021-11-23 01:27:03.674177","","","","","","",""
2.0,0.07377370446920395,0.00026314565184872084,"train",3220.0,"2021-11-23 01:27:08.655006","","","","","","",""
2.0,"","","train",3222.0,"2021-11-23 01:29:15.407773",0.5580732009022775,0.631169725456802,0.9600730970137578,0.6113727270174442,0.5103699465795135,0.5260955329503227,0.33662571013285
2.0,"","","val",3222.0,"2021-11-23 01:29:49.725214",0.528992230082338,0.5525176246658184,0.9434746361825622,0.5697191470578756,0.4619514594277059,0.471811545177956,0.29641296159770625
3.0,0.03839005157351494,0.0002653513965163838,"train",3240.0,"2021-11-23 01:29:58.141217","","","","","","",""
3.0,0.03644537180662155,0.0002675689261074836,"train",3260.0,"2021-11-23 01:30:03.217762","","","","","","",""
3.0,0.045406874269247055,0.00026979820688618605,"train",3280.0,"2021-11-23 01:30:08.232910","","","","","","",""
3.0,0.056114379316568375,0.00027203920493788433,"train",3300.0,"2021-11-23 01:30:13.788737","","","","","","",""
3.0,0.05316860228776932,0.00027429188616971277,"train",3320.0,"2021-11-23 01:30:18.730245","","","","","","",""
3.0,0.06604018062353134,0.0002765562163110668,"train",3340.0,"2021-11-23 01:30:24.268468","","","","","","",""
3.0,0.046891093254089355,0.00027883216091412503,"train",3360.0,"2021-11-23 01:30:29.252634","","","","","","",""
3.0,0.08369847387075424,0.0002811196853543707,"train",3380.0,"2021-11-23 01:30:34.281653","","","","","","",""
3.0,0.06247122585773468,0.00028341875483112134,"train",3400.0,"2021-11-23 01:30:39.916548","","","","","","",""
3.0,0.06282691657543182,0.00028572933436805644,"train",3420.0,"2021-11-23 01:30:44.940499","","","","","","",""
3.0,0.07419403642416,0.0002880513888137504,"train",3440.0,"2021-11-23 01:30:50.590596","","","","","","",""
3.0,0.04309903830289841,0.0002903848828422063,"train",3460.0,"2021-11-23 01:30:55.606538","","","","","","",""
3.0,0.06897006928920746,0.00029272978095339465,"train",3480.0,"2021-11-23 01:31:00.635600","","","","","","",""
3.0,0.07639189064502716,0.00029508604747379243,"train",3500.0,"2021-11-23 01:31:06.219994","","","","","","",""
3.0,0.06744538247585297,0.00029745364655692653,"train",3520.0,"2021-11-23 01:31:11.190571","","","","","","",""
3.0,0.05021698772907257,0.0002998325421839181,"train",3540.0,"2021-11-23 01:31:16.189191","","","","","","",""
3.0,0.08313146233558655,0.0003022226981640318,"train",3560.0,"2021-11-23 01:31:21.761497","","","","","","",""
3.0,0.05008237063884735,0.00030462407813522494,"train",3580.0,"2021-11-23 01:31:26.717678","","","","","","",""
3.0,0.048411305993795395,0.0003070366455647027,"train",3600.0,"2021-11-23 01:31:32.291971","","","","","","",""
3.0,0.06477443128824234,0.000309460363749471,"train",3620.0,"2021-11-23 01:31:37.221977","","","","","","",""
3.0,0.044138893485069275,0.0003118951958168978,"train",3640.0,"2021-11-23 01:31:42.811380","","","","","","",""
3.0,0.05651591718196869,0.0003143411047252722,"train",3660.0,"2021-11-23 01:31:47.938895","","","","","","",""
3.0,0.07371320575475693,0.0003167980532643691,"train",3680.0,"2021-11-23 01:31:53.133180","","","","","","",""
3.0,0.056877363473176956,0.0003192660040560141,"train",3700.0,"2021-11-23 01:31:58.802357","","","","","","",""
3.0,0.07297194749116898,0.0003217449195546528,"train",3720.0,"2021-11-23 01:32:03.854326","","","","","","",""
3.0,0.052858784794807434,0.00032423476204792244,"train",3740.0,"2021-11-23 01:32:09.502977","","","","","","",""
3.0,0.05744094029068947,0.0003267354936572248,"train",3760.0,"2021-11-23 01:32:14.544110","","","","","","",""
3.0,0.05311734974384308,0.0003292470763383026,"train",3780.0,"2021-11-23 01:32:19.576931","","","","","","",""
3.0,0.07875921577215195,0.0003317694718818192,"train",3800.0,"2021-11-23 01:32:25.211329","","","","","","",""
3.0,0.08658287674188614,0.00033430264191393853,"train",3820.0,"2021-11-23 01:32:30.328287","","","","","","",""
3.0,0.05358584225177765,0.0003368465478969097,"train",3840.0,"2021-11-23 01:32:35.993699","","","","","","",""
3.0,0.0899588093161583,0.0003394011511296533,"train",3860.0,"2021-11-23 01:32:41.018274","","","","","","",""
3.0,0.08417737483978271,0.0003419664127483496,"train",3880.0,"2021-11-23 01:32:45.976447","","","","","","",""
3.0,0.07627628743648529,0.00034454229372703074,"train",3900.0,"2021-11-23 01:32:51.569136","","","","","","",""
3.0,0.057263460010290146,0.00034712875487817314,"train",3920.0,"2021-11-23 01:32:56.510665","","","","","","",""
3.0,0.0826614648103714,0.00034972575685329526,"train",3940.0,"2021-11-23 01:33:02.069182","","","","","","",""
3.0,0.0628676563501358,0.0003523332601435541,"train",3960.0,"2021-11-23 01:33:07.010857","","","","","","",""
3.0,0.05984937399625778,0.00035495122508034916,"train",3980.0,"2021-11-23 01:33:11.920904","","","","","","",""
3.0,0.07513401657342911,0.0003575796118359231,"train",4000.0,"2021-11-23 01:33:17.532969","","","","","","",""
3.0,0.06162281334400177,0.00036021838042396906,"train",4020.0,"2021-11-23 01:33:22.553185","","","","","","",""
3.0,0.0880807563662529,0.0003628674907002389,"train",4040.0,"2021-11-23 01:33:28.186115","","","","","","",""
3.0,0.0658997893333435,0.00036552690236315395,"train",4060.0,"2021-11-23 01:33:33.207638","","","","","","",""
3.0,0.08062738925218582,0.00036819657495441773,"train",4080.0,"2021-11-23 01:33:38.260526","","","","","","",""
3.0,0.0662502646446228,0.0003708764678596317,"train",4100.0,"2021-11-23 01:33:43.881620","","","","","","",""
3.0,0.061205483973026276,0.00037356654030891293,"train",4120.0,"2021-11-23 01:33:48.951447","","","","","","",""
3.0,0.0856299102306366,0.0003762667513775148,"train",4140.0,"2021-11-23 01:33:54.639065","","","","","","",""
3.0,0.06563063710927963,0.0003789770599864498,"train",4160.0,"2021-11-23 01:33:59.712971","","","","","","",""
3.0,0.0462234802544117,0.000381697424903113,"train",4180.0,"2021-11-23 01:34:05.440436","","","","","","",""
3.0,0.03898053988814354,0.0003844278047419108,"train",4200.0,"2021-11-23 01:34:10.531430","","","","","","",""
3.0,0.05052533745765686,0.0003871681579648903,"train",4220.0,"2021-11-23 01:34:15.602174","","","","","","",""
3.0,0.0634550228714943,0.0003899184428823709,"train",4240.0,"2021-11-23 01:34:21.253080","","","","","","",""
3.0,0.06268015503883362,0.0003926786176535783,"train",4260.0,"2021-11-23 01:34:26.302649","","","","","","",""
3.0,0.0670066699385643,0.0003954486402872818,"train",4280.0,"2021-11-23 01:34:31.863112","","","","","","",""
3.0,"","","train",4296.0,"2021-11-23 01:36:41.557695",0.5832496543694972,0.6622907922616414,0.9657299589930642,0.5871315320155699,0.5237952619416812,0.543211092546549,0.345688882757543
3.0,"","","val",4296.0,"2021-11-23 01:37:15.501006",0.5586222892264873,0.5904811640047164,0.9532154366717669,0.5536474029044135,0.49169504795203517,0.5088824397672982,0.3164476923275186
4.0,0.08243588358163834,0.0003982284686424324,"train",4300.0,"2021-11-23 01:37:19.587108","","","","","","",""
4.0,0.04848399758338928,0.0004010180604288045,"train",4320.0,"2021-11-23 01:37:24.806523","","","","","","",""
4.0,0.05415981635451317,0.00040381737320763873,"train",4340.0,"2021-11-23 01:37:30.578043","","","","","","",""
4.0,0.04073267802596092,0.0004066263643922878,"train",4360.0,"2021-11-23 01:37:35.606690","","","","","","",""
4.0,0.0890188068151474,0.0004094449912488646,"train",4380.0,"2021-11-23 01:37:41.429219","","","","","","",""
4.0,0.0588090755045414,0.0004122732108968923,"train",4400.0,"2021-11-23 01:37:46.423342","","","","","","",""
4.0,0.07640580087900162,0.0004151109803099558,"train",4420.0,"2021-11-23 01:37:51.392383","","","","","","",""
4.0,0.04817381873726845,0.00041795825631635764,"train",4440.0,"2021-11-23 01:37:56.902160","","","","","","",""
4.0,0.060961805284023285,0.0004208149955997739,"train",4460.0,"2021-11-23 01:38:01.837657","","","","","","",""
4.0,0.08794432878494263,0.0004236811546999141,"train",4480.0,"2021-11-23 01:38:06.949667","","","","","","",""
4.0,0.051316529512405396,0.0004265566900131805,"train",4500.0,"2021-11-23 01:38:12.549417","","","","","","",""
4.0,0.0853419303894043,0.0004294415577933337,"train",4520.0,"2021-11-23 01:38:17.566565","","","","","","",""
4.0,0.047668978571891785,0.00043233571415215717,"train",4540.0,"2021-11-23 01:38:23.206092","","","","","","",""
4.0,0.044302865862846375,0.0004352391150601242,"train",4560.0,"2021-11-23 01:38:28.236070","","","","","","",""
4.0,0.08454886823892593,0.0004381517163470684,"train",4580.0,"2021-11-23 01:38:33.800028","","","","","","",""
4.0,0.05910985916852951,0.00044107347370285683,"train",4600.0,"2021-11-23 01:38:38.696623","","","","","","",""
4.0,0.04563849791884422,0.00044400434267806194,"train",4620.0,"2021-11-23 01:38:43.794863","","","","","","",""
4.0,0.052274592220783234,0.00044694427868463907,"train",4640.0,"2021-11-23 01:38:49.541819","","","","","","",""
4.0,0.06001748889684677,0.00044989323699660467,"train",4660.0,"2021-11-23 01:38:54.546256","","","","","","",""
4.0,0.06295669823884964,0.0004528511727507165,"train",4680.0,"2021-11-23 01:39:00.145200","","","","","","",""
4.0,0.06162457540631294,0.00045581804094715645,"train",4700.0,"2021-11-23 01:39:05.104787","","","","","","",""
4.0,0.04639337956905365,0.00045879379645021425,"train",4720.0,"2021-11-23 01:39:10.066174","","","","","","",""
4.0,0.05908699333667755,0.0004617783939889759,"train",4740.0,"2021-11-23 01:39:15.685279","","","","","","",""
4.0,0.07084519416093826,0.0004647717881580103,"train",4760.0,"2021-11-23 01:39:20.745417","","","","","","",""
4.0,0.0471942164003849,0.0004677739334180617,"train",4780.0,"2021-11-23 01:39:25.822448","","","","","","",""
4.0,0.07509618252515793,0.00047078478409674144,"train",4800.0,"2021-11-23 01:39:31.491644","","","","","","",""
4.0,0.05881072208285332,0.00047380429438922305,"train",4820.0,"2021-11-23 01:39:36.456013","","","","","","",""
4.0,0.05552597716450691,0.00047683241835893946,"train",4840.0,"2021-11-23 01:39:42.026961","","","","","","",""
4.0,0.04422982409596443,0.0004798691099382815,"train",4860.0,"2021-11-23 01:39:46.965027","","","","","","",""
4.0,0.055981773883104324,0.0004829143229292986,"train",4880.0,"2021-11-23 01:39:51.881702","","","","","","",""
4.0,0.08701185137033463,0.0004859680110044023,"train",4900.0,"2021-11-23 01:39:57.501462","","","","","","",""
4.0,0.044619426131248474,0.0004890301277070699,"train",4920.0,"2021-11-23 01:40:02.510726","","","","","","",""
4.0,0.04966992884874344,0.0004921006264525525,"train",4940.0,"2021-11-23 01:40:08.133966","","","","","","",""
4.0,0.05141346529126167,0.0004951794605285824,"train",4960.0,"2021-11-23 01:40:13.167237","","","","","","",""
4.0,0.06790672987699509,0.0004982665830960853,"train",4980.0,"2021-11-23 01:40:18.188682","","","","","","",""
4.0,0.062173422425985336,0.0005013619471898913,"train",5000.0,"2021-11-23 01:40:23.810650","","","","","","",""
4.0,0.06101929396390915,0.0005044655057194504,"train",5020.0,"2021-11-23 01:40:28.801778","","","","","","",""
4.0,0.04324473813176155,0.0005075772114695486,"train",5040.0,"2021-11-23 01:40:34.356691","","","","","","",""
4.0,0.056689877063035965,0.0005106970171010257,"train",5060.0,"2021-11-23 01:40:39.292044","","","","","","",""
4.0,0.05788654834032059,0.0005138248751514966,"train",5080.0,"2021-11-23 01:40:44.888289","","","","","","",""
4.0,0.08203121274709702,0.0005169607380360731,"train",5100.0,"2021-11-23 01:40:49.887287","","","","","","",""
4.0,0.0507386215031147,0.000520104558048086,"train",5120.0,"2021-11-23 01:40:54.858292","","","","","","",""
4.0,0.040735796093940735,0.0005232562873598136,"train",5140.0,"2021-11-23 01:41:00.458623","","","","","","",""
4.0,0.04041347652673721,0.0005264158780232072,"train",5160.0,"2021-11-23 01:41:05.530605","","","","","","",""
4.0,0.04822660610079765,0.0005295832819706228,"train",5180.0,"2021-11-23 01:41:11.202752","","","","","","",""
4.0,0.08140808343887329,0.0005327584510155488,"train",5200.0,"2021-11-23 01:41:16.221498","","","","","","",""
4.0,0.055767301470041275,0.000535941336853343,"train",5220.0,"2021-11-23 01:41:21.842655","","","","","","",""
4.0,0.06913097947835922,0.0005391318910619655,"train",5240.0,"2021-11-23 01:41:26.861660","","","","","","",""
4.0,0.04544500261545181,0.0005423300651027144,"train",5260.0,"2021-11-23 01:41:31.850588","","","","","","",""
4.0,0.1012101024389267,0.0005455358103209663,"train",5280.0,"2021-11-23 01:41:37.491536","","","","","","",""
4.0,0.0851234719157219,0.0005487490779469157,"train",5300.0,"2021-11-23 01:41:42.502168","","","","","","",""
4.0,0.0730113759636879,0.000551969819096316,"train",5320.0,"2021-11-23 01:41:47.474262","","","","","","",""
4.0,0.06352028995752335,0.0005551979847712252,"train",5340.0,"2021-11-23 01:41:53.104760","","","","","","",""
4.0,0.07307475805282593,0.0005584335258607489,"train",5360.0,"2021-11-23 01:41:58.110727","","","","","","",""
4.0,"","","train",5370.0,"2021-11-23 01:44:04.182121",0.6177253874699847,0.6866438299059549,0.9700873621725058,0.6373034015795777,0.5495472601033208,0.5718240512418811,0.37656925303246624
4.0,"","","val",5370.0,"2021-11-23 01:44:36.500104",0.5859329699640496,0.6071269556282748,0.9559939811513186,0.5991478607208258,0.5047302627876641,0.5214835036011293,0.33202840527629923
5.0,0.0420244000852108,0.0005616763931417894,"train",5380.0,"2021-11-23 01:44:42.834607","","","","","","",""
5.0,0.04323696717619896,0.0005649265372797939,"train",5400.0,"2021-11-23 01:44:47.923754","","","","","","",""
5.0,0.08054664731025696,0.0005681839088295046,"train",5420.0,"2021-11-23 01:44:52.932871","","","","","","",""
5.0,0.057677801698446274,0.0005714484582357109,"train",5440.0,"2021-11-23 01:44:58.738040","","","","","","",""
5.0,0.042638927698135376,0.0005747201358340048,"train",5460.0,"2021-11-23 01:45:03.787300","","","","","","",""
5.0,0.03883882984519005,0.0005779988918515344,"train",5480.0,"2021-11-23 01:45:09.534835","","","","","","",""
5.0,0.05386298522353172,0.0005812846764077623,"train",5500.0,"2021-11-23 01:45:14.572807","","","","","","",""
5.0,0.06428578495979309,0.0005845774395152243,"train",5520.0,"2021-11-23 01:45:19.595690","","","","","","",""
5.0,0.040710464119911194,0.0005878771310802895,"train",5540.0,"2021-11-23 01:45:25.206074","","","","","","",""
5.0,0.07617568224668503,0.0005911837009039229,"train",5560.0,"2021-11-23 01:45:30.247843","","","","","","",""
5.0,0.07917219400405884,0.0005944970986824485,"train",5580.0,"2021-11-23 01:45:35.838878","","","","","","",""
5.0,0.07342667877674103,0.000597817274008315,"train",5600.0,"2021-11-23 01:45:40.851921","","","","","","",""
5.0,0.0685621052980423,0.0006011441763708635,"train",5620.0,"2021-11-23 01:45:46.447017","","","","","","",""
5.0,0.07997775077819824,0.0006044777551570929,"train",5640.0,"2021-11-23 01:45:51.471170","","","","","","",""
5.0,0.047326456755399704,0.000607817959652434,"train",5660.0,"2021-11-23 01:45:56.477727","","","","","","",""
5.0,0.054646559059619904,0.0006111647390415189,"train",5680.0,"2021-11-23 01:46:02.074397","","","","","","",""
5.0,0.04224779084324837,0.0006145180424089525,"train",5700.0,"2021-11-23 01:46:07.052640","","","","","","",""
5.0,0.05478305742144585,0.0006178778187400902,"train",5720.0,"2021-11-23 01:46:12.693677","","","","","","",""
5.0,0.04745873436331749,0.0006212440169218129,"train",5740.0,"2021-11-23 01:46:17.732757","","","","","","",""
5.0,0.04965747147798538,0.0006246165857433027,"train",5760.0,"2021-11-23 01:46:22.805028","","","","","","",""
5.0,0.07205886393785477,0.0006279954738968251,"train",5780.0,"2021-11-23 01:46:28.479446","","","","","","",""
5.0,0.06360013782978058,0.0006313806299785075,"train",5800.0,"2021-11-23 01:46:33.729947","","","","","","",""
5.0,0.06296204030513763,0.0006347720024891209,"train",5820.0,"2021-11-23 01:46:39.341436","","","","","","",""
5.0,0.037349771708250046,0.0006381695398348657,"train",5840.0,"2021-11-23 01:46:44.331923","","","","","","",""
5.0,0.04686342179775238,0.0006415731903281542,"train",5860.0,"2021-11-23 01:46:49.460642","","","","","","",""
5.0,0.0636211484670639,0.0006449829021883979,"train",5880.0,"2021-11-23 01:46:55.095375","","","","","","",""
5.0,0.04879690334200859,0.0006483986235427956,"train",5900.0,"2021-11-23 01:47:00.097307","","","","","","",""
5.0,0.051913876086473465,0.0006518203024271213,"train",5920.0,"2021-11-23 01:47:05.786155","","","","","","",""
5.0,0.059214998036623,0.0006552478867865169,"train",5940.0,"2021-11-23 01:47:10.799428","","","","","","",""
5.0,0.046551477164030075,0.0006586813244762815,"train",5960.0,"2021-11-23 01:47:16.467031","","","","","","",""
5.0,0.028657423332333565,0.0006621205632626672,"train",5980.0,"2021-11-23 01:47:21.424925","","","","","","",""
5.0,0.061228033155202866,0.0006655655508236717,"train",6000.0,"2021-11-23 01:47:26.445415","","","","","","",""
5.0,0.037332531064748764,0.0006690162347498356,"train",6020.0,"2021-11-23 01:47:32.027039","","","","","","",""
5.0,0.08994799852371216,0.0006724725625450389,"train",6040.0,"2021-11-23 01:47:36.985382","","","","","","",""
5.0,0.047333188354969025,0.0006759344816273003,"train",6060.0,"2021-11-23 01:47:42.622277","","","","","","",""
5.0,0.06762325018644333,0.0006794019393295771,"train",6080.0,"2021-11-23 01:47:47.670367","","","","","","",""
5.0,0.032828859984874725,0.0006828748829005654,"train",6100.0,"2021-11-23 01:47:52.664188","","","","","","",""
5.0,0.07552732527256012,0.0006863532595055041,"train",6120.0,"2021-11-23 01:47:58.317571","","","","","","",""
5.0,0.050721343606710434,0.0006898370162269777,"train",6140.0,"2021-11-23 01:48:03.323072","","","","","","",""
5.0,0.07786496728658676,0.0006933261000657217,"train",6160.0,"2021-11-23 01:48:08.230629","","","","","","",""
5.0,0.04474644735455513,0.000696820457941429,"train",6180.0,"2021-11-23 01:48:13.749030","","","","","","",""
5.0,0.0398094542324543,0.000700320036693557,"train",6200.0,"2021-11-23 01:48:18.666502","","","","","","",""
5.0,0.03881736099720001,0.0007038247830821358,"train",6220.0,"2021-11-23 01:48:24.212683","","","","","","",""
5.0,0.05448341742157936,0.0007073346437885815,"train",6240.0,"2021-11-23 01:48:29.163294","","","","","","",""
5.0,0.045522965490818024,0.000710849565416502,"train",6260.0,"2021-11-23 01:48:34.120322","","","","","","",""
5.0,0.05591300502419472,0.0007143694944925134,"train",6280.0,"2021-11-23 01:48:39.745825","","","","","","",""
5.0,0.043074022978544235,0.0007178943774670524,"train",6300.0,"2021-11-23 01:48:44.743338","","","","","","",""
5.0,0.04654334858059883,0.0007214241607151901,"train",6320.0,"2021-11-23 01:48:50.367944","","","","","","",""
5.0,0.0642644390463829,0.000724958790537449,"train",6340.0,"2021-11-23 01:48:55.375873","","","","","","",""
5.0,0.04542719945311546,0.0007284982131606195,"train",6360.0,"2021-11-23 01:49:00.377502","","","","","","",""
5.0,0.06674196571111679,0.0007320423747385781,"train",6380.0,"2021-11-23 01:49:05.959772","","","","","","",""
5.0,0.08719281107187271,0.0007355912213531054,"train",6400.0,"2021-11-23 01:49:10.926033","","","","","","",""
5.0,0.0565701387822628,0.000739144699014708,"train",6420.0,"2021-11-23 01:49:16.467155","","","","","","",""
5.0,0.08017698675394058,0.0007427027536634401,"train",6440.0,"2021-11-23 01:49:21.410357","","","","","","",""
5.0,"","","train",6444.0,"2021-11-23 01:51:28.872536",0.5985301608091392,0.6925826853990612,0.9709606626830785,0.6377507469296011,0.5375014566040968,0.5543789435991728,0.3616736067298808
5.0,"","","val",6444.0,"2021-11-23 01:52:02.616385",0.5655804244462485,0.6105058266145136,0.9575526215443468,0.5963269951446617,0.48748104534159825,0.4995940966348179,0.3170047714649237
6.0,0.04681117832660675,0.0007462653311697235,"train",6460.0,"2021-11-23 01:52:09.796203","","","","","","",""
6.0,0.0497150793671608,0.0007498323773351733,"train",6480.0,"2021-11-23 01:52:15.615537","","","","","","",""
6.0,0.04523715749382973,0.0007534038378934223,"train",6500.0,"2021-11-23 01:52:20.696819","","","","","","",""
6.0,0.04943070188164711,0.0007569796585109453,"train",6520.0,"2021-11-23 01:52:26.408933","","","","","","",""
6.0,0.03184572979807854,0.0007605597847878862,"train",6540.0,"2021-11-23 01:52:31.439246","","","","","","",""
6.0,0.07740969210863113,0.0007641441622588871,"train",6560.0,"2021-11-23 01:52:36.425323","","","","","","",""
6.0,0.04576360806822777,0.0007677327363939143,"train",6580.0,"2021-11-23 01:52:42.025115","","","","","","",""
6.0,0.06090567260980606,0.0007713254525990895,"train",6600.0,"2021-11-23 01:52:47.045470","","","","","","",""
6.0,0.083767831325531,0.0007749222562175211,"train",6620.0,"2021-11-23 01:52:52.654821","","","","","","",""
6.0,0.08351313322782516,0.000778523092530133,"train",6640.0,"2021-11-23 01:52:57.680308","","","","","","",""
6.0,0.05304136872291565,0.0007821279067564996,"train",6660.0,"2021-11-23 01:53:02.763326","","","","","","",""
6.0,0.04405524954199791,0.0007857366440556786,"train",6680.0,"2021-11-23 01:53:08.397590","","","","","","",""
6.0,0.05259568989276886,0.0007893492495270442,"train",6700.0,"2021-11-23 01:53:13.342900","","","","","","",""
6.0,0.08063703775405884,0.0007929656682111239,"train",6720.0,"2021-11-23 01:53:18.936522","","","","","","",""
6.0,0.05943099409341812,0.0007965858450904332,"train",6740.0,"2021-11-23 01:53:23.975345","","","","","","",""
6.0,0.05953953042626381,0.000800209725090314,"train",6760.0,"2021-11-23 01:53:28.995651","","","","","","",""
6.0,0.0475161075592041,0.0008038372530797706,"train",6780.0,"2021-11-23 01:53:34.624103","","","","","","",""
6.0,0.062023065984249115,0.0008074683738723109,"train",6800.0,"2021-11-23 01:53:39.643891","","","","","","",""
6.0,0.03465299680829048,0.0008111030322267832,"train",6820.0,"2021-11-23 01:53:45.153250","","","","","","",""
6.0,0.04046683385968208,0.0008147411728482187,"train",6840.0,"2021-11-23 01:53:50.085783","","","","","","",""
6.0,0.04851800948381424,0.0008183827403886721,"train",6860.0,"2021-11-23 01:53:55.661031","","","","","","",""
6.0,0.04293104633688927,0.0008220276794480633,"train",6880.0,"2021-11-23 01:54:00.644249","","","","","","",""
6.0,0.06580673158168793,0.0008256759345750203,"train",6900.0,"2021-11-23 01:54:05.656329","","","","","","",""
6.0,0.05471057444810867,0.0008293274502677234,"train",6920.0,"2021-11-23 01:54:11.225938","","","","","","",""
6.0,0.06740318983793259,0.0008329821709747486,"train",6940.0,"2021-11-23 01:54:16.170163","","","","","","",""
6.0,0.050900351256132126,0.0008366400410959136,"train",6960.0,"2021-11-23 01:54:21.726817","","","","","","",""
6.0,0.05124019831418991,0.000840301004983123,"train",6980.0,"2021-11-23 01:54:26.655887","","","","","","",""
6.0,0.03853699937462807,0.0008439650069412147,"train",7000.0,"2021-11-23 01:54:31.643320","","","","","","",""
6.0,0.07134724408388138,0.0008476319912288095,"train",7020.0,"2021-11-23 01:54:37.337618","","","","","","",""
6.0,0.059990767389535904,0.0008513019020591544,"train",7040.0,"2021-11-23 01:54:42.448116","","","","","","",""
6.0,0.03932608664035797,0.0008549746836009771,"train",7060.0,"2021-11-23 01:54:48.141096","","","","","","",""
6.0,0.07321906834840775,0.0008586502799793306,"train",7080.0,"2021-11-23 01:54:53.122234","","","","","","",""
6.0,0.040353573858737946,0.0008623286352764453,"train",7100.0,"2021-11-23 01:54:58.113735","","","","","","",""
6.0,0.04960903152823448,0.0008660096935325802,"train",7120.0,"2021-11-23 01:55:03.714527","","","","","","",""
6.0,0.08195947110652924,0.0008696933987468731,"train",7140.0,"2021-11-23 01:55:08.724090","","","","","","",""
6.0,0.07149326056241989,0.0008733796948781924,"train",7160.0,"2021-11-23 01:55:14.354646","","","","","","",""
6.0,0.041498780250549316,0.0008770685258459915,"train",7180.0,"2021-11-23 01:55:19.396442","","","","","","",""
6.0,0.06704632937908173,0.0008807598355311595,"train",7200.0,"2021-11-23 01:55:25.027800","","","","","","",""
6.0,0.040930382907390594,0.0008844535677768764,"train",7220.0,"2021-11-23 01:55:30.025308","","","","","","",""
6.0,0.04078443720936775,0.0008881496663894681,"train",7240.0,"2021-11-23 01:55:35.118719","","","","","","",""
6.0,0.04589565470814705,0.0008918480751392592,"train",7260.0,"2021-11-23 01:55:40.757171","","","","","","",""
6.0,0.0600910522043705,0.00089554873776143,"train",7280.0,"2021-11-23 01:55:45.791947","","","","","","",""
6.0,0.05562485381960869,0.0008992515979568724,"train",7300.0,"2021-11-23 01:55:51.509678","","","","","","",""
6.0,0.08762363344430923,0.0009029565993930457,"train",7320.0,"2021-11-23 01:55:56.519543","","","","","","",""
6.0,0.04460715502500534,0.0009066636857048339,"train",7340.0,"2021-11-23 01:56:01.549022","","","","","","",""
6.0,0.03778989985585213,0.0009103728004954039,"train",7360.0,"2021-11-23 01:56:07.183424","","","","","","",""
6.0,0.07896196097135544,0.0009140838873370617,"train",7380.0,"2021-11-23 01:56:12.232630","","","","","","",""
6.0,0.05408894270658493,0.0009177968897721136,"train",7400.0,"2021-11-23 01:56:17.852587","","","","","","",""
6.0,0.06043754518032074,0.0009215117513137218,"train",7420.0,"2021-11-23 01:56:22.964451","","","","","","",""
6.0,0.06764598190784454,0.0009252284154467663,"train",7440.0,"2021-11-23 01:56:27.913837","","","","","","",""
6.0,0.05227147787809372,0.0009289468256287042,"train",7460.0,"2021-11-23 01:56:33.591332","","","","","","",""
6.0,0.04941212013363838,0.0009326669252904287,"train",7480.0,"2021-11-23 01:56:38.583426","","","","","","",""
6.0,0.03617812693119049,0.0009363886578371307,"train",7500.0,"2021-11-23 01:56:44.166474","","","","","","",""
6.0,"","","train",7518.0,"2021-11-23 01:58:54.136935",0.6203885614494652,0.7085925913993697,0.972594899870349,0.6358484711680145,0.5378868135885144,0.56611309776526,0.37243955456602146
6.0,"","","val",7518.0,"2021-11-23 01:59:26.815723",0.5858170010437203,0.6158301283000435,0.9571555306210104,0.5877238729273438,0.474627013219103,0.5020337049499595,0.31310326831622454
7.0,0.05304979532957077,0.0009401119666491604,"train",7520.0,"2021-11-23 01:59:30.265470","","","","","","",""
7.0,0.05439978465437889,0.0009438367950828869,"train",7540.0,"2021-11-23 01:59:35.496138","","","","","","",""
7.0,0.039956994354724884,0.000947563086471561,"train",7560.0,"2021-11-23 01:59:41.252459","","","","","","",""
7.0,0.055152878165245056,0.0009512907841261783,"train",7580.0,"2021-11-23 01:59:46.239435","","","","","","",""
7.0,0.04681163653731346,0.0009550198313363391,"train",7600.0,"2021-11-23 01:59:51.844969","","","","","","",""
7.0,0.036027271300554276,0.0009587501713711128,"train",7620.0,"2021-11-23 01:59:56.835560","","","","","","",""
7.0,0.035350508987903595,0.0009624817474799023,"train",7640.0,"2021-11-23 02:00:01.814739","","","","","","",""
7.0,0.05057741329073906,0.0009662145028933038,"train",7660.0,"2021-11-23 02:00:07.396743","","","","","","",""
7.0,0.05723869055509567,0.0009699483808239733,"train",7680.0,"2021-11-23 02:00:12.467355","","","","","","",""
7.0,0.0666000097990036,0.0009736833244674895,"train",7700.0,"2021-11-23 02:00:18.238280","","","","","","",""
7.0,0.059572137892246246,0.0009774192770032192,"train",7720.0,"2021-11-23 02:00:23.410119","","","","","","",""
7.0,0.06054648011922836,0.0009811561815951785,"train",7740.0,"2021-11-23 02:00:28.983440","","","","","","",""
7.0,0.06481500715017319,0.0009848939813929015,"train",7760.0,"2021-11-23 02:00:33.963546","","","","","","",""
7.0,0.054639965295791626,0.0009886326195323026,"train",7780.0,"2021-11-23 02:00:38.954664","","","","","","",""
7.0,0.0799512267112732,0.0009923720391365428,"train",7800.0,"2021-11-23 02:00:44.557567","","","","","","",""
7.0,0.03357333317399025,0.000996112183316893,"train",7820.0,"2021-11-23 02:00:49.501703","","","","","","",""
7.0,0.046859707683324814,0.0009998529951736029,"train",7840.0,"2021-11-23 02:00:54.504005","","","","","","",""
7.0,0.061788298189640045,0.0010035944177967638,"train",7860.0,"2021-11-23 02:01:00.124809","","","","","","",""
7.0,0.06662365049123764,0.0010073363942671744,"train",7880.0,"2021-11-23 02:01:05.077067","","","","","","",""
7.0,0.07208845764398575,0.0010110788676572094,"train",7900.0,"2021-11-23 02:01:10.024347","","","","","","",""
7.0,0.04118712246417999,0.0010148217810316822,"train",7920.0,"2021-11-23 02:01:15.646280","","","","","","",""
7.0,0.07075502723455429,0.0010185650774487127,"train",7940.0,"2021-11-23 02:01:20.631359","","","","","","",""
7.0,0.051131561398506165,0.0010223086999605951,"train",7960.0,"2021-11-23 02:01:26.189158","","","","","","",""
7.0,0.046283721923828125,0.0010260525916146609,"train",7980.0,"2021-11-23 02:01:31.139709","","","","","","",""
7.0,0.047553230077028275,0.0010297966954541469,"train",8000.0,"2021-11-23 02:01:36.755094","","","","","","",""
7.0,0.033823538571596146,0.001033540954519064,"train",8020.0,"2021-11-23 02:01:41.756461","","","","","","",""
7.0,0.0468236468732357,0.0010372853118470592,"train",8040.0,"2021-11-23 02:01:46.733000","","","","","","",""
7.0,0.06726976484060287,0.0010410297104742857,"train",8060.0,"2021-11-23 02:01:52.253739","","","","","","",""
7.0,0.0637357085943222,0.0010447740934362692,"train",8080.0,"2021-11-23 02:01:57.157916","","","","","","",""
7.0,0.05078743398189545,0.0010485184037687715,"train",8100.0,"2021-11-23 02:02:02.670852","","","","","","",""
7.0,0.031995631754398346,0.0010522625845086615,"train",8120.0,"2021-11-23 02:02:07.598507","","","","","","",""
7.0,0.07460886240005493,0.0010560065786947796,"train",8140.0,"2021-11-23 02:02:12.540414","","","","","","",""
7.0,0.070386603474617,0.0010597503293688013,"train",8160.0,"2021-11-23 02:02:18.077456","","","","","","",""
7.0,0.059722766280174255,0.001063493779576111,"train",8180.0,"2021-11-23 02:02:22.969639","","","","","","",""
7.0,0.07681097835302353,0.0010672368723666614,"train",8200.0,"2021-11-23 02:02:28.479880","","","","","","",""
7.0,0.056390780955553055,0.0010709795507958426,"train",8220.0,"2021-11-23 02:02:33.460144","","","","","","",""
7.0,0.06496191024780273,0.0010747217579253504,"train",8240.0,"2021-11-23 02:02:38.469819","","","","","","",""
7.0,0.038834113627672195,0.0010784634368240487,"train",8260.0,"2021-11-23 02:02:44.082315","","","","","","",""
7.0,0.05413862690329552,0.0010822045305688382,"train",8280.0,"2021-11-23 02:02:49.022889","","","","","","",""
7.0,0.04713057354092598,0.0010859449822455227,"train",8300.0,"2021-11-23 02:02:54.602487","","","","","","",""
7.0,0.0693788155913353,0.001089684734949672,"train",8320.0,"2021-11-23 02:02:59.608928","","","","","","",""
7.0,0.03788764029741287,0.00109342373178749,"train",8340.0,"2021-11-23 02:03:04.587064","","","","","","",""
7.0,0.03280922770500183,0.0010971619158766821,"train",8360.0,"2021-11-23 02:03:10.196499","","","","","","",""
7.0,0.06628546118736267,0.0011008992303473152,"train",8380.0,"2021-11-23 02:03:15.142087","","","","","","",""
7.0,0.05090946704149246,0.001104635618342687,"train",8400.0,"2021-11-23 02:03:20.698276","","","","","","",""
7.0,0.06610526889562607,0.001108371023020191,"train",8420.0,"2021-11-23 02:03:25.691774","","","","","","",""
7.0,0.04825514182448387,0.0011121053875521787,"train",8440.0,"2021-11-23 02:03:30.687763","","","","","","",""
7.0,0.039385467767715454,0.0011158386551268257,"train",8460.0,"2021-11-23 02:03:36.215653","","","","","","",""
7.0,0.03880554437637329,0.0011195707689489972,"train",8480.0,"2021-11-23 02:03:41.088263","","","","","","",""
7.0,0.06387050449848175,0.0011233016722411097,"train",8500.0,"2021-11-23 02:03:46.518408","","","","","","",""
7.0,0.042973943054676056,0.0011270313082439951,"train",8520.0,"2021-11-23 02:03:51.399290","","","","","","",""
7.0,0.035952433943748474,0.001130759620217767,"train",8540.0,"2021-11-23 02:03:56.293122","","","","","","",""
7.0,0.07713963836431503,0.0011344865514426794,"train",8560.0,"2021-11-23 02:04:01.866856","","","","","","",""
7.0,0.04911753535270691,0.0011382120452199938,"train",8580.0,"2021-11-23 02:04:06.866312","","","","","","",""
7.0,"","","train",8592.0,"2021-11-23 02:06:12.261245",0.5830459142836353,0.7219436029578605,0.9749957821868969,0.6790723489730057,0.6012298222959248,0.6149802803111133,0.41176442543144864
7.0,"","","val",8592.0,"2021-11-23 02:06:45.429716",0.5468514438130581,0.6269240136050508,0.9596222738519494,0.6311750182010915,0.5425311749286391,0.5548798200080453,0.35198784370198827
8.0,0.03893246874213219,0.001141936044872839,"train",8600.0,"2021-11-23 02:06:50.476643","","","","","","",""
8.0,0.05281330645084381,0.0011456584937470744,"train",8620.0,"2021-11-23 02:06:55.631913","","","","","","",""
8.0,0.0339423343539238,0.0011493793352121522,"train",8640.0,"2021-11-23 02:07:01.507335","","","","","","",""
8.0,0.042251523584127426,0.0011530985126619784,"train",8660.0,"2021-11-23 02:07:06.487102","","","","","","",""
8.0,0.046463046222925186,0.001156815969515773,"train",8680.0,"2021-11-23 02:07:11.430307","","","","","","",""
8.0,0.0639277845621109,0.001160531649218934,"train",8700.0,"2021-11-23 02:07:17.082445","","","","","","",""
8.0,0.03164416179060936,0.001164245495243894,"train",8720.0,"2021-11-23 02:07:22.200899","","","","","","",""
8.0,0.04228142648935318,0.0011679574510909817,"train",8740.0,"2021-11-23 02:07:27.179425","","","","","","",""
8.0,0.07202262431383133,0.0011716674602892828,"train",8760.0,"2021-11-23 02:07:32.791049","","","","","","",""
8.0,0.04746308922767639,0.0011753754663974968,"train",8780.0,"2021-11-23 02:07:37.736015","","","","","","",""
8.0,0.034917403012514114,0.0011790814130047968,"train",8800.0,"2021-11-23 02:07:43.204051","","","","","","",""
8.0,0.06521587073802948,0.001182785243731688,"train",8820.0,"2021-11-23 02:07:48.045670","","","","","","",""
8.0,0.03664427623152733,0.0011864869022308656,"train",8840.0,"2021-11-23 02:07:52.872076","","","","","","",""
8.0,0.03190428763628006,0.0011901863321880693,"train",8860.0,"2021-11-23 02:07:58.357012","","","","","","",""
8.0,0.06759585440158844,0.001193883477322945,"train",8880.0,"2021-11-23 02:08:03.252799","","","","","","",""
8.0,0.06931506842374802,0.0011975782813898961,"train",8900.0,"2021-11-23 02:08:08.818492","","","","","","",""
8.0,0.05501166731119156,0.0012012706881789417,"train",8920.0,"2021-11-23 02:08:13.788973","","","","","","",""
8.0,0.07248639315366745,0.001204960641516572,"train",8940.0,"2021-11-23 02:08:18.758520","","","","","","",""
8.0,0.045851096510887146,0.0012086480852666014,"train",8960.0,"2021-11-23 02:08:24.303894","","","","","","",""
8.0,0.03572922199964523,0.0012123329633310235,"train",8980.0,"2021-11-23 02:08:29.221789","","","","","","",""
8.0,0.07836772501468658,0.0012160152196508643,"train",9000.0,"2021-11-23 02:08:34.115287","","","","","","",""
8.0,0.06410648673772812,0.0012196947982070355,"train",9020.0,"2021-11-23 02:08:39.663994","","","","","","",""
8.0,0.08128781616687775,0.0012233716430211856,"train",9040.0,"2021-11-23 02:08:44.685165","","","","","","",""
8.0,0.05758940801024437,0.001227045698156553,"train",9060.0,"2021-11-23 02:08:50.328981","","","","","","",""
8.0,0.0579209066927433,0.0012307169077188148,"train",9080.0,"2021-11-23 02:08:55.222449","","","","","","",""
8.0,0.045534897595644,0.0012343852158569401,"train",9100.0,"2021-11-23 02:09:00.150178","","","","","","",""
8.0,0.049039244651794434,0.0012380505667640377,"train",9120.0,"2021-11-23 02:09:05.629413","","","","","","",""
8.0,0.07808331400156021,0.0012417129046782046,"train",9140.0,"2021-11-23 02:09:10.571015","","","","","","",""
8.0,0.041633110493421555,0.0012453721738833758,"train",9160.0,"2021-11-23 02:09:16.199095","","","","","","",""
8.0,0.05481480062007904,0.001249028318710172,"train",9180.0,"2021-11-23 02:09:21.271785","","","","","","",""
8.0,0.05689622834324837,0.0012526812835367447,"train",9200.0,"2021-11-23 02:09:26.302181","","","","","","",""
8.0,0.053308576345443726,0.0012563310127896242,"train",9220.0,"2021-11-23 02:09:31.906483","","","","","","",""
8.0,0.050876133143901825,0.0012599774509445645,"train",9240.0,"2021-11-23 02:09:36.964243","","","","","","",""
8.0,0.04108181595802307,0.0012636205425273874,"train",9260.0,"2021-11-23 02:09:42.010543","","","","","","",""
8.0,0.06458223611116409,0.0012672602321148268,"train",9280.0,"2021-11-23 02:09:47.703754","","","","","","",""
8.0,0.04587113857269287,0.0012708964643353732,"train",9300.0,"2021-11-23 02:09:52.730570","","","","","","",""
8.0,0.040615055710077286,0.001274529183870114,"train",9320.0,"2021-11-23 02:09:58.326480","","","","","","",""
8.0,0.06347505748271942,0.0012781583354535748,"train",9340.0,"2021-11-23 02:10:03.355103","","","","","","",""
8.0,0.09354279935359955,0.0012817838638745646,"train",9360.0,"2021-11-23 02:10:08.394448","","","","","","",""
8.0,0.06413102149963379,0.001285405713977009,"train",9380.0,"2021-11-23 02:10:14.027515","","","","","","",""
8.0,0.043329428881406784,0.0012890238306607947,"train",9400.0,"2021-11-23 02:10:19.046222","","","","","","",""
8.0,0.03719509392976761,0.001292638158882606,"train",9420.0,"2021-11-23 02:10:24.623402","","","","","","",""
8.0,0.07828594744205475,0.0012962486436567603,"train",9440.0,"2021-11-23 02:10:29.647693","","","","","","",""
8.0,0.04672253876924515,0.0012998552300560484,"train",9460.0,"2021-11-23 02:10:35.370394","","","","","","",""
8.0,0.036330848932266235,0.0013034578632125668,"train",9480.0,"2021-11-23 02:10:40.390573","","","","","","",""
8.0,0.07679188996553421,0.0013070564883185534,"train",9500.0,"2021-11-23 02:10:45.365319","","","","","","",""
8.0,0.047389425337314606,0.001310651050627223,"train",9520.0,"2021-11-23 02:10:50.931792","","","","","","",""
8.0,0.027283603325486183,0.001314241495453598,"train",9540.0,"2021-11-23 02:10:55.989900","","","","","","",""
8.0,0.04376086965203285,0.00131782776817534,"train",9560.0,"2021-11-23 02:11:01.559646","","","","","","",""
8.0,0.0652894601225853,0.0013214098142335837,"train",9580.0,"2021-11-23 02:11:06.571469","","","","","","",""
8.0,0.04786868393421173,0.001324987579133764,"train",9600.0,"2021-11-23 02:11:11.559785","","","","","","",""
8.0,0.05774416774511337,0.0013285610084464463,"train",9620.0,"2021-11-23 02:11:17.159978","","","","","","",""
8.0,0.06663253903388977,0.001332130047808155,"train",9640.0,"2021-11-23 02:11:22.194430","","","","","","",""
8.0,0.0562535896897316,0.001335694642922199,"train",9660.0,"2021-11-23 02:11:27.138493","","","","","","",""
8.0,"","","train",9666.0,"2021-11-23 02:13:34.834876",0.6469911955177181,0.739640109222446,0.977414770215712,0.6894578765254532,0.6169750922185986,0.6512778808130733,0.4307075889793865
8.0,"","","val",9666.0,"2021-11-23 02:14:07.548394",0.5959062971123739,0.6375045831239452,0.9589823194507564,0.6279317965666191,0.5400749124985796,0.5698444805547601,0.3554131654481974
9.0,0.05846216529607773,0.0013392547395594985,"train",9680.0,"2021-11-23 02:14:14.114231","","","","","","",""
9.0,0.04217303916811943,0.001342810283559412,"train",9700.0,"2021-11-23 02:14:19.151810","","","","","","",""
9.0,0.05249832570552826,0.0013463612208305564,"train",9720.0,"2021-11-23 02:14:24.846003","","","","","","",""
9.0,0.027551794424653053,0.0013499074973516321,"train",9740.0,"2021-11-23 02:14:29.817010","","","","","","",""
9.0,0.03714054077863693,0.0013534490591722464,"train",9760.0,"2021-11-23 02:14:34.810047","","","","","","",""
9.0,0.041141264140605927,0.0013569858524137305,"train",9780.0,"2021-11-23 02:14:40.427080","","","","","","",""
9.0,0.05637281760573387,0.001360517823269962,"train",9800.0,"2021-11-23 02:14:45.559846","","","","","","",""
9.0,0.057431306689977646,0.0013640449180081834,"train",9820.0,"2021-11-23 02:14:51.331645","","","","","","",""
9.0,0.04438231885433197,0.0013675670829698173,"train",9840.0,"2021-11-23 02:14:56.383333","","","","","","",""
9.0,0.044788848608732224,0.0013710842645712853,"train",9860.0,"2021-11-23 02:15:01.395426","","","","","","",""
9.0,0.05276265740394592,0.0013745964093048219,"train",9880.0,"2021-11-23 02:15:07.006702","","","","","","",""
9.0,0.06144029647111893,0.0013781034637392886,"train",9900.0,"2021-11-23 02:15:12.101559","","","","","","",""
9.0,0.047964949160814285,0.0013816053745209864,"train",9920.0,"2021-11-23 02:15:17.840624","","","","","","",""
9.0,0.06951636075973511,0.0013851020883744697,"train",9940.0,"2021-11-23 02:15:22.895037","","","","","","",""
9.0,0.03207739442586899,0.001388593552103353,"train",9960.0,"2021-11-23 02:15:27.930936","","","","","","",""
9.0,0.041690777987241745,0.0013920797125911233,"train",9980.0,"2021-11-23 02:15:33.537615","","","","","","",""
9.0,0.051117874681949615,0.001395560516801947,"train",10000.0,"2021-11-23 02:15:38.589122","","","","","","",""
9.0,0.03151928260922432,0.0013990359117814774,"train",10020.0,"2021-11-23 02:15:44.230509","","","","","","",""
9.0,0.05625365674495697,0.0014025058446576583,"train",10040.0,"2021-11-23 02:15:49.258433","","","","","","",""
9.0,0.06442123651504517,0.0014059702626415317,"train",10060.0,"2021-11-23 02:15:54.206963","","","","","","",""
9.0,0.08577089756727219,0.0014094291130280377,"train",10080.0,"2021-11-23 02:15:59.749807","","","","","","",""
9.0,0.045984555035829544,0.0014128823431968183,"train",10100.0,"2021-11-23 02:16:04.723017","","","","","","",""
9.0,0.04111608490347862,0.001416329900613017,"train",10120.0,"2021-11-23 02:16:10.422692","","","","","","",""
9.0,0.08490327000617981,0.0014197717328280782,"train",10140.0,"2021-11-23 02:16:15.517974","","","","","","",""
9.0,0.04476945474743843,0.0014232077874805457,"train",10160.0,"2021-11-23 02:16:20.588323","","","","","","",""
9.0,0.03961427882313728,0.0014266380122968589,"train",10180.0,"2021-11-23 02:16:26.237160","","","","","","",""
9.0,0.056332774460315704,0.0014300623550921468,"train",10200.0,"2021-11-23 02:16:31.319957","","","","","","",""
9.0,0.0624215267598629,0.0014334807637710243,"train",10220.0,"2021-11-23 02:16:36.983514","","","","","","",""
9.0,0.06625057756900787,0.0014368931863283831,"train",10240.0,"2021-11-23 02:16:41.987218","","","","","","",""
9.0,0.07934559881687164,0.0014402995708501826,"train",10260.0,"2021-11-23 02:16:46.975365","","","","","","",""
9.0,0.04148537665605545,0.0014436998655142422,"train",10280.0,"2021-11-23 02:16:52.621871","","","","","","",""
9.0,0.06007686257362366,0.0014470940185910258,"train",10300.0,"2021-11-23 02:16:57.755606","","","","","","",""
9.0,0.06705824285745621,0.001450481978444431,"train",10320.0,"2021-11-23 02:17:03.441122","","","","","","",""
9.0,0.06261935085058212,0.0014538636935325763,"train",10340.0,"2021-11-23 02:17:08.419307","","","","","","",""
9.0,0.04838243126869202,0.0014572391124085817,"train",10360.0,"2021-11-23 02:17:13.994889","","","","","","",""
9.0,0.04888777807354927,0.0014606081837213525,"train",10380.0,"2021-11-23 02:17:19.060519","","","","","","",""
9.0,0.05579768866300583,0.0014639708562163639,"train",10400.0,"2021-11-23 02:17:24.053764","","","","","","",""
9.0,0.04471203684806824,0.001467327078736435,"train",10420.0,"2021-11-23 02:17:29.635786","","","","","","",""
9.0,0.04030418023467064,0.0014706768002225108,"train",10440.0,"2021-11-23 02:17:34.557506","","","","","","",""
9.0,0.02511107362806797,0.0014740199697144392,"train",10460.0,"2021-11-23 02:17:39.498407","","","","","","",""
9.0,0.043427009135484695,0.0014773565363517442,"train",10480.0,"2021-11-23 02:17:45.082161","","","","","","",""
9.0,0.04286520555615425,0.0014806864493744007,"train",10500.0,"2021-11-23 02:17:50.035474","","","","","","",""
9.0,0.04444094002246857,0.0014840096581236072,"train",10520.0,"2021-11-23 02:17:55.732408","","","","","","",""
9.0,0.054024845361709595,0.001487326112042556,"train",10540.0,"2021-11-23 02:18:00.759142","","","","","","",""
9.0,0.042356643825769424,0.0014906357606772013,"train",10560.0,"2021-11-23 02:18:05.761459","","","","","","",""
9.0,0.04244771599769592,0.0014939385536770291,"train",10580.0,"2021-11-23 02:18:11.327625","","","","","","",""
9.0,0.057565297931432724,0.0014972344407958218,"train",10600.0,"2021-11-23 02:18:16.382231","","","","","","",""
9.0,0.060451410710811615,0.0015005233718924213,"train",10620.0,"2021-11-23 02:18:22.025885","","","","","","",""
9.0,0.056546662002801895,0.0015038052969314946,"train",10640.0,"2021-11-23 02:18:26.941241","","","","","","",""
9.0,0.07379701733589172,0.0015070801659842939,"train",10660.0,"2021-11-23 02:18:31.862249","","","","","","",""
9.0,0.07050387561321259,0.001510347929229414,"train",10680.0,"2021-11-23 02:18:37.457815","","","","","","",""
9.0,0.05608857423067093,0.0015136085369535537,"train",10700.0,"2021-11-23 02:18:42.488056","","","","","","",""
9.0,0.08022934198379517,0.0015168619395522708,"train",10720.0,"2021-11-23 02:18:48.181364","","","","","","",""
9.0,0.02958681620657444,0.0015201080875307349,"train",10740.0,"2021-11-23 02:18:53.062731","","","","","","",""
9.0,"","","train",10740.0,"2021-11-23 02:21:00.779668",0.6403696427272065,0.7505432506063839,0.9791108939706821,0.6811011932511325,0.6039880332274807,0.6439394784005982,0.4181624371422432
9.0,"","","val",10740.0,"2021-11-23 02:21:33.458791",0.5872086280876725,0.6358122498318561,0.9615267942440624,0.6175049063623291,0.5200885271034482,0.5536812748085167,0.3394245026694279
10.0,0.03903761878609657,0.0015233469315044834,"train",10760.0,"2021-11-23 02:21:41.499058","","","","","","",""
10.0,0.06467849761247635,0.0015265784222001709,"train",10780.0,"2021-11-23 02:21:47.211729","","","","","","",""
10.0,0.03599785268306732,0.0015298025104563185,"train",10800.0,"2021-11-23 02:21:52.150491","","","","","","",""
10.0,0.06025169789791107,0.001533019147224064,"train",10820.0,"2021-11-23 02:21:57.722869","","","","","","",""
10.0,0.07249646633863449,0.0015362282835679054,"train",10840.0,"2021-11-23 02:22:02.704006","","","","","","",""
10.0,0.04247572645545006,0.0015394298706664469,"train",10860.0,"2021-11-23 02:22:08.307189","","","","","","",""
10.0,0.04599696025252342,0.001542623859813141,"train",10880.0,"2021-11-23 02:22:13.199053","","","","","","",""
10.0,0.05990308150649071,0.00154581020241703,"train",10900.0,"2021-11-23 02:22:18.103327","","","","","","",""
10.0,0.03836908936500549,0.0015489888500034858,"train",10920.0,"2021-11-23 02:22:23.646307","","","","","","",""
10.0,0.046917762607336044,0.0015521597542149444,"train",10940.0,"2021-11-23 02:22:28.613159","","","","","","",""
10.0,0.06590846180915833,0.0015553228668116455,"train",10960.0,"2021-11-23 02:22:33.700426","","","","","","",""
10.0,0.029841167852282524,0.0015584781396723642,"train",10980.0,"2021-11-23 02:22:39.357185","","","","","","",""
10.0,0.06034591421484947,0.0015616255247951432,"train",11000.0,"2021-11-23 02:22:44.376424","","","","","","",""
10.0,0.06152750551700592,0.0015647649742980233,"train",11020.0,"2021-11-23 02:22:49.981921","","","","","","",""
10.0,0.045710403472185135,0.0015678964404197727,"train",11040.0,"2021-11-23 02:22:54.991972","","","","","","",""
10.0,0.03326359763741493,0.0015710198755206112,"train",11060.0,"2021-11-23 02:23:00.703639","","","","","","",""
10.0,0.029606396332383156,0.0015741352320829379,"train",11080.0,"2021-11-23 02:23:05.745597","","","","","","",""
10.0,0.021988578140735626,0.0015772424627120527,"train",11100.0,"2021-11-23 02:23:11.438619","","","","","","",""
10.0,0.061481110751628876,0.0015803415201368761,"train",11120.0,"2021-11-23 02:23:16.448442","","","","","","",""
10.0,0.06184743717312813,0.001583432357210671,"train",11140.0,"2021-11-23 02:23:21.460631","","","","","","",""
10.0,0.07704301178455353,0.001586514926911758,"train",11160.0,"2021-11-23 02:23:27.033934","","","","","","",""
10.0,0.041486818343400955,0.0015895891823442313,"train",11180.0,"2021-11-23 02:23:31.940848","","","","","","",""
10.0,0.027207890525460243,0.0015926550767386717,"train",11200.0,"2021-11-23 02:23:37.484088","","","","","","",""
10.0,0.0436846949160099,0.0015957125634528599,"train",11220.0,"2021-11-23 02:23:42.428879","","","","","","",""
10.0,0.04442146420478821,0.0015987615959724836,"train",11240.0,"2021-11-23 02:23:47.345282","","","","","","",""
10.0,0.048496462404727936,0.0016018021279118457,"train",11260.0,"2021-11-23 02:23:52.886528","","","","","","",""
10.0,0.035726290196180344,0.0016048341130145728,"train",11280.0,"2021-11-23 02:23:57.831583","","","","","","",""
10.0,0.0562368743121624,0.0016078575051543145,"train",11300.0,"2021-11-23 02:24:03.423957","","","","","","",""
10.0,0.049408089369535446,0.0016108722583354478,"train",11320.0,"2021-11-23 02:24:08.417199","","","","","","",""
10.0,0.047140754759311676,0.0016138783266937777,"train",11340.0,"2021-11-23 02:24:13.405763","","","","","","",""
10.0,0.03742700815200806,0.0016168756644972322,"train",11360.0,"2021-11-23 02:24:18.905280","","","","","","",""
10.0,0.04192950204014778,0.0016198642261465587,"train",11380.0,"2021-11-23 02:24:23.811571","","","","","","",""
10.0,0.030335683375597,0.0016228439661760208,"train",11400.0,"2021-11-23 02:24:29.345758","","","","","","",""
10.0,0.06791572272777557,0.001625814839254086,"train",11420.0,"2021-11-23 02:24:34.369815","","","","","","",""
10.0,0.02566700056195259,0.0016287768001841164,"train",11440.0,"2021-11-23 02:24:39.440739","","","","","","",""
10.0,0.05617862567305565,0.001631729803905059,"train",11460.0,"2021-11-23 02:24:45.072944","","","","","","",""
10.0,0.043347734957933426,0.0016346738054921273,"train",11480.0,"2021-11-23 02:24:50.085597","","","","","","",""
10.0,0.03674130514264107,0.001637608760157486,"train",11500.0,"2021-11-23 02:24:55.671633","","","","","","",""
10.0,0.04668165743350983,0.0016405346232509356,"train",11520.0,"2021-11-23 02:25:00.639741","","","","","","",""
10.0,0.06794781237840652,0.0016434513502605861,"train",11540.0,"2021-11-23 02:25:05.558496","","","","","","",""
10.0,0.06730448454618454,0.0016463588968135383,"train",11560.0,"2021-11-23 02:25:11.093513","","","","","","",""
10.0,0.0690898448228836,0.0016492572186765577,"train",11580.0,"2021-11-23 02:25:15.980145","","","","","","",""
10.0,0.05206267535686493,0.001652146271756747,"train",11600.0,"2021-11-23 02:25:20.867804","","","","","","",""
10.0,0.057907890528440475,0.0016550260121022172,"train",11620.0,"2021-11-23 02:25:26.478992","","","","","","",""
10.0,0.0367291234433651,0.0016578963959027562,"train",11640.0,"2021-11-23 02:25:31.368964","","","","","","",""
10.0,0.028141845017671585,0.001660757379490496,"train",11660.0,"2021-11-23 02:25:36.812641","","","","","","",""
10.0,0.02963104471564293,0.0016636089193405761,"train",11680.0,"2021-11-23 02:25:41.741546","","","","","","",""
10.0,0.0319945402443409,0.0016664509720718049,"train",11700.0,"2021-11-23 02:25:46.724968","","","","","","",""
10.0,0.06311608850955963,0.0016692834944473224,"train",11720.0,"2021-11-23 02:25:52.310013","","","","","","",""
10.0,0.056361034512519836,0.0016721064433752554,"train",11740.0,"2021-11-23 02:25:57.250830","","","","","","",""
10.0,0.047551579773426056,0.0016749197759093734,"train",11760.0,"2021-11-23 02:26:02.777564","","","","","","",""
10.0,0.05878248065710068,0.0016777234492497436,"train",11780.0,"2021-11-23 02:26:07.658313","","","","","","",""
10.0,0.06494661420583725,0.0016805174207433808,"train",11800.0,"2021-11-23 02:26:12.531430","","","","","","",""
10.0,"","","train",11814.0,"2021-11-23 02:28:17.576632",0.6659390235028742,0.7799416047659753,0.9826323624344351,0.6853244153225893,0.6416057850427619,0.6746514608329294,0.4538161136645329
10.0,"","","val",11814.0,"2021-11-23 02:28:51.520178",0.6116780702771657,0.6535409875760041,0.9641150193994464,0.6165156674427344,0.5434580889819929,0.5764614646520662,0.3558430719448524
11.0,0.0843672901391983,0.0016833016478848956,"train",11820.0,"2021-11-23 02:28:55.999320","","","","","","",""
11.0,0.031159309670329094,0.0016860760883171426,"train",11840.0,"2021-11-23 02:29:01.139286","","","","","","",""
11.0,0.06995901465415955,0.001688840699831864,"train",11860.0,"2021-11-23 02:29:06.881269","","","","","","",""
11.0,0.03649446740746498,0.0016915954403703313,"train",11880.0,"2021-11-23 02:29:11.862795","","","","","","",""
11.0,0.043621718883514404,0.0016943402680239862,"train",11900.0,"2021-11-23 02:29:16.860005","","","","","","",""
11.0,0.06540992110967636,0.0016970751410350774,"train",11920.0,"2021-11-23 02:29:22.460863","","","","","","",""
11.0,0.045020148158073425,0.001699800017797296,"train",11940.0,"2021-11-23 02:29:27.478084","","","","","","",""
11.0,0.07374732941389084,0.0017025148568564086,"train",11960.0,"2021-11-23 02:29:33.085602","","","","","","",""
11.0,0.0612337626516819,0.001705219616910888,"train",11980.0,"2021-11-23 02:29:37.994693","","","","","","",""
11.0,0.06809280812740326,0.001707914256812541,"train",12000.0,"2021-11-23 02:29:42.883204","","","","","","",""
11.0,0.039416711777448654,0.0017105987355671352,"train",12020.0,"2021-11-23 02:29:48.483675","","","","","","",""
11.0,0.04039277508854866,0.0017132730123350227,"train",12040.0,"2021-11-23 02:29:53.534111","","","","","","",""
11.0,0.030706318095326424,0.00171593704643176,"train",12060.0,"2021-11-23 02:29:59.138518","","","","","","",""
11.0,0.051330164074897766,0.0017185907973287285,"train",12080.0,"2021-11-23 02:30:04.113606","","","","","","",""
11.0,0.07061354070901871,0.0017212342246537506,"train",12100.0,"2021-11-23 02:30:09.073668","","","","","","",""
11.0,0.058458879590034485,0.0017238672881917032,"train",12120.0,"2021-11-23 02:30:14.656752","","","","","","",""
11.0,0.03351719304919243,0.001726489947885131,"train",12140.0,"2021-11-23 02:30:19.658356","","","","","","",""
11.0,0.03561806306242943,0.0017291021638348543,"train",12160.0,"2021-11-23 02:30:25.310314","","","","","","",""
11.0,0.054424431174993515,0.0017317038963005765,"train",12180.0,"2021-11-23 02:30:30.361746","","","","","","",""
11.0,0.06758211553096771,0.00173429510570149,"train",12200.0,"2021-11-23 02:30:35.393380","","","","","","",""
11.0,0.0751727968454361,0.0017368757526168759,"train",12220.0,"2021-11-23 02:30:40.980180","","","","","","",""
11.0,0.03764691948890686,0.0017394457977867057,"train",12240.0,"2021-11-23 02:30:46.018293","","","","","","",""
11.0,0.03853747248649597,0.0017420052021122378,"train",12260.0,"2021-11-23 02:30:51.656905","","","","","","",""
11.0,0.03385425731539726,0.0017445539266566128,"train",12280.0,"2021-11-23 02:30:56.673704","","","","","","",""
11.0,0.044657882302999496,0.001747091932645445,"train",12300.0,"2021-11-23 02:31:02.246600","","","","","","",""
11.0,0.03980634734034538,0.0017496191814674125,"train",12320.0,"2021-11-23 02:31:07.263752","","","","","","",""
11.0,0.0492001473903656,0.001752135634674846,"train",12340.0,"2021-11-23 02:31:12.275177","","","","","","",""
11.0,0.04610665142536163,0.0017546412539843118,"train",12360.0,"2021-11-23 02:31:17.968683","","","","","","",""
11.0,0.05953209474682808,0.001757136001277194,"train",12380.0,"2021-11-23 02:31:22.950896","","","","","","",""
11.0,0.0620478056371212,0.001759619838600278,"train",12400.0,"2021-11-23 02:31:27.949437","","","","","","",""
11.0,0.06748072057962418,0.0017620927281663229,"train",12420.0,"2021-11-23 02:31:33.554960","","","","","","",""
11.0,0.029995881021022797,0.0017645546323546398,"train",12440.0,"2021-11-23 02:31:38.576395","","","","","","",""
11.0,0.06024310365319252,0.0017670055137116636,"train",12460.0,"2021-11-23 02:31:44.191751","","","","","","",""
11.0,0.06162714213132858,0.0017694453349515209,"train",12480.0,"2021-11-23 02:31:49.236815","","","","","","",""
11.0,0.043278492987155914,0.0017718740589566,"train",12500.0,"2021-11-23 02:31:54.835748","","","","","","",""
11.0,0.06520364433526993,0.0017742916487781134,"train",12520.0,"2021-11-23 02:31:59.735191","","","","","","",""
11.0,0.028892882168293,0.0017766980676366608,"train",12540.0,"2021-11-23 02:32:04.685933","","","","","","",""
11.0,0.03724358230829239,0.001779093278922789,"train",12560.0,"2021-11-23 02:32:10.189347","","","","","","",""
11.0,0.04940783977508545,0.001781477246197548,"train",12580.0,"2021-11-23 02:32:15.201346","","","","","","",""
11.0,0.04192836955189705,0.0017838499331930462,"train",12600.0,"2021-11-23 02:32:20.892024","","","","","","",""
11.0,0.050452012568712234,0.001786211303813001,"train",12620.0,"2021-11-23 02:32:25.923070","","","","","","",""
11.0,0.05319280922412872,0.0017885613221332894,"train",12640.0,"2021-11-23 02:32:31.515623","","","","","","",""
11.0,0.03469841554760933,0.0017908999524024931,"train",12660.0,"2021-11-23 02:32:36.556943","","","","","","",""
11.0,0.05147393047809601,0.0017932271590424438,"train",12680.0,"2021-11-23 02:32:41.615901","","","","","","",""
11.0,0.052108898758888245,0.0017955429066487635,"train",12700.0,"2021-11-23 02:32:47.253921","","","","","","",""
11.0,0.07172086089849472,0.0017978471599914025,"train",12720.0,"2021-11-23 02:32:52.333116","","","","","","",""
11.0,0.05911283195018768,0.0018001398840151778,"train",12740.0,"2021-11-23 02:32:57.350036","","","","","","",""
11.0,0.0350010059773922,0.0018024210438403031,"train",12760.0,"2021-11-23 02:33:03.001625","","","","","","",""
11.0,0.03881427273154259,0.0018046906047629228,"train",12780.0,"2021-11-23 02:33:07.968259","","","","","","",""
11.0,0.06217333301901817,0.0018069485322556372,"train",12800.0,"2021-11-23 02:33:13.574803","","","","","","",""
11.0,0.03503808379173279,0.001809194791968029,"train",12820.0,"2021-11-23 02:33:18.529338","","","","","","",""
11.0,0.043341804295778275,0.0018114293497271863,"train",12840.0,"2021-11-23 02:33:23.451301","","","","","","",""
11.0,0.060175154358148575,0.0018136521715382218,"train",12860.0,"2021-11-23 02:33:29.049423","","","","","","",""
11.0,0.034837741404771805,0.0018158632235847892,"train",12880.0,"2021-11-23 02:33:34.061732","","","","","","",""
11.0,"","","train",12888.0,"2021-11-23 02:35:42.879988",0.6424215964491014,0.765681460260679,0.9801226493352458,0.6816088437972468,0.6049556113896991,0.6166877911474319,0.41931966244473967
11.0,"","","val",12888.0,"2021-11-23 02:36:17.000891",0.5921373072016699,0.6420384836223317,0.9596027861607686,0.6175165393342577,0.5348752356034174,0.5460564002578295,0.3466631248700845
12.0,0.03361253812909126,0.0018180624722295999,"train",12900.0,"2021-11-23 02:36:23.915136","","","","","","",""
12.0,0.03442264348268509,0.001820249884014933,"train",12920.0,"2021-11-23 02:36:28.959716","","","","","","",""
12.0,0.047151293605566025,0.001822425425663144,"train",12940.0,"2021-11-23 02:36:34.513379","","","","","","",""
12.0,0.026929296553134918,0.0018245890640771725,"train",12960.0,"2021-11-23 02:36:39.526699","","","","","","",""
12.0,0.04685655236244202,0.0018267407663410452,"train",12980.0,"2021-11-23 02:36:45.167920","","","","","","",""
12.0,0.02413220703601837,0.0018288804997203755,"train",13000.0,"2021-11-23 02:36:50.193581","","","","","","",""
12.0,0.049799397587776184,0.0018310082316628634,"train",13020.0,"2021-11-23 02:36:55.221785","","","","","","",""
12.0,0.05599891394376755,0.0018331239297987893,"train",13040.0,"2021-11-23 02:37:00.866756","","","","","","",""
12.0,0.03390265628695488,0.0018352275619415066,"train",13060.0,"2021-11-23 02:37:05.897093","","","","","","",""
12.0,0.0650678277015686,0.0018373190960879326,"train",13080.0,"2021-11-23 02:37:10.949328","","","","","","",""
12.0,0.027788911014795303,0.0018393985004190336,"train",13100.0,"2021-11-23 02:37:16.602663","","","","","","",""
12.0,0.030488578602671623,0.00184146574330031,"train",13120.0,"2021-11-23 02:37:21.574937","","","","","","",""
12.0,0.07230069488286972,0.001843520793282278,"train",13140.0,"2021-11-23 02:37:27.154606","","","","","","",""
12.0,0.03061123937368393,0.0018455636191009464,"train",13160.0,"2021-11-23 02:37:32.215978","","","","","","",""
12.0,0.025178411975502968,0.001847594189678294,"train",13180.0,"2021-11-23 02:37:37.266115","","","","","","",""
12.0,0.06433089077472687,0.0018496124741227415,"train",13200.0,"2021-11-23 02:37:42.939366","","","","","","",""
12.0,0.06004370003938675,0.001851618441729622,"train",13220.0,"2021-11-23 02:37:48.070930","","","","","","",""
12.0,0.05560944974422455,0.0018536120619816467,"train",13240.0,"2021-11-23 02:37:53.673400","","","","","","",""
12.0,0.027154996991157532,0.0018555933045493712,"train",13260.0,"2021-11-23 02:37:58.635050","","","","","","",""
12.0,0.039553236216306686,0.0018575621392916554,"train",13280.0,"2021-11-23 02:38:04.225361","","","","","","",""
12.0,0.05504961311817169,0.0018595185362561225,"train",13300.0,"2021-11-23 02:38:09.256637","","","","","","",""
12.0,0.056284356862306595,0.0018614624656796155,"train",13320.0,"2021-11-23 02:38:14.358546","","","","","","",""
12.0,0.03787630796432495,0.0018633938979886484,"train",13340.0,"2021-11-23 02:38:20.032769","","","","","","",""
12.0,0.0583169125020504,0.0018653128037998568,"train",13360.0,"2021-11-23 02:38:25.072583","","","","","","",""
12.0,0.02773457020521164,0.0018672191539204459,"train",13380.0,"2021-11-23 02:38:30.720242","","","","","","",""
12.0,0.04988371580839157,0.0018691129193486335,"train",13400.0,"2021-11-23 02:38:35.676717","","","","","","",""
12.0,0.03613777086138725,0.0018709940712740908,"train",13420.0,"2021-11-23 02:38:40.645743","","","","","","",""
12.0,0.05843440070748329,0.0018728625810783823,"train",13440.0,"2021-11-23 02:38:46.277208","","","","","","",""
12.0,0.06555619835853577,0.0018747184203353996,"train",13460.0,"2021-11-23 02:38:51.298603","","","","","","",""
12.0,0.06629644334316254,0.0018765615608117947,"train",13480.0,"2021-11-23 02:38:56.372254","","","","","","",""
12.0,0.04851473495364189,0.0018783919744674096,"train",13500.0,"2021-11-23 02:39:02.012237","","","","","","",""
12.0,0.02594909444451332,0.0018802096334557027,"train",13520.0,"2021-11-23 02:39:07.081864","","","","","","",""
12.0,0.036075714975595474,0.0018820145101241712,"train",13540.0,"2021-11-23 02:39:12.734133","","","","","","",""
12.0,0.07338767498731613,0.0018838065770147745,"train",13560.0,"2021-11-23 02:39:17.750385","","","","","","",""
12.0,0.054144613444805145,0.0018855858068643496,"train",13580.0,"2021-11-23 02:39:22.766038","","","","","","",""
12.0,0.03116435930132866,0.001887352172605026,"train",13600.0,"2021-11-23 02:39:28.389641","","","","","","",""
12.0,0.05608925595879555,0.0018891056473646398,"train",13620.0,"2021-11-23 02:39:33.419352","","","","","","",""
12.0,0.05495048686861992,0.0018908462044671395,"train",13640.0,"2021-11-23 02:39:39.075808","","","","","","",""
12.0,0.04098815843462944,0.001892573817432993,"train",13660.0,"2021-11-23 02:39:44.083967","","","","","","",""
12.0,0.061589960008859634,0.0018942884599795914,"train",13680.0,"2021-11-23 02:39:49.123344","","","","","","",""
12.0,0.06827656924724579,0.001895990106021648,"train",13700.0,"2021-11-23 02:39:54.775754","","","","","","",""
12.0,0.03180893138051033,0.0018976787296715943,"train",13720.0,"2021-11-23 02:39:59.707192","","","","","","",""
12.0,0.038651660084724426,0.0018993543052399757,"train",13740.0,"2021-11-23 02:40:04.614060","","","","","","",""
12.0,0.07668856531381607,0.0019010168072358413,"train",13760.0,"2021-11-23 02:40:10.267071","","","","","","",""
12.0,0.03811942785978317,0.0019026662103671305,"train",13780.0,"2021-11-23 02:40:15.280758","","","","","","",""
12.0,0.04909585788846016,0.0019043024895410605,"train",13800.0,"2021-11-23 02:40:20.864786","","","","","","",""
12.0,0.07358405739068985,0.001905925619864506,"train",13820.0,"2021-11-23 02:40:25.750888","","","","","","",""
12.0,0.05298028141260147,0.001907535576644378,"train",13840.0,"2021-11-23 02:40:30.644630","","","","","","",""
12.0,0.05006157606840134,0.0019091323353880008,"train",13860.0,"2021-11-23 02:40:36.250879","","","","","","",""
12.0,0.036071762442588806,0.0019107158718034828,"train",13880.0,"2021-11-23 02:40:41.246427","","","","","","",""
12.0,0.048280294984579086,0.001912286161800088,"train",13900.0,"2021-11-23 02:40:46.856897","","","","","","",""
12.0,0.03588969260454178,0.0019138431814886008,"train",13920.0,"2021-11-23 02:40:51.868146","","","","","","",""
12.0,0.06331634521484375,0.0019153869071816896,"train",13940.0,"2021-11-23 02:40:56.907207","","","","","","",""
12.0,0.05038326606154442,0.0019169173153942693,"train",13960.0,"2021-11-23 02:41:02.442941","","","","","","",""
12.0,"","","train",13962.0,"2021-11-23 02:43:05.970892",0.6902568580368188,0.8137762926231878,0.9866098877013135,0.7410071931643947,0.6581025196203524,0.6960597529209972,0.4810847499848752
12.0,"","","val",13962.0,"2021-11-23 02:43:39.980474",0.6170706250724806,0.6577519706170188,0.965653675973286,0.656921594488995,0.5559708564018296,0.5869303561006324,0.3733319264635113
13.0,0.043927788734436035,0.0019184343828438557,"train",13980.0,"2021-11-23 02:43:47.647098","","","","","","",""
13.0,0.05176863446831703,0.0019199380864509208,"train",14000.0,"2021-11-23 02:43:53.453576","","","","","","",""
13.0,0.05259392037987709,0.0019214284033392457,"train",14020.0,"2021-11-23 02:43:58.482067","","","","","","",""
13.0,0.03254891559481621,0.0019229053108362649,"train",14040.0,"2021-11-23 02:44:03.464768","","","","","","",""
13.0,0.03063490428030491,0.0019243687864734145,"train",14060.0,"2021-11-23 02:44:09.101501","","","","","","",""
13.0,0.050740793347358704,0.0019258188079864732,"train",14080.0,"2021-11-23 02:44:14.202688","","","","","","",""
13.0,0.021865982562303543,0.0019272553533158999,"train",14100.0,"2021-11-23 02:44:19.830679","","","","","","",""
13.0,0.0254076961427927,0.0019286784006071697,"train",14120.0,"2021-11-23 02:44:24.788832","","","","","","",""
13.0,0.05412635579705238,0.0019300879282111083,"train",14140.0,"2021-11-23 02:44:29.745045","","","","","","",""
13.0,0.05921921506524086,0.0019314839146842185,"train",14160.0,"2021-11-23 02:44:35.551652","","","","","","",""
13.0,0.03572523966431618,0.0019328663387890076,"train",14180.0,"2021-11-23 02:44:40.550743","","","","","","",""
13.0,0.06670856475830078,0.0019342351794943119,"train",14200.0,"2021-11-23 02:44:45.541456","","","","","","",""
13.0,0.05840766802430153,0.0019355904159756138,"train",14220.0,"2021-11-23 02:44:51.255442","","","","","","",""
13.0,0.05302221328020096,0.0019369320276153613,"train",14240.0,"2021-11-23 02:44:56.357766","","","","","","",""
13.0,0.027339430525898933,0.00193825999400328,"train",14260.0,"2021-11-23 02:45:02.054607","","","","","","",""
13.0,0.03200768679380417,0.0019395742949366843,"train",14280.0,"2021-11-23 02:45:07.021735","","","","","","",""
13.0,0.040052738040685654,0.0019408749104207845,"train",14300.0,"2021-11-23 02:45:11.929441","","","","","","",""
13.0,0.029317708685994148,0.0019421618206689913,"train",14320.0,"2021-11-23 02:45:17.446192","","","","","","",""
13.0,0.029643559828400612,0.0019434350061032163,"train",14340.0,"2021-11-23 02:45:22.457386","","","","","","",""
13.0,0.03953471779823303,0.0019446944473541703,"train",14360.0,"2021-11-23 02:45:27.475854","","","","","","",""
13.0,0.04944321885704994,0.0019459401252616573,"train",14380.0,"2021-11-23 02:45:33.138712","","","","","","",""
13.0,0.06522001326084137,0.001947172020874868,"train",14400.0,"2021-11-23 02:45:38.137216","","","","","","",""
13.0,0.024838659912347794,0.0019483901154526647,"train",14420.0,"2021-11-23 02:45:43.726636","","","","","","",""
13.0,0.039652857929468155,0.0019495943904638694,"train",14440.0,"2021-11-23 02:45:48.771644","","","","","","",""
13.0,0.0504402294754982,0.0019507848275875444,"train",14460.0,"2021-11-23 02:45:54.394642","","","","","","",""
13.0,0.06880172342061996,0.0019519614087132712,"train",14480.0,"2021-11-23 02:45:59.414459","","","","","","",""
13.0,0.027911517769098282,0.0019531241159414263,"train",14500.0,"2021-11-23 02:46:04.446547","","","","","","",""
13.0,0.05189808830618858,0.001954272931583453,"train",14520.0,"2021-11-23 02:46:10.129895","","","","","","",""
13.0,0.049859996885061264,0.0019554078381621306,"train",14540.0,"2021-11-23 02:46:15.129591","","","","","","",""
13.0,0.037383224815130234,0.0019565288184118417,"train",14560.0,"2021-11-23 02:46:20.755867","","","","","","",""
13.0,0.07111634314060211,0.0019576358552788314,"train",14580.0,"2021-11-23 02:46:25.772931","","","","","","",""
13.0,0.04488033056259155,0.0019587289319214713,"train",14600.0,"2021-11-23 02:46:30.807405","","","","","","",""
13.0,0.024693425744771957,0.0019598080317105113,"train",14620.0,"2021-11-23 02:46:36.476044","","","","","","",""
13.0,0.05650978907942772,0.001960873138229337,"train",14640.0,"2021-11-23 02:46:41.488677","","","","","","",""
13.0,0.08091026544570923,0.0019619242352742153,"train",14660.0,"2021-11-23 02:46:47.011555","","","","","","",""
13.0,0.047781527042388916,0.001962961306854543,"train",14680.0,"2021-11-23 02:46:51.933118","","","","","","",""
13.0,0.04155094921588898,0.0019639843371930905,"train",14700.0,"2021-11-23 02:46:56.942246","","","","","","",""
13.0,0.05363747105002403,0.001964993310726241,"train",14720.0,"2021-11-23 02:47:02.599254","","","","","","",""
13.0,0.019418537616729736,0.0019659882121042262,"train",14740.0,"2021-11-23 02:47:07.645855","","","","","","",""
13.0,0.03740409016609192,0.001966969026191363,"train",14760.0,"2021-11-23 02:47:12.601478","","","","","","",""
13.0,0.04521147161722183,0.0019679357380662805,"train",14780.0,"2021-11-23 02:47:18.174132","","","","","","",""
13.0,0.03520863875746727,0.001968888333022148,"train",14800.0,"2021-11-23 02:47:23.134642","","","","","","",""
13.0,0.028783446177840233,0.0019698267965669,"train",14820.0,"2021-11-23 02:47:28.639089","","","","","","",""
13.0,0.04850597679615021,0.0019707511144234557,"train",14840.0,"2021-11-23 02:47:33.574730","","","","","","",""
13.0,0.05829880014061928,0.001971661272529935,"train",14860.0,"2021-11-23 02:47:38.555945","","","","","","",""
13.0,0.030421923846006393,0.001972557257039875,"train",14880.0,"2021-11-23 02:47:44.218826","","","","","","",""
13.0,0.03528482839465141,0.0019734390543224385,"train",14900.0,"2021-11-23 02:47:49.181702","","","","","","",""
13.0,0.037352513521909714,0.001974306650962622,"train",14920.0,"2021-11-23 02:47:54.775782","","","","","","",""
13.0,0.04132023826241493,0.0019751600337614608,"train",14940.0,"2021-11-23 02:47:59.774873","","","","","","",""
13.0,0.037708211690187454,0.0019759991897362284,"train",14960.0,"2021-11-23 02:48:05.448277","","","","","","",""
13.0,0.03784768655896187,0.0019768241061206343,"train",14980.0,"2021-11-23 02:48:10.446555","","","","","","",""
13.0,0.04292219132184982,0.0019776347703650186,"train",15000.0,"2021-11-23 02:48:15.528294","","","","","","",""
13.0,0.07078323513269424,0.001978431170136543,"train",15020.0,"2021-11-23 02:48:21.149037","","","","","","",""
13.0,"","","train",15036.0,"2021-11-23 02:50:33.679596",0.7014625627592229,0.82756113398424,0.9875719748760552,0.7632142150064591,0.7031418099092204,0.7312784082895654,0.5121379360503858
13.0,"","","val",15036.0,"2021-11-23 02:51:06.533506",0.6204917082221965,0.6611608265671817,0.9666208012198568,0.6701757457278548,0.5753770387851501,0.6048625760272105,0.3834164072190594
14.0,0.051744308322668076,0.0019792132933193784,"train",15040.0,"2021-11-23 02:51:10.560093","","","","","","",""
14.0,0.029218105599284172,0.001979981128014888,"train",15060.0,"2021-11-23 02:51:15.727209","","","","","","",""
14.0,0.027017904445528984,0.001980734662541811,"train",15080.0,"2021-11-23 02:51:21.519974","","","","","","",""
14.0,0.03684907406568527,0.0019814738854364374,"train",15100.0,"2021-11-23 02:51:26.677863","","","","","","",""
14.0,0.04901590943336487,0.0019821987854527832,"train",15120.0,"2021-11-23 02:51:32.234822","","","","","","",""
14.0,0.06616879999637604,0.0019829093515627634,"train",15140.0,"2021-11-23 02:51:37.145142","","","","","","",""
14.0,0.035106707364320755,0.001983605572956358,"train",15160.0,"2021-11-23 02:51:42.121102","","","","","","",""
14.0,0.020231205970048904,0.001984287439041775,"train",15180.0,"2021-11-23 02:51:47.800511","","","","","","",""
14.0,0.06446588039398193,0.001984954939445616,"train",15200.0,"2021-11-23 02:51:52.792890","","","","","","",""
14.0,0.033890750259160995,0.0019856080640130295,"train",15220.0,"2021-11-23 02:51:58.426616","","","","","","",""
14.0,0.031305987387895584,0.0019862468028078676,"train",15240.0,"2021-11-23 02:52:03.365714","","","","","","",""
14.0,0.06928986310958862,0.001986871146112837,"train",15260.0,"2021-11-23 02:52:08.979422","","","","","","",""
14.0,0.05682168900966644,0.0019874810844296466,"train",15280.0,"2021-11-23 02:52:13.945027","","","","","","",""
14.0,0.05844603478908539,0.0019880766084791517,"train",15300.0,"2021-11-23 02:52:18.924955","","","","","","",""
14.0,0.04704897105693817,0.0019886577092014953,"train",15320.0,"2021-11-23 02:52:24.517002","","","","","","",""
14.0,0.05827217176556587,0.001989224377756247,"train",15340.0,"2021-11-23 02:52:29.508850","","","","","","",""
14.0,0.035678572952747345,0.0019897766055225353,"train",15360.0,"2021-11-23 02:52:34.457906","","","","","","",""
14.0,0.032423119992017746,0.0019903143840991813,"train",15380.0,"2021-11-23 02:52:39.985606","","","","","","",""
14.0,0.03512619808316231,0.0019908377053048246,"train",15400.0,"2021-11-23 02:52:44.903948","","","","","","",""
14.0,0.07749002426862717,0.001991346561178048,"train",15420.0,"2021-11-23 02:52:50.519486","","","","","","",""
14.0,0.026804909110069275,0.0019918409439775003,"train",15440.0,"2021-11-23 02:52:55.513017","","","","","","",""
14.0,0.049178943037986755,0.0019923208461820117,"train",15460.0,"2021-11-23 02:53:00.449846","","","","","","",""
14.0,0.08409186452627182,0.001992786260490709,"train",15480.0,"2021-11-23 02:53:05.989563","","","","","","",""
14.0,0.042769450694322586,0.0019932371798231287,"train",15500.0,"2021-11-23 02:53:10.955924","","","","","","",""
14.0,0.04546516388654709,0.0019936735973193212,"train",15520.0,"2021-11-23 02:53:16.579431","","","","","","",""
14.0,0.034900423139333725,0.001994095506339958,"train",15540.0,"2021-11-23 02:53:21.514393","","","","","","",""
14.0,0.03801467642188072,0.001994502900466431,"train",15560.0,"2021-11-23 02:53:26.475570","","","","","","",""
14.0,0.06209007650613785,0.0019948957735009517,"train",15580.0,"2021-11-23 02:53:32.059991","","","","","","",""
14.0,0.05702848732471466,0.0019952741194666436,"train",15600.0,"2021-11-23 02:53:36.995928","","","","","","",""
14.0,0.05292029306292534,0.0019956379326076354,"train",15620.0,"2021-11-23 02:53:42.512075","","","","","","",""
14.0,0.027180654928088188,0.001995987207389146,"train",15640.0,"2021-11-23 02:53:47.458864","","","","","","",""
14.0,0.031532831490039825,0.0019963219384975706,"train",15660.0,"2021-11-23 02:53:53.017388","","","","","","",""
14.0,0.030878687277436256,0.001996642120840561,"train",15680.0,"2021-11-23 02:53:57.991236","","","","","","",""
14.0,0.036473214626312256,0.001996947749547103,"train",15700.0,"2021-11-23 02:54:02.927528","","","","","","",""
14.0,0.039217304438352585,0.0019972388199675905,"train",15720.0,"2021-11-23 02:54:08.458453","","","","","","",""
14.0,0.06255859136581421,0.001997515327673896,"train",15740.0,"2021-11-23 02:54:13.435225","","","","","","",""
14.0,0.05248110368847847,0.0019977772684594388,"train",15760.0,"2021-11-23 02:54:18.400522","","","","","","",""
14.0,0.04211784526705742,0.0019980246383392475,"train",15780.0,"2021-11-23 02:54:23.964118","","","","","","",""
14.0,0.06617002189159393,0.0019982574335500225,"train",15800.0,"2021-11-23 02:54:28.935820","","","","","","",""
14.0,0.058319590985774994,0.001998475650550192,"train",15820.0,"2021-11-23 02:54:34.566716","","","","","","",""
14.0,0.03417216241359711,0.0019986792860199657,"train",15840.0,"2021-11-23 02:54:39.518354","","","","","","",""
14.0,0.03312572464346886,0.001998868336861386,"train",15860.0,"2021-11-23 02:54:44.489037","","","","","","",""
14.0,0.04396890848875046,0.001999042800198376,"train",15880.0,"2021-11-23 02:54:50.107627","","","","","","",""
14.0,0.02980460226535797,0.00199920267337678,"train",15900.0,"2021-11-23 02:54:54.991083","","","","","","",""
14.0,0.023098615929484367,0.0019993479539644077,"train",15920.0,"2021-11-23 02:54:59.851467","","","","","","",""
14.0,0.026629921048879623,0.0019994786397510697,"train",15940.0,"2021-11-23 02:55:05.384970","","","","","","",""
14.0,0.05332297459244728,0.0019995947287486096,"train",15960.0,"2021-11-23 02:55:10.283563","","","","","","",""
14.0,0.04004962742328644,0.0019996962191909367,"train",15980.0,"2021-11-23 02:55:15.800158","","","","","","",""
14.0,0.020999331027269363,0.0019997831095340513,"train",16000.0,"2021-11-23 02:55:20.769290","","","","","","",""
14.0,0.042391955852508545,0.001999855398456069,"train",16020.0,"2021-11-23 02:55:26.312435","","","","","","",""
14.0,0.030770141631364822,0.00199991308485724,"train",16040.0,"2021-11-23 02:55:31.274108","","","","","","",""
14.0,0.031107120215892792,0.001999956167859967,"train",16060.0,"2021-11-23 02:55:36.265568","","","","","","",""
14.0,0.06592269241809845,0.0019999846468088172,"train",16080.0,"2021-11-23 02:55:41.858599","","","","","","",""
14.0,0.026627199724316597,0.0019999985212705335,"train",16100.0,"2021-11-23 02:55:46.807858","","","","","","",""
14.0,"","","train",16110.0,"2021-11-23 02:57:56.859510",0.6913483227825075,0.8301512087461766,0.9879474812691101,0.7335861320414582,0.6743971691399574,0.7151541742843215,0.48731739025367266
14.0,"","","val",16110.0,"2021-11-23 02:58:30.024810",0.6002551316247245,0.6428178785517178,0.9620901398315033,0.627884433778704,0.5348238811046516,0.5696445086660349,0.3516461793204705
15.0,0.023987488821148872,0.0019999995774202316,"train",16120.0,"2021-11-23 02:58:35.554990","","","","","","",""
15.0,0.040411509573459625,0.0019999966438102564,"train",16140.0,"2021-11-23 02:58:41.267959","","","","","","",""
15.0,0.05307570844888687,0.0019999909162942875,"train",16160.0,"2021-11-23 02:58:46.159179","","","","","","",""
15.0,0.05964113771915436,0.001999982394888327,"train",16180.0,"2021-11-23 02:58:51.653738","","","","","","",""
15.0,0.02864646725356579,0.0019999710796161823,"train",16200.0,"2021-11-23 02:58:56.675250","","","","","","",""
15.0,0.039246536791324615,0.0019999569705094686,"train",16220.0,"2021-11-23 02:59:01.567509","","","","","","",""
15.0,0.06177015230059624,0.001999940067607605,"train",16240.0,"2021-11-23 02:59:07.033313","","","","","","",""
15.0,0.04103447124361992,0.001999920370957817,"train",16260.0,"2021-11-23 02:59:12.014927","","","","","","",""
15.0,0.04654490202665329,0.0019998978806151355,"train",16280.0,"2021-11-23 02:59:17.597249","","","","","","",""
15.0,0.026510033756494522,0.0019998725966423976,"train",16300.0,"2021-11-23 02:59:22.610836","","","","","","",""
15.0,0.04961792379617691,0.001999844519110244,"train",16320.0,"2021-11-23 02:59:27.804821","","","","","","",""
15.0,0.0381767563521862,0.001999813648097122,"train",16340.0,"2021-11-23 02:59:33.437234","","","","","","",""
15.0,0.022924015298485756,0.001999779983689282,"train",16360.0,"2021-11-23 02:59:38.426769","","","","","","",""
15.0,0.027855997905135155,0.0019997435259807806,"train",16380.0,"2021-11-23 02:59:44.001678","","","","","","",""
15.0,0.03838079422712326,0.001999704275073478,"train",16400.0,"2021-11-23 02:59:48.970050","","","","","","",""
15.0,0.03144533559679985,0.0019996622310770383,"train",16420.0,"2021-11-23 02:59:54.573250","","","","","","",""
15.0,0.04692266881465912,0.0019996173941089286,"train",16440.0,"2021-11-23 02:59:59.639925","","","","","","",""
15.0,0.040056001394987106,0.0019995697642944212,"train",16460.0,"2021-11-23 03:00:04.677606","","","","","","",""
15.0,0.06221442297101021,0.0019995193417665894,"train",16480.0,"2021-11-23 03:00:10.408911","","","","","","",""
15.0,0.04236572980880737,0.0019994661266663108,"train",16500.0,"2021-11-23 03:00:15.415841","","","","","","",""
15.0,0.02343124710023403,0.001999410119142264,"train",16520.0,"2021-11-23 03:00:21.020707","","","","","","",""
15.0,0.042803581804037094,0.0019993513193509297,"train",16540.0,"2021-11-23 03:00:25.950966","","","","","","",""
15.0,0.07724379003047943,0.0019992897274565906,"train",16560.0,"2021-11-23 03:00:30.964644","","","","","","",""
15.0,0.06293582916259766,0.0019992253436313303,"train",16580.0,"2021-11-23 03:00:36.616538","","","","","","",""
15.0,0.05234370008111,0.0019991581680550313,"train",16600.0,"2021-11-23 03:00:41.669259","","","","","","",""
15.0,0.04535207524895668,0.0019990882009153785,"train",16620.0,"2021-11-23 03:00:47.342488","","","","","","",""
15.0,0.044628530740737915,0.001999015442407854,"train",16640.0,"2021-11-23 03:00:52.276134","","","","","","",""
15.0,0.05624094232916832,0.0019989398927357403,"train",16660.0,"2021-11-23 03:00:57.182154","","","","","","",""
15.0,0.07379402220249176,0.0019988615521101174,"train",16680.0,"2021-11-23 03:01:02.717974","","","","","","",""
15.0,0.05334693565964699,0.0019987804207498637,"train",16700.0,"2021-11-23 03:01:07.616427","","","","","","",""
15.0,0.030456598848104477,0.0019986964988816533,"train",16720.0,"2021-11-23 03:01:13.100169","","","","","","",""
15.0,0.03854745253920555,0.0019986097867399585,"train",16740.0,"2021-11-23 03:01:17.965968","","","","","","",""
15.0,0.04040053114295006,0.0019985202845670463,"train",16760.0,"2021-11-23 03:01:22.874748","","","","","","",""
15.0,0.030274007469415665,0.0019984279926129798,"train",16780.0,"2021-11-23 03:01:28.375778","","","","","","",""
15.0,0.04311590641736984,0.001998332911135615,"train",16800.0,"2021-11-23 03:01:33.256691","","","","","","",""
15.0,0.04568598046898842,0.0019982350404006036,"train",16820.0,"2021-11-23 03:01:38.803051","","","","","","",""
15.0,0.05080404877662659,0.0019981343806813883,"train",16840.0,"2021-11-23 03:01:43.794307","","","","","","",""
15.0,0.026781970635056496,0.001998030932259205,"train",16860.0,"2021-11-23 03:01:48.793511","","","","","","",""
15.0,0.07307332009077072,0.0019979246954230823,"train",16880.0,"2021-11-23 03:01:54.488235","","","","","","",""
15.0,0.05547058954834938,0.0019978156704698363,"train",16900.0,"2021-11-23 03:01:59.491163","","","","","","",""
15.0,0.030632589012384415,0.001997703857704076,"train",16920.0,"2021-11-23 03:02:05.118665","","","","","","",""
15.0,0.04173598811030388,0.0019975892574381976,"train",16940.0,"2021-11-23 03:02:10.148911","","","","","","",""
15.0,0.026694247499108315,0.001997471869992386,"train",16960.0,"2021-11-23 03:02:15.178143","","","","","","",""
15.0,0.034292131662368774,0.0019973516956946127,"train",16980.0,"2021-11-23 03:02:20.699656","","","","","","",""
15.0,0.03111100383102894,0.0019972287348806366,"train",17000.0,"2021-11-23 03:02:25.707507","","","","","","",""
15.0,0.07297535985708237,0.0019971029878940003,"train",17020.0,"2021-11-23 03:02:31.391388","","","","","","",""
15.0,0.036004699766635895,0.0019969744550860317,"train",17040.0,"2021-11-23 03:02:36.423312","","","","","","",""
15.0,0.06581564992666245,0.0019968431368158433,"train",17060.0,"2021-11-23 03:02:41.417666","","","","","","",""
15.0,0.03760813921689987,0.001996709033450327,"train",17080.0,"2021-11-23 03:02:46.975976","","","","","","",""
15.0,0.0578366182744503,0.0019965721453641585,"train",17100.0,"2021-11-23 03:02:51.933032","","","","","","",""
15.0,0.030335726216435432,0.0019964324729397935,"train",17120.0,"2021-11-23 03:02:57.507357","","","","","","",""
15.0,0.05181478336453438,0.0019962900165674657,"train",17140.0,"2021-11-23 03:03:02.491491","","","","","","",""
15.0,0.036953702569007874,0.0019961447766451887,"train",17160.0,"2021-11-23 03:03:07.447022","","","","","","",""
15.0,0.08570212125778198,0.001995996753578751,"train",17180.0,"2021-11-23 03:03:13.005529","","","","","","",""
15.0,"","","train",17184.0,"2021-11-23 03:05:16.437590",0.7253874699847195,0.8608511994890379,0.9900831994018178,0.7756231143660697,0.747303974978512,0.7806336945646714,0.5581120305795266
15.0,"","","val",17184.0,"2021-11-23 03:05:48.968077",0.6240287602922416,0.6631197703900683,0.965548152272053,0.6597392420340861,0.5890700416850579,0.6213522940265803,0.39429927812790944
16.0,0.05076703801751137,0.001995845947781719,"train",17200.0,"2021-11-23 03:05:56.076952","","","","","","",""
16.0,0.03209984302520752,0.001995692359675433,"train",17220.0,"2021-11-23 03:06:01.877743","","","","","","",""
16.0,0.026220107451081276,0.0019955359896890066,"train",17240.0,"2021-11-23 03:06:06.843471","","","","","","",""
16.0,0.0293246079236269,0.0019953768382593258,"train",17260.0,"2021-11-23 03:06:11.800016","","","","","","",""
16.0,0.047729238867759705,0.0019952149058310486,"train",17280.0,"2021-11-23 03:06:17.388677","","","","","","",""
16.0,0.035911593586206436,0.001995050192856602,"train",17300.0,"2021-11-23 03:06:22.402627","","","","","","",""
16.0,0.03047378733754158,0.001994882699796182,"train",17320.0,"2021-11-23 03:06:27.990523","","","","","","",""
16.0,0.02295706421136856,0.001994712427117752,"train",17340.0,"2021-11-23 03:06:32.959365","","","","","","",""
16.0,0.0397406630218029,0.0019945393752970413,"train",17360.0,"2021-11-23 03:06:37.879322","","","","","","",""
16.0,0.029665732756257057,0.001994363544817544,"train",17380.0,"2021-11-23 03:06:43.413470","","","","","","",""
16.0,0.05677501857280731,0.001994184936170517,"train",17400.0,"2021-11-23 03:06:48.325544","","","","","","",""
16.0,0.021776868030428886,0.0019940035498549804,"train",17420.0,"2021-11-23 03:06:53.995075","","","","","","",""
16.0,0.03252555429935455,0.0019938193863777145,"train",17440.0,"2021-11-23 03:06:58.999511","","","","","","",""
16.0,0.025944756343960762,0.001993632446253258,"train",17460.0,"2021-11-23 03:07:03.905024","","","","","","",""
16.0,0.022425178438425064,0.0019934427300039074,"train",17480.0,"2021-11-23 03:07:09.550436","","","","","","",""
16.0,0.025873547419905663,0.001993250238159717,"train",17500.0,"2021-11-23 03:07:14.533733","","","","","","",""
16.0,0.027475224807858467,0.0019930549712584944,"train",17520.0,"2021-11-23 03:07:20.165114","","","","","","",""
16.0,0.05302121117711067,0.001992856929845801,"train",17540.0,"2021-11-23 03:07:25.138710","","","","","","",""
16.0,0.03711896017193794,0.0019926561144749497,"train",17560.0,"2021-11-23 03:07:30.199734","","","","","","",""
16.0,0.03488084673881531,0.001992452525707004,"train",17580.0,"2021-11-23 03:07:35.776157","","","","","","",""
16.0,0.03597942739725113,0.0019922461641107767,"train",17600.0,"2021-11-23 03:07:40.796628","","","","","","",""
16.0,0.028478171676397324,0.001992037030262826,"train",17620.0,"2021-11-23 03:07:46.382453","","","","","","",""
16.0,0.04682339355349541,0.0019918251247474567,"train",17640.0,"2021-11-23 03:07:51.383025","","","","","","",""
16.0,0.03964770957827568,0.001991610448156718,"train",17660.0,"2021-11-23 03:07:56.281565","","","","","","",""
16.0,0.029505295678973198,0.0019913930010903996,"train",17680.0,"2021-11-23 03:08:01.761088","","","","","","",""
16.0,0.030981972813606262,0.001991172784156033,"train",17700.0,"2021-11-23 03:08:06.672485","","","","","","",""
16.0,0.06701686233282089,0.0019909497979688877,"train",17720.0,"2021-11-23 03:08:12.216463","","","","","","",""
16.0,0.02829570136964321,0.0019907240431519713,"train",17740.0,"2021-11-23 03:08:17.114698","","","","","","",""
16.0,0.01831311546266079,0.001990495520336026,"train",17760.0,"2021-11-23 03:08:21.981585","","","","","","",""
16.0,0.028755489736795425,0.0019902642301595284,"train",17780.0,"2021-11-23 03:08:27.443651","","","","","","",""
16.0,0.060474805533885956,0.001990030173268685,"train",17800.0,"2021-11-23 03:08:32.436493","","","","","","",""
16.0,0.04367946833372116,0.0019897933503174345,"train",17820.0,"2021-11-23 03:08:37.988110","","","","","","",""
16.0,0.02960204891860485,0.0019895537619674425,"train",17840.0,"2021-11-23 03:08:42.987669","","","","","","",""
16.0,0.025271959602832794,0.001989311408888101,"train",17860.0,"2021-11-23 03:08:47.985147","","","","","","",""
16.0,0.040194202214479446,0.001989066291756527,"train",17880.0,"2021-11-23 03:08:53.551182","","","","","","",""
16.0,0.03261740505695343,0.00198881841125756,"train",17900.0,"2021-11-23 03:08:58.578013","","","","","","",""
16.0,0.051461223512887955,0.0019885677680837595,"train",17920.0,"2021-11-23 03:09:04.254426","","","","","","",""
16.0,0.03937515988945961,0.001988314362935404,"train",17940.0,"2021-11-23 03:09:09.245588","","","","","","",""
16.0,0.029080567881464958,0.0019880581965204896,"train",17960.0,"2021-11-23 03:09:14.235741","","","","","","",""
16.0,0.027811260893940926,0.0019877992695547255,"train",17980.0,"2021-11-23 03:09:19.717026","","","","","","",""
16.0,0.053919143974781036,0.0019875375827615354,"train",18000.0,"2021-11-23 03:09:24.757669","","","","","","",""
16.0,0.055224526673555374,0.0019872731368720527,"train",18020.0,"2021-11-23 03:09:30.380853","","","","","","",""
16.0,0.053291771560907364,0.00198700593262512,"train",18040.0,"2021-11-23 03:09:35.426060","","","","","","",""
16.0,0.0461718924343586,0.001986735970767286,"train",18060.0,"2021-11-23 03:09:40.455928","","","","","","",""
16.0,0.0516619049012661,0.001986463252052804,"train",18080.0,"2021-11-23 03:09:46.098326","","","","","","",""
16.0,0.05743351951241493,0.0019861877772436305,"train",18100.0,"2021-11-23 03:09:51.149587","","","","","","",""
16.0,0.022069178521633148,0.001985909547109422,"train",18120.0,"2021-11-23 03:09:56.843339","","","","","","",""
16.0,0.026454532518982887,0.001985628562427533,"train",18140.0,"2021-11-23 03:10:01.828392","","","","","","",""
16.0,0.061357565224170685,0.001985344823983014,"train",18160.0,"2021-11-23 03:10:06.818737","","","","","","",""
16.0,0.0329134464263916,0.001985058332568609,"train",18180.0,"2021-11-23 03:10:12.377615","","","","","","",""
16.0,0.027784127742052078,0.001984769088984755,"train",18200.0,"2021-11-23 03:10:17.398035","","","","","","",""
16.0,0.030705956742167473,0.001984477094039576,"train",18220.0,"2021-11-23 03:10:22.990725","","","","","","",""
16.0,0.057451602071523666,0.001984182348548885,"train",18240.0,"2021-11-23 03:10:28.047467","","","","","","",""
16.0,"","","train",18258.0,"2021-11-23 03:12:34.149857",0.7447282252783235,0.8899946894907662,0.9928902501886692,0.7937355351301357,0.7113024038445019,0.7505931694337847,0.5475547486224698
16.0,"","","val",18258.0,"2021-11-23 03:13:06.577956",0.6200858170010437,0.6623850208962168,0.9640079677905385,0.6584651132376526,0.5380350785599769,0.5721029707359572,0.3650157155248052
17.0,0.02096857689321041,0.00198388485333618,"train",18260.0,"2021-11-23 03:13:10.007347","","","","","","",""
17.0,0.030975062400102615,0.0019835846092326396,"train",18280.0,"2021-11-23 03:13:15.999654","","","","","","",""
17.0,0.03383447974920273,0.0019832816170771246,"train",18300.0,"2021-11-23 03:13:20.952210","","","","","","",""
17.0,0.035967495292425156,0.001982975877716172,"train",18320.0,"2021-11-23 03:13:25.873092","","","","","","",""
17.0,0.04354305937886238,0.0019826673920039957,"train",18340.0,"2021-11-23 03:13:31.459615","","","","","","",""
17.0,0.06227032095193863,0.0019823561608024822,"train",18360.0,"2021-11-23 03:13:36.502778","","","","","","",""
17.0,0.05801476165652275,0.0019820421849811886,"train",18380.0,"2021-11-23 03:13:42.124608","","","","","","",""
17.0,0.023297641426324844,0.0019817254654173402,"train",18400.0,"2021-11-23 03:13:47.130011","","","","","","",""
17.0,0.03479275852441788,0.0019814060029958278,"train",18420.0,"2021-11-23 03:13:52.145824","","","","","","",""
17.0,0.04712876304984093,0.001981083798609206,"train",18440.0,"2021-11-23 03:13:57.758162","","","","","","",""
17.0,0.017090624198317528,0.0019807588531576908,"train",18460.0,"2021-11-23 03:14:02.767964","","","","","","",""
17.0,0.03402186185121536,0.0019804311675491555,"train",18480.0,"2021-11-23 03:14:08.413437","","","","","","",""
17.0,0.03157273307442665,0.00198010074269913,"train",18500.0,"2021-11-23 03:14:13.521106","","","","","","",""
17.0,0.02205851301550865,0.0019797675795307965,"train",18520.0,"2021-11-23 03:14:18.584880","","","","","","",""
17.0,0.01749514229595661,0.0019794316789749885,"train",18540.0,"2021-11-23 03:14:24.248568","","","","","","",""
17.0,0.056181084364652634,0.0019790930419701877,"train",18560.0,"2021-11-23 03:14:29.278785","","","","","","",""
17.0,0.028620917350053787,0.0019787516694625214,"train",18580.0,"2021-11-23 03:14:34.914672","","","","","","",""
17.0,0.04805383086204529,0.0019784075624057584,"train",18600.0,"2021-11-23 03:14:40.046204","","","","","","",""
17.0,0.033244747668504715,0.0019780607217613094,"train",18620.0,"2021-11-23 03:14:45.084337","","","","","","",""
17.0,0.03483567386865616,0.001977711148498221,"train",18640.0,"2021-11-23 03:14:50.811765","","","","","","",""
17.0,0.03903895244002342,0.0019773588435931756,"train",18660.0,"2021-11-23 03:14:55.785354","","","","","","",""
17.0,0.043987128883600235,0.0019770038080304873,"train",18680.0,"2021-11-23 03:15:01.376095","","","","","","",""
17.0,0.02235964499413967,0.001976646042802099,"train",18700.0,"2021-11-23 03:15:06.354227","","","","","","",""
17.0,0.03686371445655823,0.0019762855489075808,"train",18720.0,"2021-11-23 03:15:11.327214","","","","","","",""
17.0,0.019307928159832954,0.001975922327354126,"train",18740.0,"2021-11-23 03:15:16.993205","","","","","","",""
17.0,0.019180629402399063,0.001975556379156549,"train",18760.0,"2021-11-23 03:15:22.067267","","","","","","",""
17.0,0.05258439481258392,0.0019751877053372823,"train",18780.0,"2021-11-23 03:15:27.737416","","","","","","",""
17.0,0.03279490023851395,0.001974816306926373,"train",18800.0,"2021-11-23 03:15:32.784044","","","","","","",""
17.0,0.052353519946336746,0.001974442184961482,"train",18820.0,"2021-11-23 03:15:37.835957","","","","","","",""
17.0,0.07898072153329849,0.0019740653404878776,"train",18840.0,"2021-11-23 03:15:43.484656","","","","","","",""
17.0,0.04877417907118797,0.0019736857745584362,"train",18860.0,"2021-11-23 03:15:48.505476","","","","","","",""
17.0,0.06902816891670227,0.0019733034882336367,"train",18880.0,"2021-11-23 03:15:54.071829","","","","","","",""
17.0,0.02306700311601162,0.0019729184825815586,"train",18900.0,"2021-11-23 03:15:59.021713","","","","","","",""
17.0,0.024225179105997086,0.0019725307586778806,"train",18920.0,"2021-11-23 03:16:03.953762","","","","","","",""
17.0,0.033164165914058685,0.001972140317605874,"train",18940.0,"2021-11-23 03:16:09.689538","","","","","","",""
17.0,0.04874136671423912,0.0019717471604564028,"train",18960.0,"2021-11-23 03:16:14.699880","","","","","","",""
17.0,0.047685734927654266,0.0019713512883279185,"train",18980.0,"2021-11-23 03:16:20.313875","","","","","","",""
17.0,0.05982459709048271,0.00197095270232646,"train",19000.0,"2021-11-23 03:16:25.328245","","","","","","",""
17.0,0.03401017189025879,0.001970551403565646,"train",19020.0,"2021-11-23 03:16:30.400423","","","","","","",""
17.0,0.029146401211619377,0.0019701473931666765,"train",19040.0,"2021-11-23 03:16:36.075663","","","","","","",""
17.0,0.036264486610889435,0.001969740672258327,"train",19060.0,"2021-11-23 03:16:41.013314","","","","","","",""
17.0,0.03754446282982826,0.0019693312419769454,"train",19080.0,"2021-11-23 03:16:46.495071","","","","","","",""
17.0,0.026687858626246452,0.0019689191034664498,"train",19100.0,"2021-11-23 03:16:51.434740","","","","","","",""
17.0,0.061909209936857224,0.0019685042578783257,"train",19120.0,"2021-11-23 03:16:57.035402","","","","","","",""
17.0,0.043341245502233505,0.00196808670637162,"train",19140.0,"2021-11-23 03:17:01.981401","","","","","","",""
17.0,0.02863338403403759,0.001967666450112942,"train",19160.0,"2021-11-23 03:17:06.914811","","","","","","",""
17.0,0.03881652280688286,0.001967243490276456,"train",19180.0,"2021-11-23 03:17:12.476584","","","","","","",""
17.0,0.030357185751199722,0.0019668178280438818,"train",19200.0,"2021-11-23 03:17:17.432214","","","","","","",""
17.0,0.034218594431877136,0.0019663894646044875,"train",19220.0,"2021-11-23 03:17:23.092493","","","","","","",""
17.0,0.05323085933923721,0.001965958401155089,"train",19240.0,"2021-11-23 03:17:28.095186","","","","","","",""
17.0,0.02879972569644451,0.0019655246389000463,"train",19260.0,"2021-11-23 03:17:33.739195","","","","","","",""
17.0,0.04536088928580284,0.0019650881790512597,"train",19280.0,"2021-11-23 03:17:38.771660","","","","","","",""
17.0,0.04956457391381264,0.001964649022828165,"train",19300.0,"2021-11-23 03:17:43.791803","","","","","","",""
17.0,0.04705514386296272,0.0019642071714577325,"train",19320.0,"2021-11-23 03:17:49.512597","","","","","","",""
17.0,"","","train",19332.0,"2021-11-23 03:19:56.148362",0.7630648330058939,0.8958762173477695,0.9934250865442625,0.8139211120706209,0.7772089715516041,0.8080381394113716,0.6009971575685873
17.0,"","","val",19332.0,"2021-11-23 03:20:30.414634",0.6160269047895164,0.6574041749499173,0.9653007196689418,0.6558310555095792,0.5830047528037403,0.6140108132183445,0.3857904588742302
18.0,0.04774359241127968,0.0019637626261744634,"train",19340.0,"2021-11-23 03:20:35.468631","","","","","","",""
18.0,0.020086729899048805,0.001963315388220384,"train",19360.0,"2021-11-23 03:20:41.281323","","","","","","",""
18.0,0.04705611616373062,0.0019628654588450443,"train",19380.0,"2021-11-23 03:20:46.391283","","","","","","",""
18.0,0.030132675543427467,0.001962412839305514,"train",19400.0,"2021-11-23 03:20:51.477012","","","","","","",""
18.0,0.044142115861177444,0.0019619575308663785,"train",19420.0,"2021-11-23 03:20:57.139420","","","","","","",""
18.0,0.02482473850250244,0.001961499534799737,"train",19440.0,"2021-11-23 03:21:02.063353","","","","","","",""
18.0,0.05617585405707359,0.001961038852385196,"train",19460.0,"2021-11-23 03:21:06.970586","","","","","","",""
18.0,0.022675776854157448,0.0019605754849098683,"train",19480.0,"2021-11-23 03:21:12.530615","","","","","","",""
18.0,0.02687015011906624,0.0019601094336683693,"train",19500.0,"2021-11-23 03:21:17.440251","","","","","","",""
18.0,0.03715340048074722,0.0019596406999628116,"train",19520.0,"2021-11-23 03:21:22.955153","","","","","","",""
18.0,0.05382626876235008,0.0019591692851028022,"train",19540.0,"2021-11-23 03:21:27.927590","","","","","","",""
18.0,0.062295861542224884,0.001958695190405441,"train",19560.0,"2021-11-23 03:21:33.528479","","","","","","",""
18.0,0.02033587358891964,0.001958218417195312,"train",19580.0,"2021-11-23 03:21:38.492088","","","","","","",""
18.0,0.022594831883907318,0.001957738966804486,"train",19600.0,"2021-11-23 03:21:43.490331","","","","","","",""
18.0,0.030906621366739273,0.001957256840572511,"train",19620.0,"2021-11-23 03:21:49.191974","","","","","","",""
18.0,0.022006109356880188,0.0019567720398464133,"train",19640.0,"2021-11-23 03:21:54.152503","","","","","","",""
18.0,0.02081751450896263,0.00195628456598069,"train",19660.0,"2021-11-23 03:21:59.721420","","","","","","",""
18.0,0.017882442101836205,0.001955794420337307,"train",19680.0,"2021-11-23 03:22:04.718080","","","","","","",""
18.0,0.06593872606754303,0.0019553016042856957,"train",19700.0,"2021-11-23 03:22:09.656946","","","","","","",""
18.0,0.031748123466968536,0.001954806119202748,"train",19720.0,"2021-11-23 03:22:15.230040","","","","","","",""
18.0,0.024932151660323143,0.001954307966472812,"train",19740.0,"2021-11-23 03:22:20.182445","","","","","","",""
18.0,0.0465230867266655,0.0019538071474876914,"train",19760.0,"2021-11-23 03:22:25.793160","","","","","","",""
18.0,0.030896518379449844,0.001953303663646636,"train",19780.0,"2021-11-23 03:22:30.795044","","","","","","",""
18.0,0.05002005398273468,0.0019527975163563436,"train",19800.0,"2021-11-23 03:22:35.775906","","","","","","",""
18.0,0.03860437870025635,0.0019522887070309524,"train",19820.0,"2021-11-23 03:22:41.342877","","","","","","",""
18.0,0.053861986845731735,0.0019517772370920379,"train",19840.0,"2021-11-23 03:22:46.396178","","","","","","",""
18.0,0.07981875538825989,0.0019512631079686104,"train",19860.0,"2021-11-23 03:22:52.063958","","","","","","",""
18.0,0.02103547565639019,0.001950746321097108,"train",19880.0,"2021-11-23 03:22:57.102485","","","","","","",""
18.0,0.049683161079883575,0.0019502268779213957,"train",19900.0,"2021-11-23 03:23:02.138596","","","","","","",""
18.0,0.06439793854951859,0.0019497047798927598,"train",19920.0,"2021-11-23 03:23:07.852573","","","","","","",""
18.0,0.026476342231035233,0.001949180028469903,"train",19940.0,"2021-11-23 03:23:12.844714","","","","","","",""
18.0,0.01735720969736576,0.0019486526251189435,"train",19960.0,"2021-11-23 03:23:18.437705","","","","","","",""
18.0,0.051522333174943924,0.0019481225713134064,"train",19980.0,"2021-11-23 03:23:23.421806","","","","","","",""
18.0,0.02768942154943943,0.0019475898685342235,"train",20000.0,"2021-11-23 03:23:28.438802","","","","","","",""
18.0,0.021355552598834038,0.0019470545182697272,"train",20020.0,"2021-11-23 03:23:34.071498","","","","","","",""
18.0,0.03804744407534599,0.001946516522015647,"train",20040.0,"2021-11-23 03:23:39.047477","","","","","","",""
18.0,0.061079420149326324,0.0019459758812751047,"train",20060.0,"2021-11-23 03:23:44.024943","","","","","","",""
18.0,0.028011860325932503,0.0019454325975586106,"train",20080.0,"2021-11-23 03:23:49.686400","","","","","","",""
18.0,0.05255205184221268,0.0019448866723840602,"train",20100.0,"2021-11-23 03:23:54.686877","","","","","","",""
18.0,0.05549994111061096,0.001944338107276728,"train",20120.0,"2021-11-23 03:24:00.273836","","","","","","",""
18.0,0.02982434071600437,0.0019437869037692644,"train",20140.0,"2021-11-23 03:24:05.248468","","","","","","",""
18.0,0.02743382938206196,0.0019432330634016912,"train",20160.0,"2021-11-23 03:24:10.195373","","","","","","",""
18.0,0.04254760965704918,0.0019426765877213986,"train",20180.0,"2021-11-23 03:24:15.695599","","","","","","",""
18.0,0.031746476888656616,0.0019421174782831383,"train",20200.0,"2021-11-23 03:24:20.604752","","","","","","",""
