"epoch","loss","lr","part","step","time","accuracy","auprc","auroc","challenge_metric","f_beta_measure","f_measure","g_beta_measure"
0.0,0.15342096984386444,8.000730236035311e-05,"train",20.0,"2021-11-23 08:31:27.537478","","","","","","",""
0.0,0.1859631985425949,8.002920933031948e-05,"train",40.0,"2021-11-23 08:31:31.337588","","","","","","",""
0.0,0.14115972816944122,8.006572057662293e-05,"train",60.0,"2021-11-23 08:31:34.401335","","","","","","",""
0.0,0.12768718600273132,8.011683554380914e-05,"train",80.0,"2021-11-23 08:31:37.447080","","","","","","",""
0.0,0.12562477588653564,8.018255345425274e-05,"train",100.0,"2021-11-23 08:31:40.426965","","","","","","",""
0.0,0.10443491488695145,8.026287330817079e-05,"train",120.0,"2021-11-23 08:31:43.513045","","","","","","",""
0.0,0.11856015026569366,8.03577938836373e-05,"train",140.0,"2021-11-23 08:31:46.643323","","","","","","",""
0.0,0.11597390472888947,8.04673137366021e-05,"train",160.0,"2021-11-23 08:31:49.665294","","","","","","",""
0.0,0.1049206331372261,8.059143120091187e-05,"train",180.0,"2021-11-23 08:31:52.682083","","","","","","",""
0.0,0.1023351326584816,8.073014438833613e-05,"train",200.0,"2021-11-23 08:31:55.783954","","","","","","",""
0.0,0.09937398880720139,8.088345118859724e-05,"train",220.0,"2021-11-23 08:31:59.510852","","","","","","",""
0.0,0.10446429997682571,8.10513492693996e-05,"train",240.0,"2021-11-23 08:32:02.580052","","","","","","",""
0.0,0.090751051902771,8.123383607646804e-05,"train",260.0,"2021-11-23 08:32:05.577079","","","","","","",""
0.0,0.11786457896232605,8.143090883358495e-05,"train",280.0,"2021-11-23 08:32:08.582118","","","","","","",""
0.0,0.08012199401855469,8.164256454263295e-05,"train",300.0,"2021-11-23 08:32:11.596618","","","","","","",""
0.0,0.09899698942899704,8.186879998364088e-05,"train",320.0,"2021-11-23 08:32:14.556948","","","","","","",""
0.0,0.08712958544492722,8.210961171483213e-05,"train",340.0,"2021-11-23 08:32:17.618114","","","","","","",""
0.0,0.10234798491001129,8.236499607267717e-05,"train",360.0,"2021-11-23 08:32:20.535562","","","","","","",""
0.0,0.10440201312303543,8.26349491719505e-05,"train",380.0,"2021-11-23 08:32:23.434628","","","","","","",""
0.0,0.11545000225305557,8.291946690578713e-05,"train",400.0,"2021-11-23 08:32:27.125791","","","","","","",""
0.0,0.11288633942604065,8.321854494574774e-05,"train",420.0,"2021-11-23 08:32:30.265590","","","","","","",""
0.0,0.09363123774528503,8.353217874188293e-05,"train",440.0,"2021-11-23 08:32:33.436190","","","","","","",""
0.0,0.10376521944999695,8.38603635228035e-05,"train",460.0,"2021-11-23 08:32:36.564520","","","","","","",""
0.0,0.08833109587430954,8.420309429575212e-05,"train",480.0,"2021-11-23 08:32:39.734610","","","","","","",""
0.0,0.07252392917871475,8.456036584667914e-05,"train",500.0,"2021-11-23 08:32:42.802520","","","","","","",""
0.0,0.07575587183237076,8.493217274032315e-05,"train",520.0,"2021-11-23 08:32:45.817655","","","","","","",""
0.0,0.10030399262905121,8.531850932029235e-05,"train",540.0,"2021-11-23 08:32:49.008335","","","","","","",""
0.0,0.07480441778898239,8.571936970915212e-05,"train",560.0,"2021-11-23 08:32:52.169339","","","","","","",""
0.0,0.0981334000825882,8.613474780851246e-05,"train",580.0,"2021-11-23 08:32:55.967381","","","","","","",""
0.0,0.07342110574245453,8.656463729912224e-05,"train",600.0,"2021-11-23 08:32:59.136541","","","","","","",""
0.0,0.08655694872140884,8.700903164096468e-05,"train",620.0,"2021-11-23 08:33:02.297781","","","","","","",""
0.0,0.07830647379159927,8.746792407335769e-05,"train",640.0,"2021-11-23 08:33:05.446603","","","","","","",""
0.0,0.11755679547786713,8.794130761505497e-05,"train",660.0,"2021-11-23 08:33:08.587826","","","","","","",""
0.0,0.0986899808049202,8.842917506435462e-05,"train",680.0,"2021-11-23 08:33:11.599673","","","","","","",""
0.0,0.07827881723642349,8.893151899920645e-05,"train",700.0,"2021-11-23 08:33:14.569081","","","","","","",""
0.0,0.09933959692716599,8.944833177732632e-05,"train",720.0,"2021-11-23 08:33:17.565158","","","","","","",""
0.0,0.0867665559053421,8.997960553631186e-05,"train",740.0,"2021-11-23 08:33:20.630213","","","","","","",""
0.0,0.0983426570892334,9.052533219376224e-05,"train",760.0,"2021-11-23 08:33:24.459664","","","","","","",""
0.0,0.09078942239284515,9.108550344740104e-05,"train",780.0,"2021-11-23 08:33:27.610570","","","","","","",""
0.0,0.07839351147413254,9.166011077520208e-05,"train",800.0,"2021-11-23 08:33:30.645074","","","","","","",""
0.0,0.08058730512857437,9.224914543552059e-05,"train",820.0,"2021-11-23 08:33:33.660096","","","","","","",""
0.0,0.08323926478624344,9.285259846722417e-05,"train",840.0,"2021-11-23 08:33:36.692843","","","","","","",""
0.0,0.10576687008142471,9.34704606898307e-05,"train",860.0,"2021-11-23 08:33:39.750027","","","","","","",""
0.0,0.0805327370762825,9.410272270364735e-05,"train",880.0,"2021-11-23 08:33:42.689415","","","","","","",""
0.0,0.06899210065603256,9.474937488991348e-05,"train",900.0,"2021-11-23 08:33:45.684237","","","","","","",""
0.0,0.10405176132917404,9.541040741094719e-05,"train",920.0,"2021-11-23 08:33:48.634471","","","","","","",""
0.0,0.06820984929800034,9.608581021029522e-05,"train",940.0,"2021-11-23 08:33:52.197868","","","","","","",""
0.0,0.0961335301399231,9.677557301288509e-05,"train",960.0,"2021-11-23 08:33:55.179607","","","","","","",""
0.0,0.09705936908721924,9.747968532518238e-05,"train",980.0,"2021-11-23 08:33:58.120364","","","","","","",""
0.0,0.07668516784906387,9.819813643535029e-05,"train",1000.0,"2021-11-23 08:34:01.052144","","","","","","",""
0.0,0.08501245826482773,9.893091541341185e-05,"train",1020.0,"2021-11-23 08:34:04.030972","","","","","","",""
0.0,0.09968516230583191,9.967801111141644e-05,"train",1040.0,"2021-11-23 08:34:06.995441","","","","","","",""
0.0,0.0889085903763771,0.00010043941216361023,"train",1060.0,"2021-11-23 08:34:09.943911","","","","","","",""
0.0,"","","train",1074.0,"2021-11-23 08:37:37.190689",0.44268354798806664,0.409040809959058,0.8995639308126635,0.43928255542209843,0.31892909682349246,0.3259885888747911,0.19697092250075204
0.0,"","","val",1074.0,"2021-11-23 08:38:30.598887",0.43470949785457497,0.37990497968596737,0.8837530070852876,0.42504942185901573,0.3081895072372882,0.3100747220715441,0.18905358313379642
1.0,0.11122714728116989,0.00010121510698660771,"train",1080.0,"2021-11-23 08:38:33.979919","","","","","","",""
1.0,0.06077952682971954,0.00010200508377956928,"train",1100.0,"2021-11-23 08:38:37.872244","","","","","","",""
1.0,0.08814340084791183,0.00010280933052437993,"train",1120.0,"2021-11-23 08:38:40.895039","","","","","","",""
1.0,0.07038702815771103,0.00010362783498583223,"train",1140.0,"2021-11-23 08:38:43.928401","","","","","","",""
1.0,0.07696966081857681,0.0001044605847118124,"train",1160.0,"2021-11-23 08:38:47.032370","","","","","","",""
1.0,0.07430078834295273,0.0001053075670334907,"train",1180.0,"2021-11-23 08:38:49.969510","","","","","","",""
1.0,0.09186926484107971,0.00010616876906551181,"train",1200.0,"2021-11-23 08:38:52.993145","","","","","","",""
1.0,0.06471096724271774,0.0001070441777061941,"train",1220.0,"2021-11-23 08:38:56.153207","","","","","","",""
1.0,0.08106623589992523,0.00010793377963772563,"train",1240.0,"2021-11-23 08:38:59.339247","","","","","","",""
1.0,0.08824330568313599,0.0001088375613263698,"train",1260.0,"2021-11-23 08:39:02.524661","","","","","","",""
1.0,0.061858169734478,0.00010975550902266908,"train",1280.0,"2021-11-23 08:39:06.333993","","","","","","",""
1.0,0.07285206764936447,0.00011068760876165474,"train",1300.0,"2021-11-23 08:39:09.489355","","","","","","",""
1.0,0.0983542799949646,0.0001116338463630598,"train",1320.0,"2021-11-23 08:39:12.658378","","","","","","",""
1.0,0.07203487306833267,0.00011259420743153455,"train",1340.0,"2021-11-23 08:39:15.761891","","","","","","",""
1.0,0.07810399681329727,0.00011356867735686535,"train",1360.0,"2021-11-23 08:39:18.783074","","","","","","",""
1.0,0.07068049907684326,0.00011455724131419621,"train",1380.0,"2021-11-23 08:39:21.730189","","","","","","",""
1.0,0.0950712114572525,0.00011555988426425654,"train",1400.0,"2021-11-23 08:39:24.721059","","","","","","",""
1.0,0.07353831082582474,0.00011657659095358746,"train",1420.0,"2021-11-23 08:39:27.688715","","","","","","",""
1.0,0.10045066475868225,0.00011760734591477516,"train",1440.0,"2021-11-23 08:39:30.685049","","","","","","",""
1.0,0.05913981422781944,0.00011865213346668618,"train",1460.0,"2021-11-23 08:39:34.297199","","","","","","",""
1.0,0.08818235993385315,0.00011971093771470502,"train",1480.0,"2021-11-23 08:39:37.295341","","","","","","",""
1.0,0.07465676218271255,0.0001207837425509777,"train",1500.0,"2021-11-23 08:39:40.368060","","","","","","",""
1.0,0.0868166908621788,0.00012187053165465503,"train",1520.0,"2021-11-23 08:39:43.541743","","","","","","",""
1.0,0.07843288034200668,0.000122971288492142,"train",1540.0,"2021-11-23 08:39:46.703234","","","","","","",""
1.0,0.08669711649417877,0.00012408599631734863,"train",1560.0,"2021-11-23 08:39:49.697377","","","","","","",""
1.0,0.08470652997493744,0.00012521463817194542,"train",1580.0,"2021-11-23 08:39:52.697818","","","","","","",""
1.0,0.08588545769453049,0.00012635719688562077,"train",1600.0,"2021-11-23 08:39:55.751209","","","","","","",""
1.0,0.07469064742326736,0.00012751365507634267,"train",1620.0,"2021-11-23 08:39:58.909155","","","","","","",""
1.0,0.08142933994531631,0.0001286839951506226,"train",1640.0,"2021-11-23 08:40:02.788915","","","","","","",""
1.0,0.0650155171751976,0.00012986819930378333,"train",1660.0,"2021-11-23 08:40:05.916260","","","","","","",""
1.0,0.0681547299027443,0.00013106624952023064,"train",1680.0,"2021-11-23 08:40:08.938101","","","","","","",""
1.0,0.07909678667783737,0.00013227812757372545,"train",1700.0,"2021-11-23 08:40:11.950616","","","","","","",""
1.0,0.08722350001335144,0.00013350381502766394,"train",1720.0,"2021-11-23 08:40:15.116734","","","","","","",""
1.0,0.08710858970880508,0.00013474329323535494,"train",1740.0,"2021-11-23 08:40:18.298726","","","","","","",""
1.0,0.07286503165960312,0.0001359965433403059,"train",1760.0,"2021-11-23 08:40:21.480660","","","","","","",""
1.0,0.0729285404086113,0.00013726354627650872,"train",1780.0,"2021-11-23 08:40:24.667235","","","","","","",""
1.0,0.07886536419391632,0.00013854428276873052,"train",1800.0,"2021-11-23 08:40:27.829542","","","","","","",""
1.0,0.0736318826675415,0.00013983873333280506,"train",1820.0,"2021-11-23 08:40:31.602410","","","","","","",""
1.0,0.08448056131601334,0.00014114687827593156,"train",1840.0,"2021-11-23 08:40:34.775996","","","","","","",""
1.0,0.0770091563463211,0.00014246869769697352,"train",1860.0,"2021-11-23 08:40:37.946927","","","","","","",""
1.0,0.06077151000499725,0.00014380417148676054,"train",1880.0,"2021-11-23 08:40:41.143600","","","","","","",""
1.0,0.07854019850492477,0.00014515327932839404,"train",1900.0,"2021-11-23 08:40:44.332298","","","","","","",""
1.0,0.06615670770406723,0.0001465160006975598,"train",1920.0,"2021-11-23 08:40:47.493762","","","","","","",""
1.0,0.05889464542269707,0.00014789231486283454,"train",1940.0,"2021-11-23 08:40:50.648718","","","","","","",""
1.0,0.11101880669593811,0.00014928220088600633,"train",1960.0,"2021-11-23 08:40:53.811637","","","","","","",""
1.0,0.07973852753639221,0.00015068563762239045,"train",1980.0,"2021-11-23 08:40:56.872356","","","","","","",""
1.0,0.07802285254001617,0.00015210260372115238,"train",2000.0,"2021-11-23 08:41:00.763030","","","","","","",""
1.0,0.09283611178398132,0.00015353307762563115,"train",2020.0,"2021-11-23 08:41:03.880399","","","","","","",""
1.0,0.057232052087783813,0.00015497703757366872,"train",2040.0,"2021-11-23 08:41:06.894638","","","","","","",""
1.0,0.0855826660990715,0.00015643446159794,"train",2060.0,"2021-11-23 08:41:09.929438","","","","","","",""
1.0,0.07202468067407608,0.0001579053275262887,"train",2080.0,"2021-11-23 08:41:13.095852","","","","","","",""
1.0,0.08227654546499252,0.00015938961298206183,"train",2100.0,"2021-11-23 08:41:16.259991","","","","","","",""
1.0,0.0789247527718544,0.00016088729538445297,"train",2120.0,"2021-11-23 08:41:19.503174","","","","","","",""
1.0,0.07608870416879654,0.000162398351948844,"train",2140.0,"2021-11-23 08:41:22.659699","","","","","","",""
1.0,"","","train",2148.0,"2021-11-23 08:44:47.781394",0.4775813141235538,0.4916532796019304,0.9352527195742811,0.5177334361177294,0.4131830250816831,0.42873209610402313,0.25870421977374536
1.0,"","","val",2148.0,"2021-11-23 08:45:41.409658",0.4621361475124667,0.446482224254906,0.9195823314881134,0.4919276465689428,0.38265464541899163,0.3927587959073169,0.2359648157151985
2.0,0.09131204336881638,0.00016392275968715297,"train",2160.0,"2021-11-23 08:45:46.457023","","","","","","",""
2.0,0.07655427604913712,0.00016546049540818223,"train",2180.0,"2021-11-23 08:45:49.672748","","","","","","",""
2.0,0.06606636196374893,0.00016701153571797313,"train",2200.0,"2021-11-23 08:45:52.820515","","","","","","",""
2.0,0.08819805830717087,0.00016857585702016015,"train",2220.0,"2021-11-23 08:45:55.898770","","","","","","",""
2.0,0.06866250187158585,0.00017015343551633126,"train",2240.0,"2021-11-23 08:45:59.026428","","","","","","",""
2.0,0.06887413561344147,0.0001717442472063892,"train",2260.0,"2021-11-23 08:46:02.139083","","","","","","",""
2.0,0.06630566716194153,0.00017334826788891681,"train",2280.0,"2021-11-23 08:46:05.286811","","","","","","",""
2.0,0.06052582338452339,0.00017496547316154555,"train",2300.0,"2021-11-23 08:46:08.331588","","","","","","",""
2.0,0.09993216395378113,0.00017659583842132573,"train",2320.0,"2021-11-23 08:46:11.335701","","","","","","",""
2.0,0.0942821204662323,0.00017823933886510217,"train",2340.0,"2021-11-23 08:46:15.066873","","","","","","",""
2.0,0.07402544468641281,0.00017989594948989015,"train",2360.0,"2021-11-23 08:46:18.137599","","","","","","",""
2.0,0.0713375136256218,0.00018156564509325753,"train",2380.0,"2021-11-23 08:46:21.205090","","","","","","",""
2.0,0.06993494182825089,0.0001832484002737059,"train",2400.0,"2021-11-23 08:46:24.241931","","","","","","",""
2.0,0.06480883061885834,0.00018494418943105877,"train",2420.0,"2021-11-23 08:46:27.287656","","","","","","",""
2.0,0.0931628867983818,0.00018665298676685078,"train",2440.0,"2021-11-23 08:46:30.301807","","","","","","",""
2.0,0.06437139958143234,0.0001883747662847191,"train",2460.0,"2021-11-23 08:46:33.330798","","","","","","",""
2.0,0.07876097410917282,0.00019010950179080112,"train",2480.0,"2021-11-23 08:46:36.312924","","","","","","",""
2.0,0.061753761023283005,0.00019185716689412995,"train",2500.0,"2021-11-23 08:46:39.419465","","","","","","",""
2.0,0.06416855752468109,0.00019361773500703797,"train",2520.0,"2021-11-23 08:46:43.268623","","","","","","",""
2.0,0.07317795604467392,0.00019539117934556168,"train",2540.0,"2021-11-23 08:46:46.439520","","","","","","",""
2.0,0.06965064257383347,0.00019717747292984696,"train",2560.0,"2021-11-23 08:46:49.571545","","","","","","",""
2.0,0.06793669611215591,0.0001989765885845624,"train",2580.0,"2021-11-23 08:46:52.687403","","","","","","",""
2.0,0.08478346467018127,0.00020078849893931014,"train",2600.0,"2021-11-23 08:46:55.668558","","","","","","",""
2.0,0.04948122054338455,0.0002026131764290434,"train",2620.0,"2021-11-23 08:46:58.798201","","","","","","",""
2.0,0.07312352955341339,0.00020445059329448614,"train",2640.0,"2021-11-23 08:47:01.930808","","","","","","",""
2.0,0.07875143736600876,0.00020630072158255497,"train",2660.0,"2021-11-23 08:47:04.909496","","","","","","",""
2.0,0.07363326847553253,0.00020816353314678467,"train",2680.0,"2021-11-23 08:47:07.919431","","","","","","",""
2.0,0.07258685678243637,0.00021003899964775505,"train",2700.0,"2021-11-23 08:47:11.713366","","","","","","",""
2.0,0.07256060093641281,0.00021192709255352473,"train",2720.0,"2021-11-23 08:47:14.829603","","","","","","",""
2.0,0.07206527143716812,0.00021382778314006255,"train",2740.0,"2021-11-23 08:47:17.923595","","","","","","",""
2.0,0.0861477330327034,0.00021574104249168615,"train",2760.0,"2021-11-23 08:47:21.024162","","","","","","",""
2.0,0.07062673568725586,0.00021766684150150133,"train",2780.0,"2021-11-23 08:47:24.065148","","","","","","",""
2.0,0.09197172522544861,0.00021960515087184485,"train",2800.0,"2021-11-23 08:47:27.196122","","","","","","",""
2.0,0.07646690309047699,0.00022155594111472978,"train",2820.0,"2021-11-23 08:47:30.369031","","","","","","",""
2.0,0.06699219346046448,0.0002235191825522959,"train",2840.0,"2021-11-23 08:47:33.532348","","","","","","",""
2.0,0.07696124166250229,0.00022549484531725838,"train",2860.0,"2021-11-23 08:47:36.759409","","","","","","",""
2.0,0.09639374166727066,0.00022748289935336434,"train",2880.0,"2021-11-23 08:47:40.532668","","","","","","",""
2.0,0.053508512675762177,0.00022948331441584964,"train",2900.0,"2021-11-23 08:47:43.702651","","","","","","",""
2.0,0.05684816092252731,0.00023149606007189785,"train",2920.0,"2021-11-23 08:47:46.886271","","","","","","",""
2.0,0.07396101206541061,0.00023352110570110476,"train",2940.0,"2021-11-23 08:47:50.062823","","","","","","",""
2.0,0.05328681692481041,0.00023555842049594305,"train",2960.0,"2021-11-23 08:47:53.250187","","","","","","",""
2.0,0.05714220553636551,0.00023760797346223305,"train",2980.0,"2021-11-23 08:47:56.427589","","","","","","",""
2.0,0.05725090578198433,0.00023966973341961028,"train",3000.0,"2021-11-23 08:47:59.600719","","","","","","",""
2.0,0.07213635742664337,0.0002417436690020044,"train",3020.0,"2021-11-23 08:48:02.820629","","","","","","",""
2.0,0.08213737607002258,0.00024382974865811325,"train",3040.0,"2021-11-23 08:48:06.045265","","","","","","",""
2.0,0.08205452561378479,0.000245927940651884,"train",3060.0,"2021-11-23 08:48:09.934168","","","","","","",""
2.0,0.0718105137348175,0.0002480382130629953,"train",3080.0,"2021-11-23 08:48:12.936905","","","","","","",""
2.0,0.08585380017757416,0.0002501605337873443,"train",3100.0,"2021-11-23 08:48:15.956410","","","","","","",""
2.0,0.052013058215379715,0.0002522948705375337,"train",3120.0,"2021-11-23 08:48:19.164408","","","","","","",""
2.0,0.07113488763570786,0.00025444119084336303,"train",3140.0,"2021-11-23 08:48:22.363882","","","","","","",""
2.0,0.059246551245450974,0.00025659946205232364,"train",3160.0,"2021-11-23 08:48:25.625329","","","","","","",""
2.0,0.07191367447376251,0.0002587696513300941,"train",3180.0,"2021-11-23 08:48:28.842648","","","","","","",""
2.0,0.07196378707885742,0.0002609517256610412,"train",3200.0,"2021-11-23 08:48:32.003410","","","","","","",""
2.0,0.073158860206604,0.00026314565184872084,"train",3220.0,"2021-11-23 08:48:35.070455","","","","","","",""
2.0,"","","train",3222.0,"2021-11-23 08:52:01.511907",0.502321181692498,0.5414262209170813,0.947105794510516,0.5660795461079978,0.4563771251516396,0.4699322635820314,0.29266607276372203
2.0,"","","val",3222.0,"2021-11-23 08:52:55.657634",0.4826626464107619,0.4854663548891503,0.9309447664826263,0.5383330576892986,0.42030033482230217,0.428539282243506,0.26498331421571614
3.0,0.05816960707306862,0.0002653513965163838,"train",3240.0,"2021-11-23 08:53:01.023521","","","","","","",""
3.0,0.06973796337842941,0.0002675689261074836,"train",3260.0,"2021-11-23 08:53:04.243797","","","","","","",""
3.0,0.07280804961919785,0.00026979820688618605,"train",3280.0,"2021-11-23 08:53:07.396744","","","","","","",""
3.0,0.06115608662366867,0.00027203920493788433,"train",3300.0,"2021-11-23 08:53:10.549573","","","","","","",""
3.0,0.08524898439645767,0.00027429188616971277,"train",3320.0,"2021-11-23 08:53:13.732371","","","","","","",""
3.0,0.0580257922410965,0.0002765562163110668,"train",3340.0,"2021-11-23 08:53:16.857073","","","","","","",""
3.0,0.06165410205721855,0.00027883216091412503,"train",3360.0,"2021-11-23 08:53:19.979237","","","","","","",""
3.0,0.059723783284425735,0.0002811196853543707,"train",3380.0,"2021-11-23 08:53:23.095884","","","","","","",""
3.0,0.050085727125406265,0.00028341875483112134,"train",3400.0,"2021-11-23 08:53:26.217110","","","","","","",""
3.0,0.06654023379087448,0.00028572933436805644,"train",3420.0,"2021-11-23 08:53:29.269633","","","","","","",""
3.0,0.07183423638343811,0.0002880513888137504,"train",3440.0,"2021-11-23 08:53:32.402373","","","","","","",""
3.0,0.057881519198417664,0.0002903848828422063,"train",3460.0,"2021-11-23 08:53:36.237068","","","","","","",""
3.0,0.05779658257961273,0.00029272978095339465,"train",3480.0,"2021-11-23 08:53:39.237665","","","","","","",""
3.0,0.07104773074388504,0.00029508604747379243,"train",3500.0,"2021-11-23 08:53:42.250782","","","","","","",""
3.0,0.061423588544130325,0.00029745364655692653,"train",3520.0,"2021-11-23 08:53:45.266330","","","","","","",""
3.0,0.06802608072757721,0.0002998325421839181,"train",3540.0,"2021-11-23 08:53:48.244822","","","","","","",""
3.0,0.052368566393852234,0.0003022226981640318,"train",3560.0,"2021-11-23 08:53:51.359938","","","","","","",""
3.0,0.07436800003051758,0.00030462407813522494,"train",3580.0,"2021-11-23 08:53:54.497707","","","","","","",""
3.0,0.10127491503953934,0.0003070366455647027,"train",3600.0,"2021-11-23 08:53:57.612961","","","","","","",""
3.0,0.10137877613306046,0.000309460363749471,"train",3620.0,"2021-11-23 08:54:00.722575","","","","","","",""
3.0,0.09252992272377014,0.0003118951958168978,"train",3640.0,"2021-11-23 08:54:03.811197","","","","","","",""
3.0,0.07096420973539352,0.0003143411047252722,"train",3660.0,"2021-11-23 08:54:06.864770","","","","","","",""
3.0,0.07123477756977081,0.0003167980532643691,"train",3680.0,"2021-11-23 08:54:09.842148","","","","","","",""
3.0,0.06207060068845749,0.0003192660040560141,"train",3700.0,"2021-11-23 08:54:13.551387","","","","","","",""
3.0,0.06970643252134323,0.0003217449195546528,"train",3720.0,"2021-11-23 08:54:16.634635","","","","","","",""
3.0,0.08388330787420273,0.00032423476204792244,"train",3740.0,"2021-11-23 08:54:19.625542","","","","","","",""
3.0,0.07543548196554184,0.0003267354936572248,"train",3760.0,"2021-11-23 08:54:22.676385","","","","","","",""
3.0,0.05735297128558159,0.0003292470763383026,"train",3780.0,"2021-11-23 08:54:25.693370","","","","","","",""
3.0,0.09800340235233307,0.0003317694718818192,"train",3800.0,"2021-11-23 08:54:28.688447","","","","","","",""
3.0,0.05543820932507515,0.00033430264191393853,"train",3820.0,"2021-11-23 08:54:31.659116","","","","","","",""
3.0,0.0629969984292984,0.0003368465478969097,"train",3840.0,"2021-11-23 08:54:34.632392","","","","","","",""
3.0,0.07168819010257721,0.0003394011511296533,"train",3860.0,"2021-11-23 08:54:37.667065","","","","","","",""
3.0,0.058390192687511444,0.0003419664127483496,"train",3880.0,"2021-11-23 08:54:40.783185","","","","","","",""
3.0,0.058050431311130524,0.00034454229372703074,"train",3900.0,"2021-11-23 08:54:43.851040","","","","","","",""
3.0,0.07619450986385345,0.00034712875487817314,"train",3920.0,"2021-11-23 08:54:46.870371","","","","","","",""
3.0,0.06239180639386177,0.00034972575685329526,"train",3940.0,"2021-11-23 08:54:50.557976","","","","","","",""
3.0,0.059155311435461044,0.0003523332601435541,"train",3960.0,"2021-11-23 08:54:53.652910","","","","","","",""
3.0,0.07348629087209702,0.00035495122508034916,"train",3980.0,"2021-11-23 08:54:56.790672","","","","","","",""
3.0,0.05504490062594414,0.0003575796118359231,"train",4000.0,"2021-11-23 08:54:59.916694","","","","","","",""
3.0,0.08247604221105576,0.00036021838042396906,"train",4020.0,"2021-11-23 08:55:03.049428","","","","","","",""
3.0,0.0918072983622551,0.0003628674907002389,"train",4040.0,"2021-11-23 08:55:06.199155","","","","","","",""
3.0,0.05548081174492836,0.00036552690236315395,"train",4060.0,"2021-11-23 08:55:09.372078","","","","","","",""
3.0,0.06475076824426651,0.00036819657495441773,"train",4080.0,"2021-11-23 08:55:12.518340","","","","","","",""
3.0,0.08293533325195312,0.0003708764678596317,"train",4100.0,"2021-11-23 08:55:15.738112","","","","","","",""
3.0,0.053952623158693314,0.00037356654030891293,"train",4120.0,"2021-11-23 08:55:18.818600","","","","","","",""
3.0,0.06326034665107727,0.0003762667513775148,"train",4140.0,"2021-11-23 08:55:21.978105","","","","","","",""
3.0,0.057944413274526596,0.0003789770599864498,"train",4160.0,"2021-11-23 08:55:25.848789","","","","","","",""
3.0,0.06535358726978302,0.000381697424903113,"train",4180.0,"2021-11-23 08:55:28.906250","","","","","","",""
3.0,0.06382419168949127,0.0003844278047419108,"train",4200.0,"2021-11-23 08:55:31.998005","","","","","","",""
3.0,0.07587721943855286,0.0003871681579648903,"train",4220.0,"2021-11-23 08:55:35.160543","","","","","","",""
3.0,0.0744352713227272,0.0003899184428823709,"train",4240.0,"2021-11-23 08:55:38.272449","","","","","","",""
3.0,0.04925217106938362,0.0003926786176535783,"train",4260.0,"2021-11-23 08:55:41.262802","","","","","","",""
3.0,0.06803842633962631,0.0003954486402872818,"train",4280.0,"2021-11-23 08:55:44.269248","","","","","","",""
3.0,"","","train",4296.0,"2021-11-23 08:59:12.359087",0.5252855999417886,0.5755575320241669,0.9548416799535839,0.5784563745109694,0.4631362551706632,0.48183816912620975,0.298971854331525
3.0,"","","val",4296.0,"2021-11-23 09:00:05.602777",0.5045227878928448,0.5094972244145876,0.9382129572247943,0.5468011768957565,0.42975775843684577,0.44034373635134727,0.27482027902998485
4.0,0.08757971227169037,0.0003982284686424324,"train",4300.0,"2021-11-23 09:00:08.663615","","","","","","",""
4.0,0.06526356935501099,0.0004010180604288045,"train",4320.0,"2021-11-23 09:00:11.842390","","","","","","",""
4.0,0.07903613895177841,0.00040381737320763873,"train",4340.0,"2021-11-23 09:00:14.865423","","","","","","",""
4.0,0.07669725269079208,0.0004066263643922878,"train",4360.0,"2021-11-23 09:00:17.873324","","","","","","",""
4.0,0.07689015567302704,0.0004094449912488646,"train",4380.0,"2021-11-23 09:00:20.937120","","","","","","",""
4.0,0.05454018712043762,0.0004122732108968923,"train",4400.0,"2021-11-23 09:00:24.813279","","","","","","",""
4.0,0.05621824041008949,0.0004151109803099558,"train",4420.0,"2021-11-23 09:00:27.885804","","","","","","",""
4.0,0.07827167958021164,0.00041795825631635764,"train",4440.0,"2021-11-23 09:00:31.018402","","","","","","",""
4.0,0.05909055098891258,0.0004208149955997739,"train",4460.0,"2021-11-23 09:00:34.100782","","","","","","",""
4.0,0.06502524763345718,0.0004236811546999141,"train",4480.0,"2021-11-23 09:00:37.090212","","","","","","",""
4.0,0.08992631733417511,0.0004265566900131805,"train",4500.0,"2021-11-23 09:00:40.066676","","","","","","",""
4.0,0.0659404844045639,0.0004294415577933337,"train",4520.0,"2021-11-23 09:00:43.060818","","","","","","",""
4.0,0.06301787495613098,0.00043233571415215717,"train",4540.0,"2021-11-23 09:00:46.084981","","","","","","",""
4.0,0.07182148844003677,0.0004352391150601242,"train",4560.0,"2021-11-23 09:00:49.134729","","","","","","",""
4.0,0.07637763023376465,0.0004381517163470684,"train",4580.0,"2021-11-23 09:00:52.153126","","","","","","",""
4.0,0.041799433529376984,0.00044107347370285683,"train",4600.0,"2021-11-23 09:00:55.179685","","","","","","",""
4.0,0.053478073328733444,0.00044400434267806194,"train",4620.0,"2021-11-23 09:00:58.252953","","","","","","",""
4.0,0.06556417793035507,0.00044694427868463907,"train",4640.0,"2021-11-23 09:01:01.974140","","","","","","",""
4.0,0.08046293258666992,0.00044989323699660467,"train",4660.0,"2021-11-23 09:01:05.071414","","","","","","",""
4.0,0.05043256655335426,0.0004528511727507165,"train",4680.0,"2021-11-23 09:01:08.224064","","","","","","",""
4.0,0.06972713768482208,0.00045581804094715645,"train",4700.0,"2021-11-23 09:01:11.281702","","","","","","",""
4.0,0.056735534220933914,0.00045879379645021425,"train",4720.0,"2021-11-23 09:01:14.223059","","","","","","",""
4.0,0.04912018030881882,0.0004617783939889759,"train",4740.0,"2021-11-23 09:01:17.313935","","","","","","",""
4.0,0.07911155372858047,0.0004647717881580103,"train",4760.0,"2021-11-23 09:01:20.433669","","","","","","",""
4.0,0.07993379980325699,0.0004677739334180617,"train",4780.0,"2021-11-23 09:01:23.579101","","","","","","",""
4.0,0.09211118519306183,0.00047078478409674144,"train",4800.0,"2021-11-23 09:01:26.738163","","","","","","",""
4.0,0.06877841055393219,0.00047380429438922305,"train",4820.0,"2021-11-23 09:01:29.835372","","","","","","",""
4.0,0.07138156145811081,0.00047683241835893946,"train",4840.0,"2021-11-23 09:01:32.905107","","","","","","",""
4.0,0.07589559257030487,0.0004798691099382815,"train",4860.0,"2021-11-23 09:01:36.700703","","","","","","",""
4.0,0.05820291489362717,0.0004829143229292986,"train",4880.0,"2021-11-23 09:01:39.916157","","","","","","",""
4.0,0.06819373369216919,0.0004859680110044023,"train",4900.0,"2021-11-23 09:01:43.028257","","","","","","",""
4.0,0.0562320277094841,0.0004890301277070699,"train",4920.0,"2021-11-23 09:01:46.072101","","","","","","",""
4.0,0.053084466606378555,0.0004921006264525525,"train",4940.0,"2021-11-23 09:01:49.084932","","","","","","",""
4.0,0.05332539975643158,0.0004951794605285824,"train",4960.0,"2021-11-23 09:01:52.183178","","","","","","",""
4.0,0.08596371859312057,0.0004982665830960853,"train",4980.0,"2021-11-23 09:01:55.179941","","","","","","",""
4.0,0.05189831182360649,0.0005013619471898913,"train",5000.0,"2021-11-23 09:01:58.198384","","","","","","",""
4.0,0.08289027214050293,0.0005044655057194504,"train",5020.0,"2021-11-23 09:02:01.210744","","","","","","",""
4.0,0.06535931676626205,0.0005075772114695486,"train",5040.0,"2021-11-23 09:02:04.205828","","","","","","",""
4.0,0.04965958371758461,0.0005106970171010257,"train",5060.0,"2021-11-23 09:02:07.194000","","","","","","",""
4.0,0.05379900336265564,0.0005138248751514966,"train",5080.0,"2021-11-23 09:02:10.217112","","","","","","",""
4.0,0.055365271866321564,0.0005169607380360731,"train",5100.0,"2021-11-23 09:02:13.918587","","","","","","",""
4.0,0.06298036873340607,0.000520104558048086,"train",5120.0,"2021-11-23 09:02:17.014160","","","","","","",""
4.0,0.05182189121842384,0.0005232562873598136,"train",5140.0,"2021-11-23 09:02:20.012365","","","","","","",""
4.0,0.08537899702787399,0.0005264158780232072,"train",5160.0,"2021-11-23 09:02:23.037116","","","","","","",""
4.0,0.05430750548839569,0.0005295832819706228,"train",5180.0,"2021-11-23 09:02:26.073307","","","","","","",""
4.0,0.0774189829826355,0.0005327584510155488,"train",5200.0,"2021-11-23 09:02:29.162785","","","","","","",""
4.0,0.0789777860045433,0.000535941336853343,"train",5220.0,"2021-11-23 09:02:32.269983","","","","","","",""
4.0,0.0651802122592926,0.0005391318910619655,"train",5240.0,"2021-11-23 09:02:35.354027","","","","","","",""
4.0,0.06958063691854477,0.0005423300651027144,"train",5260.0,"2021-11-23 09:02:38.436466","","","","","","",""
4.0,0.07409661263227463,0.0005455358103209663,"train",5280.0,"2021-11-23 09:02:41.539802","","","","","","",""
4.0,0.05083327367901802,0.0005487490779469157,"train",5300.0,"2021-11-23 09:02:44.637141","","","","","","",""
4.0,0.06627208739519119,0.000551969819096316,"train",5320.0,"2021-11-23 09:02:47.758380","","","","","","",""
4.0,0.0609174408018589,0.0005551979847712252,"train",5340.0,"2021-11-23 09:02:51.437302","","","","","","",""
4.0,0.08000339567661285,0.0005584335258607489,"train",5360.0,"2021-11-23 09:02:54.488041","","","","","","",""
4.0,"","","train",5370.0,"2021-11-23 09:06:22.370287",0.5343811394891945,0.607903867843643,0.960646079403191,0.605989373901335,0.4938114641722775,0.5089094154452151,0.32062355919172847
4.0,"","","val",5370.0,"2021-11-23 09:07:15.912209",0.5049866635741621,0.5339034517691039,0.9432798603187197,0.5643830147979061,0.44671309442179397,0.4576620178004707,0.2829009229832971
5.0,0.07798972725868225,0.0005616763931417894,"train",5380.0,"2021-11-23 09:07:20.051365","","","","","","",""
5.0,0.07607018202543259,0.0005649265372797939,"train",5400.0,"2021-11-23 09:07:23.327586","","","","","","",""
5.0,0.07973667234182358,0.0005681839088295046,"train",5420.0,"2021-11-23 09:07:26.487059","","","","","","",""
5.0,0.057205457240343094,0.0005714484582357109,"train",5440.0,"2021-11-23 09:07:29.545400","","","","","","",""
5.0,0.050559256225824356,0.0005747201358340048,"train",5460.0,"2021-11-23 09:07:32.677585","","","","","","",""
5.0,0.05518840625882149,0.0005779988918515344,"train",5480.0,"2021-11-23 09:07:36.527120","","","","","","",""
5.0,0.049188192933797836,0.0005812846764077623,"train",5500.0,"2021-11-23 09:07:39.615172","","","","","","",""
5.0,0.07507594674825668,0.0005845774395152243,"train",5520.0,"2021-11-23 09:07:42.745166","","","","","","",""
5.0,0.05803763493895531,0.0005878771310802895,"train",5540.0,"2021-11-23 09:07:45.929895","","","","","","",""
5.0,0.0709620863199234,0.0005911837009039229,"train",5560.0,"2021-11-23 09:07:48.960441","","","","","","",""
5.0,0.03974757343530655,0.0005944970986824485,"train",5580.0,"2021-11-23 09:07:51.994776","","","","","","",""
5.0,0.05558394640684128,0.000597817274008315,"train",5600.0,"2021-11-23 09:07:55.676903","","","","","","",""
5.0,0.04466421157121658,0.0006011441763708635,"train",5620.0,"2021-11-23 09:07:58.724289","","","","","","",""
5.0,0.059903405606746674,0.0006044777551570929,"train",5640.0,"2021-11-23 09:08:01.706754","","","","","","",""
5.0,0.06142108514904976,0.000607817959652434,"train",5660.0,"2021-11-23 09:08:04.730229","","","","","","",""
5.0,0.07133395224809647,0.0006111647390415189,"train",5680.0,"2021-11-23 09:08:07.788147","","","","","","",""
5.0,0.07383645325899124,0.0006145180424089525,"train",5700.0,"2021-11-23 09:08:10.977079","","","","","","",""
5.0,0.05538200959563255,0.0006178778187400902,"train",5720.0,"2021-11-23 09:08:14.865411","","","","","","",""
5.0,0.07361355423927307,0.0006212440169218129,"train",5740.0,"2021-11-23 09:08:17.963524","","","","","","",""
5.0,0.05425691232085228,0.0006246165857433027,"train",5760.0,"2021-11-23 09:08:20.968205","","","","","","",""
5.0,0.07519391179084778,0.0006279954738968251,"train",5780.0,"2021-11-23 09:08:23.952843","","","","","","",""
5.0,0.05631284415721893,0.0006313806299785075,"train",5800.0,"2021-11-23 09:08:26.917403","","","","","","",""
5.0,0.07732617855072021,0.0006347720024891209,"train",5820.0,"2021-11-23 09:08:29.906742","","","","","","",""
5.0,0.057510651648044586,0.0006381695398348657,"train",5840.0,"2021-11-23 09:08:33.611603","","","","","","",""
5.0,0.0617179349064827,0.0006415731903281542,"train",5860.0,"2021-11-23 09:08:36.663426","","","","","","",""
5.0,0.05769684910774231,0.0006449829021883979,"train",5880.0,"2021-11-23 09:08:39.569996","","","","","","",""
5.0,0.10565215349197388,0.0006483986235427956,"train",5900.0,"2021-11-23 09:08:42.541792","","","","","","",""
5.0,0.06612810492515564,0.0006518203024271213,"train",5920.0,"2021-11-23 09:08:45.538872","","","","","","",""
5.0,0.06488385051488876,0.0006552478867865169,"train",5940.0,"2021-11-23 09:08:48.547771","","","","","","",""
5.0,0.07385032624006271,0.0006586813244762815,"train",5960.0,"2021-11-23 09:08:52.293331","","","","","","",""
5.0,0.04067864641547203,0.0006621205632626672,"train",5980.0,"2021-11-23 09:08:55.300908","","","","","","",""
5.0,0.04664669185876846,0.0006655655508236717,"train",6000.0,"2021-11-23 09:08:58.385164","","","","","","",""
5.0,0.04983748123049736,0.0006690162347498356,"train",6020.0,"2021-11-23 09:09:01.566352","","","","","","",""
5.0,0.06340377777814865,0.0006724725625450389,"train",6040.0,"2021-11-23 09:09:04.705417","","","","","","",""
5.0,0.05924161896109581,0.0006759344816273003,"train",6060.0,"2021-11-23 09:09:07.701904","","","","","","",""
5.0,0.044142093509435654,0.0006794019393295771,"train",6080.0,"2021-11-23 09:09:11.306085","","","","","","",""
5.0,0.03955601528286934,0.0006828748829005654,"train",6100.0,"2021-11-23 09:09:14.276597","","","","","","",""
5.0,0.05302722752094269,0.0006863532595055041,"train",6120.0,"2021-11-23 09:09:17.337755","","","","","","",""
5.0,0.07002133131027222,0.0006898370162269777,"train",6140.0,"2021-11-23 09:09:20.347092","","","","","","",""
5.0,0.059781089425086975,0.0006933261000657217,"train",6160.0,"2021-11-23 09:09:23.381280","","","","","","",""
5.0,0.053503770381212234,0.000696820457941429,"train",6180.0,"2021-11-23 09:09:26.381554","","","","","","",""
5.0,0.05139123275876045,0.000700320036693557,"train",6200.0,"2021-11-23 09:09:30.036232","","","","","","",""
5.0,0.05651920288801193,0.0007038247830821358,"train",6220.0,"2021-11-23 09:09:33.019944","","","","","","",""
5.0,0.07456706464290619,0.0007073346437885815,"train",6240.0,"2021-11-23 09:09:36.010311","","","","","","",""
5.0,0.03950738161802292,0.000710849565416502,"train",6260.0,"2021-11-23 09:09:39.005561","","","","","","",""
5.0,0.07581688463687897,0.0007143694944925134,"train",6280.0,"2021-11-23 09:09:42.014337","","","","","","",""
5.0,0.053163934499025345,0.0007178943774670524,"train",6300.0,"2021-11-23 09:09:45.044080","","","","","","",""
5.0,0.059960927814245224,0.0007214241607151901,"train",6320.0,"2021-11-23 09:09:48.704278","","","","","","",""
5.0,0.08313794434070587,0.000724958790537449,"train",6340.0,"2021-11-23 09:09:51.730480","","","","","","",""
5.0,0.07237490266561508,0.0007284982131606195,"train",6360.0,"2021-11-23 09:09:54.838127","","","","","","",""
5.0,0.06340526044368744,0.0007320423747385781,"train",6380.0,"2021-11-23 09:09:57.994545","","","","","","",""
5.0,0.09110482037067413,0.0007355912213531054,"train",6400.0,"2021-11-23 09:10:01.170692","","","","","","",""
5.0,0.0688430517911911,0.000739144699014708,"train",6420.0,"2021-11-23 09:10:04.303626","","","","","","",""
5.0,0.04980617016553879,0.0007427027536634401,"train",6440.0,"2021-11-23 09:10:08.026270","","","","","","",""
5.0,"","","train",6444.0,"2021-11-23 09:13:32.085610",0.5650440224114095,0.6195973700417738,0.9632020269275047,0.6075988421082468,0.4770188252708047,0.5006570573011346,0.3226006433736154
5.0,"","","val",6444.0,"2021-11-23 09:14:25.386873",0.5336889713556767,0.539605075477115,0.9458137008764189,0.5651532659278026,0.43351512956101257,0.448624904721601,0.28636390623699703
6.0,0.05443975701928139,0.0007462653311697235,"train",6460.0,"2021-11-23 09:14:30.400265","","","","","","",""
6.0,0.058308593928813934,0.0007498323773351733,"train",6480.0,"2021-11-23 09:14:33.503053","","","","","","",""
6.0,0.06043360382318497,0.0007534038378934223,"train",6500.0,"2021-11-23 09:14:36.477068","","","","","","",""
6.0,0.06901874393224716,0.0007569796585109453,"train",6520.0,"2021-11-23 09:14:39.462261","","","","","","",""
6.0,0.04920513182878494,0.0007605597847878862,"train",6540.0,"2021-11-23 09:14:42.447044","","","","","","",""
6.0,0.05474906787276268,0.0007641441622588871,"train",6560.0,"2021-11-23 09:14:46.157685","","","","","","",""
6.0,0.052751295268535614,0.0007677327363939143,"train",6580.0,"2021-11-23 09:14:49.141439","","","","","","",""
6.0,0.0658474937081337,0.0007713254525990895,"train",6600.0,"2021-11-23 09:14:52.145760","","","","","","",""
6.0,0.07144851982593536,0.0007749222562175211,"train",6620.0,"2021-11-23 09:14:55.130603","","","","","","",""
6.0,0.04728833585977554,0.000778523092530133,"train",6640.0,"2021-11-23 09:14:58.122944","","","","","","",""
6.0,0.05365797504782677,0.0007821279067564996,"train",6660.0,"2021-11-23 09:15:01.132468","","","","","","",""
6.0,0.038329530507326126,0.0007857366440556786,"train",6680.0,"2021-11-23 09:15:04.851197","","","","","","",""
6.0,0.04875049367547035,0.0007893492495270442,"train",6700.0,"2021-11-23 09:15:07.929163","","","","","","",""
6.0,0.06334592401981354,0.0007929656682111239,"train",6720.0,"2021-11-23 09:15:10.976257","","","","","","",""
6.0,0.05620027333498001,0.0007965858450904332,"train",6740.0,"2021-11-23 09:15:14.010257","","","","","","",""
6.0,0.08506239950656891,0.000800209725090314,"train",6760.0,"2021-11-23 09:15:17.055947","","","","","","",""
6.0,0.059714917093515396,0.0008038372530797706,"train",6780.0,"2021-11-23 09:15:20.204871","","","","","","",""
6.0,0.036342501640319824,0.0008074683738723109,"train",6800.0,"2021-11-23 09:15:23.967815","","","","","","",""
6.0,0.06619855761528015,0.0008111030322267832,"train",6820.0,"2021-11-23 09:15:27.048547","","","","","","",""
6.0,0.03909672424197197,0.0008147411728482187,"train",6840.0,"2021-11-23 09:15:30.161058","","","","","","",""
6.0,0.04242078214883804,0.0008183827403886721,"train",6860.0,"2021-11-23 09:15:33.334820","","","","","","",""
6.0,0.04647611826658249,0.0008220276794480633,"train",6880.0,"2021-11-23 09:15:36.455786","","","","","","",""
6.0,0.056960176676511765,0.0008256759345750203,"train",6900.0,"2021-11-23 09:15:39.492864","","","","","","",""
6.0,0.0591510608792305,0.0008293274502677234,"train",6920.0,"2021-11-23 09:15:43.254802","","","","","","",""
6.0,0.04645905643701553,0.0008329821709747486,"train",6940.0,"2021-11-23 09:15:46.365551","","","","","","",""
6.0,0.06729988753795624,0.0008366400410959136,"train",6960.0,"2021-11-23 09:15:49.482204","","","","","","",""
6.0,0.045594386756420135,0.000840301004983123,"train",6980.0,"2021-11-23 09:15:52.582151","","","","","","",""
6.0,0.0457480326294899,0.0008439650069412147,"train",7000.0,"2021-11-23 09:15:55.524311","","","","","","",""
6.0,0.04414619877934456,0.0008476319912288095,"train",7020.0,"2021-11-23 09:15:58.568538","","","","","","",""
6.0,0.048280682414770126,0.0008513019020591544,"train",7040.0,"2021-11-23 09:16:02.199805","","","","","","",""
6.0,0.04471736401319504,0.0008549746836009771,"train",7060.0,"2021-11-23 09:16:05.206970","","","","","","",""
6.0,0.046120237559080124,0.0008586502799793306,"train",7080.0,"2021-11-23 09:16:08.208196","","","","","","",""
6.0,0.08145608007907867,0.0008623286352764453,"train",7100.0,"2021-11-23 09:16:11.266894","","","","","","",""
6.0,0.0824211984872818,0.0008660096935325802,"train",7120.0,"2021-11-23 09:16:14.278269","","","","","","",""
6.0,0.065097376704216,0.0008696933987468731,"train",7140.0,"2021-11-23 09:16:17.305747","","","","","","",""
6.0,0.07238689810037613,0.0008733796948781924,"train",7160.0,"2021-11-23 09:16:21.155813","","","","","","",""
6.0,0.039676226675510406,0.0008770685258459915,"train",7180.0,"2021-11-23 09:16:24.426382","","","","","","",""
6.0,0.052268847823143005,0.0008807598355311595,"train",7200.0,"2021-11-23 09:16:27.511365","","","","","","",""
6.0,0.06548460572957993,0.0008844535677768764,"train",7220.0,"2021-11-23 09:16:30.588679","","","","","","",""
6.0,0.08970258384943008,0.0008881496663894681,"train",7240.0,"2021-11-23 09:16:33.613913","","","","","","",""
6.0,0.04463512822985649,0.0008918480751392592,"train",7260.0,"2021-11-23 09:16:36.680844","","","","","","",""
6.0,0.04807299003005028,0.00089554873776143,"train",7280.0,"2021-11-23 09:16:40.390494","","","","","","",""
6.0,0.050641968846321106,0.0008992515979568724,"train",7300.0,"2021-11-23 09:16:43.513479","","","","","","",""
6.0,0.060639895498752594,0.0009029565993930457,"train",7320.0,"2021-11-23 09:16:46.809505","","","","","","",""
6.0,0.08550503104925156,0.0009066636857048339,"train",7340.0,"2021-11-23 09:16:49.909049","","","","","","",""
6.0,0.05020159110426903,0.0009103728004954039,"train",7360.0,"2021-11-23 09:16:53.050112","","","","","","",""
6.0,0.06656464189291,0.0009140838873370617,"train",7380.0,"2021-11-23 09:16:56.113723","","","","","","",""
6.0,0.08113864809274673,0.0009177968897721136,"train",7400.0,"2021-11-23 09:16:59.882516","","","","","","",""
6.0,0.04831443727016449,0.0009215117513137218,"train",7420.0,"2021-11-23 09:17:02.903586","","","","","","",""
6.0,0.08408842235803604,0.0009252284154467663,"train",7440.0,"2021-11-23 09:17:05.916764","","","","","","",""
6.0,0.04291336610913277,0.0009289468256287042,"train",7460.0,"2021-11-23 09:17:08.986591","","","","","","",""
6.0,0.06829599291086197,0.0009326669252904287,"train",7480.0,"2021-11-23 09:17:12.039094","","","","","","",""
6.0,0.07808283716440201,0.0009363886578371307,"train",7500.0,"2021-11-23 09:17:15.066234","","","","","","",""
6.0,"","","train",7518.0,"2021-11-23 09:20:44.510723",0.5897984428436295,0.6552373904556751,0.967500718116892,0.6281253492189903,0.5388439485287727,0.5536726606642802,0.3669675911208701
6.0,"","","val",7518.0,"2021-11-23 09:21:38.251395",0.5510843094050795,0.5698559309963597,0.9504842976320407,0.5811643676551425,0.48919208381371365,0.5002037909625976,0.32085815014818464
7.0,0.04964670166373253,0.0009401119666491604,"train",7520.0,"2021-11-23 09:21:41.048675","","","","","","",""
7.0,0.04170597344636917,0.0009438367950828869,"train",7540.0,"2021-11-23 09:21:44.480995","","","","","","",""
7.0,0.05070111155509949,0.000947563086471561,"train",7560.0,"2021-11-23 09:21:47.571226","","","","","","",""
7.0,0.08379978686571121,0.0009512907841261783,"train",7580.0,"2021-11-23 09:21:50.790287","","","","","","",""
7.0,0.07956021279096603,0.0009550198313363391,"train",7600.0,"2021-11-23 09:21:54.048719","","","","","","",""
7.0,0.04690578579902649,0.0009587501713711128,"train",7620.0,"2021-11-23 09:21:57.074481","","","","","","",""
7.0,0.048841699957847595,0.0009624817474799023,"train",7640.0,"2021-11-23 09:22:00.826693","","","","","","",""
7.0,0.04176397621631622,0.0009662145028933038,"train",7660.0,"2021-11-23 09:22:03.821562","","","","","","",""
7.0,0.04548422992229462,0.0009699483808239733,"train",7680.0,"2021-11-23 09:22:06.929668","","","","","","",""
7.0,0.061022184789180756,0.0009736833244674895,"train",7700.0,"2021-11-23 09:22:10.034802","","","","","","",""
7.0,0.07920630276203156,0.0009774192770032192,"train",7720.0,"2021-11-23 09:22:13.170095","","","","","","",""
7.0,0.07471559941768646,0.0009811561815951785,"train",7740.0,"2021-11-23 09:22:16.174266","","","","","","",""
7.0,0.049406345933675766,0.0009848939813929015,"train",7760.0,"2021-11-23 09:22:19.846346","","","","","","",""
7.0,0.08096237480640411,0.0009886326195323026,"train",7780.0,"2021-11-23 09:22:22.897833","","","","","","",""
7.0,0.08512786030769348,0.0009923720391365428,"train",7800.0,"2021-11-23 09:22:25.974096","","","","","","",""
7.0,0.08198107779026031,0.000996112183316893,"train",7820.0,"2021-11-23 09:22:29.002492","","","","","","",""
7.0,0.07866623252630234,0.0009998529951736029,"train",7840.0,"2021-11-23 09:22:32.067774","","","","","","",""
7.0,0.07798158377408981,0.0010035944177967638,"train",7860.0,"2021-11-23 09:22:35.155421","","","","","","",""
7.0,0.05761182680726051,0.0010073363942671744,"train",7880.0,"2021-11-23 09:22:38.840054","","","","","","",""
7.0,0.039323341101408005,0.0010110788676572094,"train",7900.0,"2021-11-23 09:22:41.907969","","","","","","",""
7.0,0.04574200138449669,0.0010148217810316822,"train",7920.0,"2021-11-23 09:22:44.931376","","","","","","",""
7.0,0.051139503717422485,0.0010185650774487127,"train",7940.0,"2021-11-23 09:22:47.942269","","","","","","",""
7.0,0.08858933299779892,0.0010223086999605951,"train",7960.0,"2021-11-23 09:22:50.962937","","","","","","",""
7.0,0.04682152718305588,0.0010260525916146609,"train",7980.0,"2021-11-23 09:22:54.204343","","","","","","",""
7.0,0.05653662234544754,0.0010297966954541469,"train",8000.0,"2021-11-23 09:22:58.060480","","","","","","",""
7.0,0.04606243595480919,0.001033540954519064,"train",8020.0,"2021-11-23 09:23:01.209095","","","","","","",""
7.0,0.06939338147640228,0.0010372853118470592,"train",8040.0,"2021-11-23 09:23:04.410735","","","","","","",""
7.0,0.08764173835515976,0.0010410297104742857,"train",8060.0,"2021-11-23 09:23:07.599421","","","","","","",""
7.0,0.043180156499147415,0.0010447740934362692,"train",8080.0,"2021-11-23 09:23:10.768212","","","","","","",""
7.0,0.0900709331035614,0.0010485184037687715,"train",8100.0,"2021-11-23 09:23:13.965629","","","","","","",""
7.0,0.1011197417974472,0.0010522625845086615,"train",8120.0,"2021-11-23 09:23:17.776128","","","","","","",""
7.0,0.047122836112976074,0.0010560065786947796,"train",8140.0,"2021-11-23 09:23:20.883768","","","","","","",""
7.0,0.06012663617730141,0.0010597503293688013,"train",8160.0,"2021-11-23 09:23:24.065650","","","","","","",""
7.0,0.052249010652303696,0.001063493779576111,"train",8180.0,"2021-11-23 09:23:27.255453","","","","","","",""
7.0,0.04668501019477844,0.0010672368723666614,"train",8200.0,"2021-11-23 09:23:30.394347","","","","","","",""
7.0,0.04810910299420357,0.0010709795507958426,"train",8220.0,"2021-11-23 09:23:33.636220","","","","","","",""
7.0,0.073702871799469,0.0010747217579253504,"train",8240.0,"2021-11-23 09:23:37.356982","","","","","","",""
7.0,0.05905785411596298,0.0010784634368240487,"train",8260.0,"2021-11-23 09:23:40.420091","","","","","","",""
7.0,0.07719282060861588,0.0010822045305688382,"train",8280.0,"2021-11-23 09:23:43.428129","","","","","","",""
7.0,0.059299323707818985,0.0010859449822455227,"train",8300.0,"2021-11-23 09:23:46.454170","","","","","","",""
7.0,0.053682781755924225,0.001089684734949672,"train",8320.0,"2021-11-23 09:23:49.510569","","","","","","",""
7.0,0.04452042281627655,0.00109342373178749,"train",8340.0,"2021-11-23 09:23:52.571012","","","","","","",""
7.0,0.05368413031101227,0.0010971619158766821,"train",8360.0,"2021-11-23 09:23:56.305470","","","","","","",""
7.0,0.04273363947868347,0.0011008992303473152,"train",8380.0,"2021-11-23 09:23:59.360825","","","","","","",""
7.0,0.0430341474711895,0.001104635618342687,"train",8400.0,"2021-11-23 09:24:02.430192","","","","","","",""
7.0,0.04763032868504524,0.001108371023020191,"train",8420.0,"2021-11-23 09:24:05.562339","","","","","","",""
7.0,0.0539231151342392,0.0011121053875521787,"train",8440.0,"2021-11-23 09:24:08.722592","","","","","","",""
7.0,0.06144973263144493,0.0011158386551268257,"train",8460.0,"2021-11-23 09:24:11.836026","","","","","","",""
7.0,0.051327962428331375,0.0011195707689489972,"train",8480.0,"2021-11-23 09:24:15.595129","","","","","","",""
7.0,0.04992935061454773,0.0011233016722411097,"train",8500.0,"2021-11-23 09:24:18.746377","","","","","","",""
7.0,0.04521163925528526,0.0011270313082439951,"train",8520.0,"2021-11-23 09:24:21.956582","","","","","","",""
7.0,0.05969660356640816,0.001130759620217767,"train",8540.0,"2021-11-23 09:24:25.104971","","","","","","",""
7.0,0.054878246039152145,0.0011344865514426794,"train",8560.0,"2021-11-23 09:24:28.230456","","","","","","",""
7.0,0.06311194598674774,0.0011382120452199938,"train",8580.0,"2021-11-23 09:24:31.394039","","","","","","",""
7.0,"","","train",8592.0,"2021-11-23 09:27:59.101991",0.5961143855053482,0.676482299888804,0.971100046052488,0.6373666631074993,0.5124692067718712,0.5336233222805343,0.35275271515607
7.0,"","","val",8592.0,"2021-11-23 09:28:52.751432",0.5560129885190769,0.5821897049206239,0.9540160363209492,0.5859694642515351,0.4582853530740285,0.47233616309709,0.30499159786076985
8.0,0.08877573162317276,0.001141936044872839,"train",8600.0,"2021-11-23 09:28:56.583823","","","","","","",""
8.0,0.058831747621297836,0.0011456584937470744,"train",8620.0,"2021-11-23 09:28:59.862401","","","","","","",""
8.0,0.06007445976138115,0.0011493793352121522,"train",8640.0,"2021-11-23 09:29:02.998054","","","","","","",""
8.0,0.06922876834869385,0.0011530985126619784,"train",8660.0,"2021-11-23 09:29:06.128603","","","","","","",""
8.0,0.06808716058731079,0.001156815969515773,"train",8680.0,"2021-11-23 09:29:09.223042","","","","","","",""
8.0,0.03346801549196243,0.001160531649218934,"train",8700.0,"2021-11-23 09:29:12.500336","","","","","","",""
8.0,0.05276650935411453,0.001164245495243894,"train",8720.0,"2021-11-23 09:29:16.433361","","","","","","",""
8.0,0.04321472346782684,0.0011679574510909817,"train",8740.0,"2021-11-23 09:29:19.593083","","","","","","",""
8.0,0.041401129215955734,0.0011716674602892828,"train",8760.0,"2021-11-23 09:29:22.744751","","","","","","",""
8.0,0.04353329911828041,0.0011753754663974968,"train",8780.0,"2021-11-23 09:29:25.834783","","","","","","",""
8.0,0.057036545127630234,0.0011790814130047968,"train",8800.0,"2021-11-23 09:29:28.857312","","","","","","",""
8.0,0.042097706347703934,0.001182785243731688,"train",8820.0,"2021-11-23 09:29:31.835806","","","","","","",""
8.0,0.046880632638931274,0.0011864869022308656,"train",8840.0,"2021-11-23 09:29:35.442322","","","","","","",""
8.0,0.06493961811065674,0.0011901863321880693,"train",8860.0,"2021-11-23 09:29:38.408762","","","","","","",""
8.0,0.041363902390003204,0.001193883477322945,"train",8880.0,"2021-11-23 09:29:41.367392","","","","","","",""
8.0,0.036286745220422745,0.0011975782813898961,"train",8900.0,"2021-11-23 09:29:44.478670","","","","","","",""
8.0,0.03525939956307411,0.0012012706881789417,"train",8920.0,"2021-11-23 09:29:47.667567","","","","","","",""
8.0,0.06695114821195602,0.001204960641516572,"train",8940.0,"2021-11-23 09:29:50.812527","","","","","","",""
8.0,0.05222131684422493,0.0012086480852666014,"train",8960.0,"2021-11-23 09:29:54.549875","","","","","","",""
8.0,0.048579830676317215,0.0012123329633310235,"train",8980.0,"2021-11-23 09:29:57.711630","","","","","","",""
8.0,0.05007876083254814,0.0012160152196508643,"train",9000.0,"2021-11-23 09:30:00.792247","","","","","","",""
8.0,0.052375610917806625,0.0012196947982070355,"train",9020.0,"2021-11-23 09:30:03.788013","","","","","","",""
8.0,0.05756843835115433,0.0012233716430211856,"train",9040.0,"2021-11-23 09:30:06.851041","","","","","","",""
8.0,0.03636762127280235,0.001227045698156553,"train",9060.0,"2021-11-23 09:30:09.921350","","","","","","",""
8.0,0.052237048745155334,0.0012307169077188148,"train",9080.0,"2021-11-23 09:30:13.612568","","","","","","",""
8.0,0.06891253590583801,0.0012343852158569401,"train",9100.0,"2021-11-23 09:30:16.727030","","","","","","",""
8.0,0.03406692296266556,0.0012380505667640377,"train",9120.0,"2021-11-23 09:30:19.863076","","","","","","",""
8.0,0.04689939320087433,0.0012417129046782046,"train",9140.0,"2021-11-23 09:30:23.036101","","","","","","",""
8.0,0.06862042099237442,0.0012453721738833758,"train",9160.0,"2021-11-23 09:30:26.188664","","","","","","",""
8.0,0.07539353519678116,0.001249028318710172,"train",9180.0,"2021-11-23 09:30:29.308164","","","","","","",""
8.0,0.0646151453256607,0.0012526812835367447,"train",9200.0,"2021-11-23 09:30:33.156212","","","","","","",""
8.0,0.05865413695573807,0.0012563310127896242,"train",9220.0,"2021-11-23 09:30:36.304295","","","","","","",""
8.0,0.053665753453969955,0.0012599774509445645,"train",9240.0,"2021-11-23 09:30:39.447491","","","","","","",""
8.0,0.06286057084798813,0.0012636205425273874,"train",9260.0,"2021-11-23 09:30:42.605157","","","","","","",""
8.0,0.05052250996232033,0.0012672602321148268,"train",9280.0,"2021-11-23 09:30:45.748227","","","","","","",""
8.0,0.04859769344329834,0.0012708964643353732,"train",9300.0,"2021-11-23 09:30:48.954397","","","","","","",""
8.0,0.059211816638708115,0.001274529183870114,"train",9320.0,"2021-11-23 09:30:52.641325","","","","","","",""
8.0,0.060587938874959946,0.0012781583354535748,"train",9340.0,"2021-11-23 09:30:55.807991","","","","","","",""
8.0,0.049595292657613754,0.0012817838638745646,"train",9360.0,"2021-11-23 09:30:58.884114","","","","","","",""
8.0,0.06251315772533417,0.001285405713977009,"train",9380.0,"2021-11-23 09:31:01.931947","","","","","","",""
8.0,0.07468850165605545,0.0012890238306607947,"train",9400.0,"2021-11-23 09:31:05.034116","","","","","","",""
8.0,0.04881293699145317,0.001292638158882606,"train",9420.0,"2021-11-23 09:31:08.060685","","","","","","",""
8.0,0.06482889503240585,0.0012962486436567603,"train",9440.0,"2021-11-23 09:31:11.636765","","","","","","",""
8.0,0.06657087802886963,0.0012998552300560484,"train",9460.0,"2021-11-23 09:31:14.617115","","","","","","",""
8.0,0.03764846920967102,0.0013034578632125668,"train",9480.0,"2021-11-23 09:31:17.595057","","","","","","",""
8.0,0.05433955788612366,0.0013070564883185534,"train",9500.0,"2021-11-23 09:31:20.577821","","","","","","",""
8.0,0.05649064481258392,0.001310651050627223,"train",9520.0,"2021-11-23 09:31:23.564786","","","","","","",""
8.0,0.04722072184085846,0.001314241495453598,"train",9540.0,"2021-11-23 09:31:26.533111","","","","","","",""
8.0,0.07658468931913376,0.00131782776817534,"train",9560.0,"2021-11-23 09:31:30.313382","","","","","","",""
8.0,0.05345692113041878,0.0013214098142335837,"train",9580.0,"2021-11-23 09:31:33.310123","","","","","","",""
8.0,0.06240502744913101,0.001324987579133764,"train",9600.0,"2021-11-23 09:31:36.273118","","","","","","",""
8.0,0.07328099757432938,0.0013285610084464463,"train",9620.0,"2021-11-23 09:31:39.209982","","","","","","",""
8.0,0.08189966529607773,0.001332130047808155,"train",9640.0,"2021-11-23 09:31:42.338082","","","","","","",""
8.0,0.05953402817249298,0.001335694642922199,"train",9660.0,"2021-11-23 09:31:45.496673","","","","","","",""
8.0,"","","train",9666.0,"2021-11-23 09:35:12.803515",0.5828276213344976,0.6927489026189622,0.9728702366155235,0.6557191664751175,0.5361151944826619,0.5614658137323022,0.36695604689883066
8.0,"","","val",9666.0,"2021-11-23 09:36:06.315068",0.5433143917430129,0.5886337124316289,0.9559136706136667,0.59943772049562,0.47101000298200546,0.4913652912521954,0.3065210214755203
9.0,0.04091032221913338,0.0013392547395594985,"train",9680.0,"2021-11-23 09:36:11.072091","","","","","","",""
9.0,0.057349905371665955,0.001342810283559412,"train",9700.0,"2021-11-23 09:36:14.269914","","","","","","",""
9.0,0.05754121020436287,0.0013463612208305564,"train",9720.0,"2021-11-23 09:36:17.485605","","","","","","",""
9.0,0.04757179319858551,0.0013499074973516321,"train",9740.0,"2021-11-23 09:36:20.626584","","","","","","",""
9.0,0.054052241146564484,0.0013534490591722464,"train",9760.0,"2021-11-23 09:36:23.842203","","","","","","",""
9.0,0.06534220278263092,0.0013569858524137305,"train",9780.0,"2021-11-23 09:36:27.093637","","","","","","",""
9.0,0.04852469265460968,0.001360517823269962,"train",9800.0,"2021-11-23 09:36:30.346068","","","","","","",""
9.0,0.0806228518486023,0.0013640449180081834,"train",9820.0,"2021-11-23 09:36:34.131173","","","","","","",""
9.0,0.07687439024448395,0.0013675670829698173,"train",9840.0,"2021-11-23 09:36:37.261060","","","","","","",""
9.0,0.039740949869155884,0.0013710842645712853,"train",9860.0,"2021-11-23 09:36:40.388323","","","","","","",""
9.0,0.07643069326877594,0.0013745964093048219,"train",9880.0,"2021-11-23 09:36:43.497611","","","","","","",""
9.0,0.06336823850870132,0.0013781034637392886,"train",9900.0,"2021-11-23 09:36:46.606970","","","","","","",""
9.0,0.08685319870710373,0.0013816053745209864,"train",9920.0,"2021-11-23 09:36:49.712670","","","","","","",""
9.0,0.0430869422852993,0.0013851020883744697,"train",9940.0,"2021-11-23 09:36:52.913871","","","","","","",""
9.0,0.04316728934645653,0.001388593552103353,"train",9960.0,"2021-11-23 09:36:56.745435","","","","","","",""
9.0,0.04336266592144966,0.0013920797125911233,"train",9980.0,"2021-11-23 09:36:59.872279","","","","","","",""
9.0,0.05746767297387123,0.001395560516801947,"train",10000.0,"2021-11-23 09:37:02.987646","","","","","","",""
9.0,0.044204749166965485,0.0013990359117814774,"train",10020.0,"2021-11-23 09:37:06.094461","","","","","","",""
9.0,0.0548589788377285,0.0014025058446576583,"train",10040.0,"2021-11-23 09:37:09.368924","","","","","","",""
9.0,0.056014254689216614,0.0014059702626415317,"train",10060.0,"2021-11-23 09:37:12.494509","","","","","","",""
9.0,0.036121707409620285,0.0014094291130280377,"train",10080.0,"2021-11-23 09:37:15.597186","","","","","","",""
9.0,0.07166586071252823,0.0014128823431968183,"train",10100.0,"2021-11-23 09:37:19.295621","","","","","","",""
9.0,0.07091297209262848,0.001416329900613017,"train",10120.0,"2021-11-23 09:37:22.321175","","","","","","",""
9.0,0.040643688291311264,0.0014197717328280782,"train",10140.0,"2021-11-23 09:37:25.203155","","","","","","",""
9.0,0.07034025341272354,0.0014232077874805457,"train",10160.0,"2021-11-23 09:37:28.192787","","","","","","",""
9.0,0.044899217784404755,0.0014266380122968589,"train",10180.0,"2021-11-23 09:37:31.285990","","","","","","",""
9.0,0.03832107409834862,0.0014300623550921468,"train",10200.0,"2021-11-23 09:37:34.372984","","","","","","",""
9.0,0.049339186400175095,0.0014334807637710243,"train",10220.0,"2021-11-23 09:37:37.368620","","","","","","",""
9.0,0.06970451027154922,0.0014368931863283831,"train",10240.0,"2021-11-23 09:37:41.094272","","","","","","",""
9.0,0.050237126648426056,0.0014402995708501826,"train",10260.0,"2021-11-23 09:37:44.146401","","","","","","",""
9.0,0.04581568390130997,0.0014436998655142422,"train",10280.0,"2021-11-23 09:37:47.143352","","","","","","",""
9.0,0.04653504490852356,0.0014470940185910258,"train",10300.0,"2021-11-23 09:37:50.326754","","","","","","",""
9.0,0.043382544070482254,0.001450481978444431,"train",10320.0,"2021-11-23 09:37:53.504376","","","","","","",""
9.0,0.09322018176317215,0.0014538636935325763,"train",10340.0,"2021-11-23 09:37:56.661919","","","","","","",""
9.0,0.06944885104894638,0.0014572391124085817,"train",10360.0,"2021-11-23 09:37:59.846625","","","","","","",""
9.0,0.04957466945052147,0.0014606081837213525,"train",10380.0,"2021-11-23 09:38:03.029799","","","","","","",""
9.0,0.05364764481782913,0.0014639708562163639,"train",10400.0,"2021-11-23 09:38:06.794683","","","","","","",""
9.0,0.0785546600818634,0.001467327078736435,"train",10420.0,"2021-11-23 09:38:09.880986","","","","","","",""
9.0,0.046183664351701736,0.0014706768002225108,"train",10440.0,"2021-11-23 09:38:12.942413","","","","","","",""
9.0,0.048203129321336746,0.0014740199697144392,"train",10460.0,"2021-11-23 09:38:16.004087","","","","","","",""
9.0,0.05997001752257347,0.0014773565363517442,"train",10480.0,"2021-11-23 09:38:19.000323","","","","","","",""
9.0,0.06474705785512924,0.0014806864493744007,"train",10500.0,"2021-11-23 09:38:22.008598","","","","","","",""
9.0,0.05206702649593353,0.0014840096581236072,"train",10520.0,"2021-11-23 09:38:25.116427","","","","","","",""
9.0,0.07147102802991867,0.001487326112042556,"train",10540.0,"2021-11-23 09:38:29.049518","","","","","","",""
9.0,0.04935144633054733,0.0014906357606772013,"train",10560.0,"2021-11-23 09:38:32.197898","","","","","","",""
9.0,0.06413187831640244,0.0014939385536770291,"train",10580.0,"2021-11-23 09:38:35.368147","","","","","","",""
9.0,0.051886722445487976,0.0014972344407958218,"train",10600.0,"2021-11-23 09:38:38.473936","","","","","","",""
9.0,0.07375819236040115,0.0015005233718924213,"train",10620.0,"2021-11-23 09:38:41.543246","","","","","","",""
9.0,0.06778983771800995,0.0015038052969314946,"train",10640.0,"2021-11-23 09:38:44.517536","","","","","","",""
9.0,0.07154331356287003,0.0015070801659842939,"train",10660.0,"2021-11-23 09:38:47.554343","","","","","","",""
9.0,0.051074303686618805,0.001510347929229414,"train",10680.0,"2021-11-23 09:38:51.212390","","","","","","",""
9.0,0.04681679978966713,0.0015136085369535537,"train",10700.0,"2021-11-23 09:38:54.216936","","","","","","",""
9.0,0.07613752782344818,0.0015168619395522708,"train",10720.0,"2021-11-23 09:38:57.257834","","","","","","",""
9.0,0.05369586870074272,0.0015201080875307349,"train",10740.0,"2021-11-23 09:39:00.170595","","","","","","",""
9.0,"","","train",10740.0,"2021-11-23 09:42:23.720240",0.6158771738339518,0.6956484672599392,0.9732691032335067,0.6680744990793646,0.5531185834047005,0.5747069291160607,0.3845409887691523
9.0,"","","val",10740.0,"2021-11-23 09:43:16.816171",0.5685956163748116,0.5906490492403791,0.954776589050126,0.6104130026173359,0.48866996240468585,0.508278251488077,0.3225757030100631
10.0,0.06280459463596344,0.0015233469315044834,"train",10760.0,"2021-11-23 09:43:22.490284","","","","","","",""
10.0,0.041405558586120605,0.0015265784222001709,"train",10780.0,"2021-11-23 09:43:25.673719","","","","","","",""
10.0,0.06055530160665512,0.0015298025104563185,"train",10800.0,"2021-11-23 09:43:28.917382","","","","","","",""
10.0,0.033317483961582184,0.001533019147224064,"train",10820.0,"2021-11-23 09:43:32.842680","","","","","","",""
10.0,0.042389292269945145,0.0015362282835679054,"train",10840.0,"2021-11-23 09:43:35.914115","","","","","","",""
10.0,0.0750780925154686,0.0015394298706664469,"train",10860.0,"2021-11-23 09:43:39.064753","","","","","","",""
10.0,0.057790886610746384,0.001542623859813141,"train",10880.0,"2021-11-23 09:43:42.208605","","","","","","",""
10.0,0.04184066504240036,0.00154581020241703,"train",10900.0,"2021-11-23 09:43:45.337474","","","","","","",""
10.0,0.03639993444085121,0.0015489888500034858,"train",10920.0,"2021-11-23 09:43:48.367676","","","","","","",""
10.0,0.06051279604434967,0.0015521597542149444,"train",10940.0,"2021-11-23 09:43:51.376222","","","","","","",""
10.0,0.060810402035713196,0.0015553228668116455,"train",10960.0,"2021-11-23 09:43:54.969306","","","","","","",""
10.0,0.05624300613999367,0.0015584781396723642,"train",10980.0,"2021-11-23 09:43:57.886838","","","","","","",""
10.0,0.0503702238202095,0.0015616255247951432,"train",11000.0,"2021-11-23 09:44:00.934250","","","","","","",""
10.0,0.04479983076453209,0.0015647649742980233,"train",11020.0,"2021-11-23 09:44:03.908034","","","","","","",""
10.0,0.07098136097192764,0.0015678964404197727,"train",11040.0,"2021-11-23 09:44:06.867411","","","","","","",""
10.0,0.0562673918902874,0.0015710198755206112,"train",11060.0,"2021-11-23 09:44:09.925016","","","","","","",""
10.0,0.06764060258865356,0.0015741352320829379,"train",11080.0,"2021-11-23 09:44:12.830934","","","","","","",""
10.0,0.033353500068187714,0.0015772424627120527,"train",11100.0,"2021-11-23 09:44:15.728376","","","","","","",""
10.0,0.04159940406680107,0.0015803415201368761,"train",11120.0,"2021-11-23 09:44:19.302249","","","","","","",""
10.0,0.05649341642856598,0.001583432357210671,"train",11140.0,"2021-11-23 09:44:22.180557","","","","","","",""
10.0,0.05038868635892868,0.001586514926911758,"train",11160.0,"2021-11-23 09:44:25.053860","","","","","","",""
10.0,0.041867922991514206,0.0015895891823442313,"train",11180.0,"2021-11-23 09:44:27.941224","","","","","","",""
10.0,0.04994022846221924,0.0015926550767386717,"train",11200.0,"2021-11-23 09:44:30.950991","","","","","","",""
10.0,0.036121875047683716,0.0015957125634528599,"train",11220.0,"2021-11-23 09:44:34.073027","","","","","","",""
10.0,0.04293099045753479,0.0015987615959724836,"train",11240.0,"2021-11-23 09:44:37.241921","","","","","","",""
10.0,0.03675199672579765,0.0016018021279118457,"train",11260.0,"2021-11-23 09:44:41.058758","","","","","","",""
10.0,0.0399557463824749,0.0016048341130145728,"train",11280.0,"2021-11-23 09:44:44.251419","","","","","","",""
10.0,0.04833841323852539,0.0016078575051543145,"train",11300.0,"2021-11-23 09:44:47.403753","","","","","","",""
10.0,0.05212416127324104,0.0016108722583354478,"train",11320.0,"2021-11-23 09:44:50.408809","","","","","","",""
10.0,0.06863663345575333,0.0016138783266937777,"train",11340.0,"2021-11-23 09:44:53.456201","","","","","","",""
10.0,0.055441807955503464,0.0016168756644972322,"train",11360.0,"2021-11-23 09:44:56.341813","","","","","","",""
10.0,0.03306254372000694,0.0016198642261465587,"train",11380.0,"2021-11-23 09:44:59.283240","","","","","","",""
10.0,0.03826553374528885,0.0016228439661760208,"train",11400.0,"2021-11-23 09:45:03.011277","","","","","","",""
10.0,0.03819547966122627,0.001625814839254086,"train",11420.0,"2021-11-23 09:45:06.089954","","","","","","",""
10.0,0.03948981687426567,0.0016287768001841164,"train",11440.0,"2021-11-23 09:45:09.183109","","","","","","",""
10.0,0.04719048738479614,0.001631729803905059,"train",11460.0,"2021-11-23 09:45:12.267039","","","","","","",""
10.0,0.048559531569480896,0.0016346738054921273,"train",11480.0,"2021-11-23 09:45:15.355556","","","","","","",""
10.0,0.046279892325401306,0.001637608760157486,"train",11500.0,"2021-11-23 09:45:18.471910","","","","","","",""
10.0,0.05051407590508461,0.0016405346232509356,"train",11520.0,"2021-11-23 09:45:21.546095","","","","","","",""
10.0,0.043351542204618454,0.0016434513502605861,"train",11540.0,"2021-11-23 09:45:25.330881","","","","","","",""
10.0,0.04473467543721199,0.0016463588968135383,"train",11560.0,"2021-11-23 09:45:28.431194","","","","","","",""
10.0,0.08480043709278107,0.0016492572186765577,"train",11580.0,"2021-11-23 09:45:31.528185","","","","","","",""
10.0,0.06058541685342789,0.001652146271756747,"train",11600.0,"2021-11-23 09:45:34.528645","","","","","","",""
10.0,0.048864223062992096,0.0016550260121022172,"train",11620.0,"2021-11-23 09:45:37.607046","","","","","","",""
10.0,0.05001664534211159,0.0016578963959027562,"train",11640.0,"2021-11-23 09:45:40.761764","","","","","","",""
10.0,0.056024111807346344,0.001660757379490496,"train",11660.0,"2021-11-23 09:45:43.928420","","","","","","",""
10.0,0.052792955189943314,0.0016636089193405761,"train",11680.0,"2021-11-23 09:45:47.724143","","","","","","",""
10.0,0.05682695284485817,0.0016664509720718049,"train",11700.0,"2021-11-23 09:45:50.887158","","","","","","",""
10.0,0.0632576197385788,0.0016692834944473224,"train",11720.0,"2021-11-23 09:45:53.953546","","","","","","",""
10.0,0.04950692132115364,0.0016721064433752554,"train",11740.0,"2021-11-23 09:45:56.988040","","","","","","",""
10.0,0.04487311467528343,0.0016749197759093734,"train",11760.0,"2021-11-23 09:46:00.034522","","","","","","",""
10.0,0.05382603034377098,0.0016777234492497436,"train",11780.0,"2021-11-23 09:46:03.205735","","","","","","",""
10.0,0.042623572051525116,0.0016805174207433808,"train",11800.0,"2021-11-23 09:46:06.294250","","","","","","",""
10.0,"","","train",11814.0,"2021-11-23 09:49:32.729388",0.6189478279851561,0.7236168096107829,0.9763289641898589,0.6831159507166761,0.5673568442015182,0.5965991391268761,0.39765880663849235
10.0,"","","val",11814.0,"2021-11-23 09:50:25.819172",0.5648846109242723,0.6006498213398508,0.9575928379393832,0.6175814458914838,0.4923657979039635,0.5144596555370503,0.32457141923654986
11.0,0.07430446147918701,0.0016833016478848956,"train",11820.0,"2021-11-23 09:50:29.259315","","","","","","",""
11.0,0.03559000417590141,0.0016860760883171426,"train",11840.0,"2021-11-23 09:50:33.323363","","","","","","",""
11.0,0.03828101232647896,0.001688840699831864,"train",11860.0,"2021-11-23 09:50:36.590156","","","","","","",""
11.0,0.056830499321222305,0.0016915954403703313,"train",11880.0,"2021-11-23 09:50:39.765284","","","","","","",""
11.0,0.06369730085134506,0.0016943402680239862,"train",11900.0,"2021-11-23 09:50:42.903361","","","","","","",""
11.0,0.04702035337686539,0.0016970751410350774,"train",11920.0,"2021-11-23 09:50:45.969788","","","","","","",""
11.0,0.04802301898598671,0.001699800017797296,"train",11940.0,"2021-11-23 09:50:49.173432","","","","","","",""
11.0,0.06409404426813126,0.0017025148568564086,"train",11960.0,"2021-11-23 09:50:52.425632","","","","","","",""
11.0,0.0712810531258583,0.001705219616910888,"train",11980.0,"2021-11-23 09:50:56.257738","","","","","","",""
11.0,0.07091391086578369,0.001707914256812541,"train",12000.0,"2021-11-23 09:50:59.437164","","","","","","",""
11.0,0.03529277443885803,0.0017105987355671352,"train",12020.0,"2021-11-23 09:51:02.605662","","","","","","",""
11.0,0.04921475425362587,0.0017132730123350227,"train",12040.0,"2021-11-23 09:51:05.745212","","","","","","",""
11.0,0.05545779690146446,0.00171593704643176,"train",12060.0,"2021-11-23 09:51:08.683852","","","","","","",""
11.0,0.05648639798164368,0.0017185907973287285,"train",12080.0,"2021-11-23 09:51:11.660574","","","","","","",""
11.0,0.041946958750486374,0.0017212342246537506,"train",12100.0,"2021-11-23 09:51:14.755560","","","","","","",""
11.0,0.060356903821229935,0.0017238672881917032,"train",12120.0,"2021-11-23 09:51:18.524692","","","","","","",""
11.0,0.048344094306230545,0.001726489947885131,"train",12140.0,"2021-11-23 09:51:21.770744","","","","","","",""
11.0,0.049167171120643616,0.0017291021638348543,"train",12160.0,"2021-11-23 09:51:24.939206","","","","","","",""
11.0,0.057199351489543915,0.0017317038963005765,"train",12180.0,"2021-11-23 09:51:28.038557","","","","","","",""
11.0,0.046459443867206573,0.00173429510570149,"train",12200.0,"2021-11-23 09:51:31.126950","","","","","","",""
11.0,0.03935687616467476,0.0017368757526168759,"train",12220.0,"2021-11-23 09:51:34.276979","","","","","","",""
11.0,0.042361047118902206,0.0017394457977867057,"train",12240.0,"2021-11-23 09:51:37.420757","","","","","","",""
11.0,0.08414672315120697,0.0017420052021122378,"train",12260.0,"2021-11-23 09:51:41.307449","","","","","","",""
11.0,0.07022958993911743,0.0017445539266566128,"train",12280.0,"2021-11-23 09:51:44.480241","","","","","","",""
11.0,0.03258049860596657,0.001747091932645445,"train",12300.0,"2021-11-23 09:51:47.635727","","","","","","",""
11.0,0.07532764971256256,0.0017496191814674125,"train",12320.0,"2021-11-23 09:51:50.809604","","","","","","",""
11.0,0.07961080968379974,0.001752135634674846,"train",12340.0,"2021-11-23 09:51:53.944288","","","","","","",""
11.0,0.048208530992269516,0.0017546412539843118,"train",12360.0,"2021-11-23 09:51:57.173472","","","","","","",""
11.0,0.07752721756696701,0.001757136001277194,"train",12380.0,"2021-11-23 09:52:00.323965","","","","","","",""
11.0,0.06520941853523254,0.001759619838600278,"train",12400.0,"2021-11-23 09:52:04.074914","","","","","","",""
11.0,0.07198522239923477,0.0017620927281663229,"train",12420.0,"2021-11-23 09:52:07.238763","","","","","","",""
11.0,0.04680430516600609,0.0017645546323546398,"train",12440.0,"2021-11-23 09:52:10.425059","","","","","","",""
11.0,0.04132458567619324,0.0017670055137116636,"train",12460.0,"2021-11-23 09:52:13.517466","","","","","","",""
11.0,0.05881495773792267,0.0017694453349515209,"train",12480.0,"2021-11-23 09:52:16.565828","","","","","","",""
11.0,0.07537776231765747,0.0017718740589566,"train",12500.0,"2021-11-23 09:52:19.649143","","","","","","",""
11.0,0.04330313950777054,0.0017742916487781134,"train",12520.0,"2021-11-23 09:52:22.716642","","","","","","",""
11.0,0.06877347081899643,0.0017766980676366608,"train",12540.0,"2021-11-23 09:52:25.855261","","","","","","",""
11.0,0.04163232818245888,0.001779093278922789,"train",12560.0,"2021-11-23 09:52:29.732437","","","","","","",""
11.0,0.04324124753475189,0.001781477246197548,"train",12580.0,"2021-11-23 09:52:32.960745","","","","","","",""
11.0,0.047092705965042114,0.0017838499331930462,"train",12600.0,"2021-11-23 09:52:36.110701","","","","","","",""
11.0,0.07595609873533249,0.001786211303813001,"train",12620.0,"2021-11-23 09:52:39.304291","","","","","","",""
11.0,0.05443590134382248,0.0017885613221332894,"train",12640.0,"2021-11-23 09:52:42.506610","","","","","","",""
11.0,0.047766100615262985,0.0017908999524024931,"train",12660.0,"2021-11-23 09:52:45.694146","","","","","","",""
11.0,0.04648856073617935,0.0017932271590424438,"train",12680.0,"2021-11-23 09:52:48.830217","","","","","","",""
11.0,0.04417764022946358,0.0017955429066487635,"train",12700.0,"2021-11-23 09:52:52.652774","","","","","","",""
11.0,0.0610513798892498,0.0017978471599914025,"train",12720.0,"2021-11-23 09:52:55.775116","","","","","","",""
11.0,0.05072394385933876,0.0018001398840151778,"train",12740.0,"2021-11-23 09:52:58.931634","","","","","","",""
11.0,0.04120101407170296,0.0018024210438403031,"train",12760.0,"2021-11-23 09:53:02.129738","","","","","","",""
11.0,0.054591309279203415,0.0018046906047629228,"train",12780.0,"2021-11-23 09:53:05.300449","","","","","","",""
11.0,0.04573590308427811,0.0018069485322556372,"train",12800.0,"2021-11-23 09:53:08.366393","","","","","","",""
11.0,0.05565040186047554,0.001809194791968029,"train",12820.0,"2021-11-23 09:53:11.447645","","","","","","",""
11.0,0.07272788137197495,0.0018114293497271863,"train",12840.0,"2021-11-23 09:53:15.159071","","","","","","",""
11.0,0.038819245994091034,0.0018136521715382218,"train",12860.0,"2021-11-23 09:53:18.230250","","","","","","",""
11.0,0.06841050088405609,0.0018158632235847892,"train",12880.0,"2021-11-23 09:53:21.275191","","","","","","",""
11.0,"","","train",12888.0,"2021-11-23 09:56:47.525079",0.6419995634141017,0.7338657159309313,0.9780415521789193,0.6923934194129584,0.5901417184991036,0.6136330531964233,0.42300541620515675
11.0,"","","val",12888.0,"2021-11-23 09:57:40.422021",0.5823959178940044,0.6092099776697301,0.9588563853824232,0.6198511256436832,0.508339881260025,0.5294840787287998,0.3418556582623881
12.0,0.03674120828509331,0.0018180624722295999,"train",12900.0,"2021-11-23 09:57:44.801691","","","","","","",""
12.0,0.062211308628320694,0.001820249884014933,"train",12920.0,"2021-11-23 09:57:47.875091","","","","","","",""
12.0,0.04190918803215027,0.001822425425663144,"train",12940.0,"2021-11-23 09:57:50.878827","","","","","","",""
12.0,0.039656300097703934,0.0018245890640771725,"train",12960.0,"2021-11-23 09:57:53.867225","","","","","","",""
12.0,0.04259410500526428,0.0018267407663410452,"train",12980.0,"2021-11-23 09:57:57.573816","","","","","","",""
12.0,0.037412624806165695,0.0018288804997203755,"train",13000.0,"2021-11-23 09:58:00.580913","","","","","","",""
12.0,0.02685805968940258,0.0018310082316628634,"train",13020.0,"2021-11-23 09:58:03.618388","","","","","","",""
12.0,0.05622337758541107,0.0018331239297987893,"train",13040.0,"2021-11-23 09:58:06.728103","","","","","","",""
12.0,0.06583619117736816,0.0018352275619415066,"train",13060.0,"2021-11-23 09:58:09.805980","","","","","","",""
12.0,0.03534011170268059,0.0018373190960879326,"train",13080.0,"2021-11-23 09:58:12.960973","","","","","","",""
12.0,0.05207385495305061,0.0018393985004190336,"train",13100.0,"2021-11-23 09:58:16.081682","","","","","","",""
12.0,0.04237458109855652,0.00184146574330031,"train",13120.0,"2021-11-23 09:58:19.756626","","","","","","",""
12.0,0.044321026653051376,0.001843520793282278,"train",13140.0,"2021-11-23 09:58:22.822349","","","","","","",""
12.0,0.04887170344591141,0.0018455636191009464,"train",13160.0,"2021-11-23 09:58:25.961139","","","","","","",""
12.0,0.060875847935676575,0.001847594189678294,"train",13180.0,"2021-11-23 09:58:29.202790","","","","","","",""
12.0,0.043820273131132126,0.0018496124741227415,"train",13200.0,"2021-11-23 09:58:32.374714","","","","","","",""
12.0,0.058642636984586716,0.001851618441729622,"train",13220.0,"2021-11-23 09:58:35.462922","","","","","","",""
12.0,0.03825327381491661,0.0018536120619816467,"train",13240.0,"2021-11-23 09:58:38.462036","","","","","","",""
12.0,0.054038021713495255,0.0018555933045493712,"train",13260.0,"2021-11-23 09:58:42.132297","","","","","","",""
12.0,0.07441674172878265,0.0018575621392916554,"train",13280.0,"2021-11-23 09:58:45.108258","","","","","","",""
12.0,0.07812034338712692,0.0018595185362561225,"train",13300.0,"2021-11-23 09:58:48.100171","","","","","","",""
12.0,0.03829267621040344,0.0018614624656796155,"train",13320.0,"2021-11-23 09:58:51.063498","","","","","","",""
12.0,0.047809239476919174,0.0018633938979886484,"train",13340.0,"2021-11-23 09:58:54.155964","","","","","","",""
12.0,0.0714186355471611,0.0018653128037998568,"train",13360.0,"2021-11-23 09:58:57.232835","","","","","","",""
12.0,0.0576113797724247,0.0018672191539204459,"train",13380.0,"2021-11-23 09:59:00.306092","","","","","","",""
12.0,0.060580939054489136,0.0018691129193486335,"train",13400.0,"2021-11-23 09:59:03.421539","","","","","","",""
12.0,0.03705897554755211,0.0018709940712740908,"train",13420.0,"2021-11-23 09:59:07.112055","","","","","","",""
12.0,0.04890569671988487,0.0018728625810783823,"train",13440.0,"2021-11-23 09:59:10.170508","","","","","","",""
12.0,0.06450829654932022,0.0018747184203353996,"train",13460.0,"2021-11-23 09:59:13.222140","","","","","","",""
12.0,0.044911935925483704,0.0018765615608117947,"train",13480.0,"2021-11-23 09:59:16.211339","","","","","","",""
12.0,0.0826462060213089,0.0018783919744674096,"train",13500.0,"2021-11-23 09:59:19.202231","","","","","","",""
12.0,0.07119573652744293,0.0018802096334557027,"train",13520.0,"2021-11-23 09:59:22.167111","","","","","","",""
12.0,0.07830816507339478,0.0018820145101241712,"train",13540.0,"2021-11-23 09:59:25.177439","","","","","","",""
12.0,0.05966911092400551,0.0018838065770147745,"train",13560.0,"2021-11-23 09:59:28.972950","","","","","","",""
12.0,0.07016458362340927,0.0018855858068643496,"train",13580.0,"2021-11-23 09:59:32.090185","","","","","","",""
12.0,0.047024745494127274,0.001887352172605026,"train",13600.0,"2021-11-23 09:59:35.087908","","","","","","",""
12.0,0.05650738626718521,0.0018891056473646398,"train",13620.0,"2021-11-23 09:59:38.129326","","","","","","",""
12.0,0.029681984335184097,0.0018908462044671395,"train",13640.0,"2021-11-23 09:59:41.124191","","","","","","",""
12.0,0.06005724519491196,0.001892573817432993,"train",13660.0,"2021-11-23 09:59:44.123094","","","","","","",""
12.0,0.0719614028930664,0.0018942884599795914,"train",13680.0,"2021-11-23 09:59:47.187301","","","","","","",""
12.0,0.07258263975381851,0.001895990106021648,"train",13700.0,"2021-11-23 09:59:50.922950","","","","","","",""
12.0,0.04550987109541893,0.0018976787296715943,"train",13720.0,"2021-11-23 09:59:53.950547","","","","","","",""
12.0,0.047923166304826736,0.0018993543052399757,"train",13740.0,"2021-11-23 09:59:57.019532","","","","","","",""
12.0,0.04739587381482124,0.0019010168072358413,"train",13760.0,"2021-11-23 10:00:00.144253","","","","","","",""
12.0,0.04039477929472923,0.0019026662103671305,"train",13780.0,"2021-11-23 10:00:03.162277","","","","","","",""
12.0,0.0525534525513649,0.0019043024895410605,"train",13800.0,"2021-11-23 10:00:06.208045","","","","","","",""
12.0,0.03479980304837227,0.001905925619864506,"train",13820.0,"2021-11-23 10:00:09.319163","","","","","","",""
12.0,0.035489991307258606,0.001907535576644378,"train",13840.0,"2021-11-23 10:00:12.995733","","","","","","",""
12.0,0.07702696323394775,0.0019091323353880008,"train",13860.0,"2021-11-23 10:00:16.040553","","","","","","",""
12.0,0.03768693655729294,0.0019107158718034828,"train",13880.0,"2021-11-23 10:00:19.035626","","","","","","",""
12.0,0.03093073144555092,0.001912286161800088,"train",13900.0,"2021-11-23 10:00:22.024060","","","","","","",""
12.0,0.0410122349858284,0.0019138431814886008,"train",13920.0,"2021-11-23 10:00:25.007756","","","","","","",""
12.0,0.06010628864169121,0.0019153869071816896,"train",13940.0,"2021-11-23 10:00:27.875033","","","","","","",""
12.0,0.04008679836988449,0.0019169173153942693,"train",13960.0,"2021-11-23 10:00:30.744357","","","","","","",""
12.0,"","","train",13962.0,"2021-11-23 10:03:54.780701",0.6510223386451285,0.7540440161218677,0.9807699805037994,0.6932846779221653,0.6265143432888457,0.6593935088061423,0.43802240784596774
12.0,"","","val",13962.0,"2021-11-23 10:04:48.157782",0.584251420619274,0.6161286004886913,0.9607280026134146,0.6112199299995192,0.5281920716508115,0.5573102163250769,0.34368391955854083
13.0,0.06088095158338547,0.0019184343828438557,"train",13980.0,"2021-11-23 10:04:54.365975","","","","","","",""
13.0,0.06119968742132187,0.0019199380864509208,"train",14000.0,"2021-11-23 10:04:57.578123","","","","","","",""
13.0,0.05850925296545029,0.0019214284033392457,"train",14020.0,"2021-11-23 10:05:00.724081","","","","","","",""
13.0,0.033222999423742294,0.0019229053108362649,"train",14040.0,"2021-11-23 10:05:03.825274","","","","","","",""
13.0,0.04418395459651947,0.0019243687864734145,"train",14060.0,"2021-11-23 10:05:06.999144","","","","","","",""
13.0,0.04213327914476395,0.0019258188079864732,"train",14080.0,"2021-11-23 10:05:10.129681","","","","","","",""
13.0,0.06935708969831467,0.0019272553533158999,"train",14100.0,"2021-11-23 10:05:13.247753","","","","","","",""
13.0,0.03539051488041878,0.0019286784006071697,"train",14120.0,"2021-11-23 10:05:16.324218","","","","","","",""
13.0,0.028466317802667618,0.0019300879282111083,"train",14140.0,"2021-11-23 10:05:20.088814","","","","","","",""
13.0,0.07224768400192261,0.0019314839146842185,"train",14160.0,"2021-11-23 10:05:23.164501","","","","","","",""
13.0,0.03921885043382645,0.0019328663387890076,"train",14180.0,"2021-11-23 10:05:26.318160","","","","","","",""
13.0,0.04165644198656082,0.0019342351794943119,"train",14200.0,"2021-11-23 10:05:29.508392","","","","","","",""
13.0,0.07654120028018951,0.0019355904159756138,"train",14220.0,"2021-11-23 10:05:32.715106","","","","","","",""
13.0,0.04215342923998833,0.0019369320276153613,"train",14240.0,"2021-11-23 10:05:35.890550","","","","","","",""
13.0,0.03926848620176315,0.00193825999400328,"train",14260.0,"2021-11-23 10:05:39.035031","","","","","","",""
13.0,0.03984871134161949,0.0019395742949366843,"train",14280.0,"2021-11-23 10:05:42.798439","","","","","","",""
13.0,0.04204718396067619,0.0019408749104207845,"train",14300.0,"2021-11-23 10:05:45.949106","","","","","","",""
13.0,0.033600904047489166,0.0019421618206689913,"train",14320.0,"2021-11-23 10:05:49.089448","","","","","","",""
13.0,0.056403424590826035,0.0019434350061032163,"train",14340.0,"2021-11-23 10:05:52.094886","","","","","","",""
13.0,0.02680978551506996,0.0019446944473541703,"train",14360.0,"2021-11-23 10:05:55.099385","","","","","","",""
13.0,0.04054582118988037,0.0019459401252616573,"train",14380.0,"2021-11-23 10:05:58.108631","","","","","","",""
13.0,0.0657138079404831,0.001947172020874868,"train",14400.0,"2021-11-23 10:06:01.120102","","","","","","",""
13.0,0.05089673399925232,0.0019483901154526647,"train",14420.0,"2021-11-23 10:06:04.903249","","","","","","",""
13.0,0.045821163803339005,0.0019495943904638694,"train",14440.0,"2021-11-23 10:06:07.924748","","","","","","",""
13.0,0.04092974215745926,0.0019507848275875444,"train",14460.0,"2021-11-23 10:06:11.236547","","","","","","",""
13.0,0.059195153415203094,0.0019519614087132712,"train",14480.0,"2021-11-23 10:06:14.390655","","","","","","",""
13.0,0.06424971669912338,0.0019531241159414263,"train",14500.0,"2021-11-23 10:06:17.463658","","","","","","",""
13.0,0.04108861833810806,0.001954272931583453,"train",14520.0,"2021-11-23 10:06:20.467028","","","","","","",""
13.0,0.048101458698511124,0.0019554078381621306,"train",14540.0,"2021-11-23 10:06:23.308075","","","","","","",""
13.0,0.04870198667049408,0.0019565288184118417,"train",14560.0,"2021-11-23 10:06:26.890638","","","","","","",""
13.0,0.03307746723294258,0.0019576358552788314,"train",14580.0,"2021-11-23 10:06:29.862877","","","","","","",""
13.0,0.0382775142788887,0.0019587289319214713,"train",14600.0,"2021-11-23 10:06:32.862493","","","","","","",""
13.0,0.043830323964357376,0.0019598080317105113,"train",14620.0,"2021-11-23 10:06:35.919217","","","","","","",""
13.0,0.0614805705845356,0.001960873138229337,"train",14640.0,"2021-11-23 10:06:39.090847","","","","","","",""
13.0,0.062208764255046844,0.0019619242352742153,"train",14660.0,"2021-11-23 10:06:42.264733","","","","","","",""
13.0,0.07442887872457504,0.001962961306854543,"train",14680.0,"2021-11-23 10:06:45.419426","","","","","","",""
13.0,0.04801925644278526,0.0019639843371930905,"train",14700.0,"2021-11-23 10:06:49.285022","","","","","","",""
13.0,0.03983834758400917,0.001964993310726241,"train",14720.0,"2021-11-23 10:06:52.413365","","","","","","",""
13.0,0.03841346502304077,0.0019659882121042262,"train",14740.0,"2021-11-23 10:06:55.557778","","","","","","",""
13.0,0.03878835216164589,0.001966969026191363,"train",14760.0,"2021-11-23 10:06:58.659609","","","","","","",""
13.0,0.08100656419992447,0.0019679357380662805,"train",14780.0,"2021-11-23 10:07:01.832867","","","","","","",""
13.0,0.02909007854759693,0.001968888333022148,"train",14800.0,"2021-11-23 10:07:04.933605","","","","","","",""
13.0,0.045776400715112686,0.0019698267965669,"train",14820.0,"2021-11-23 10:07:07.910177","","","","","","",""
13.0,0.0362786129117012,0.0019707511144234557,"train",14840.0,"2021-11-23 10:07:10.883096","","","","","","",""
13.0,0.0772678479552269,0.001971661272529935,"train",14860.0,"2021-11-23 10:07:14.564216","","","","","","",""
13.0,0.0544084832072258,0.001972557257039875,"train",14880.0,"2021-11-23 10:07:17.552027","","","","","","",""
13.0,0.04166873171925545,0.0019734390543224385,"train",14900.0,"2021-11-23 10:07:20.620044","","","","","","",""
13.0,0.035939112305641174,0.001974306650962622,"train",14920.0,"2021-11-23 10:07:23.755266","","","","","","",""
13.0,0.04640693590044975,0.0019751600337614608,"train",14940.0,"2021-11-23 10:07:26.916167","","","","","","",""
13.0,0.05411043390631676,0.0019759991897362284,"train",14960.0,"2021-11-23 10:07:30.049427","","","","","","",""
13.0,0.053163714706897736,0.0019768241061206343,"train",14980.0,"2021-11-23 10:07:33.193256","","","","","","",""
13.0,0.052580103278160095,0.0019776347703650186,"train",15000.0,"2021-11-23 10:07:37.025857","","","","","","",""
13.0,0.06525665521621704,0.001978431170136543,"train",15020.0,"2021-11-23 10:07:40.153296","","","","","","",""
13.0,"","","train",15036.0,"2021-11-23 10:11:07.174096",0.6609619442625336,0.7771593185413254,0.9829286890104121,0.7278142576025104,0.6375603958155434,0.6650796509254122,0.4581336592769748
13.0,"","","val",15036.0,"2021-11-23 10:12:00.799951",0.5823379334338398,0.6210724338592646,0.9602965220806554,0.6358875932665645,0.5273701192888398,0.5515586549285667,0.34877748259325403
14.0,0.09432043135166168,0.0019792132933193784,"train",15040.0,"2021-11-23 10:12:03.929360","","","","","","",""
14.0,0.07068206369876862,0.001979981128014888,"train",15060.0,"2021-11-23 10:12:07.165057","","","","","","",""
14.0,0.033013056963682175,0.001980734662541811,"train",15080.0,"2021-11-23 10:12:10.234128","","","","","","",""
14.0,0.03545193746685982,0.0019814738854364374,"train",15100.0,"2021-11-23 10:12:13.375588","","","","","","",""
14.0,0.03876137733459473,0.0019821987854527832,"train",15120.0,"2021-11-23 10:12:16.511746","","","","","","",""
14.0,0.042602576315402985,0.0019829093515627634,"train",15140.0,"2021-11-23 10:12:20.422659","","","","","","",""
14.0,0.07073169946670532,0.001983605572956358,"train",15160.0,"2021-11-23 10:12:23.486152","","","","","","",""
14.0,0.04717510566115379,0.001984287439041775,"train",15180.0,"2021-11-23 10:12:26.527541","","","","","","",""
14.0,0.07594312727451324,0.001984954939445616,"train",15200.0,"2021-11-23 10:12:29.592063","","","","","","",""
14.0,0.0669965147972107,0.0019856080640130295,"train",15220.0,"2021-11-23 10:12:32.588509","","","","","","",""
14.0,0.07063913345336914,0.0019862468028078676,"train",15240.0,"2021-11-23 10:12:35.622739","","","","","","",""
14.0,0.044769346714019775,0.001986871146112837,"train",15260.0,"2021-11-23 10:12:38.660265","","","","","","",""
14.0,0.06917805969715118,0.0019874810844296466,"train",15280.0,"2021-11-23 10:12:42.299619","","","","","","",""
14.0,0.04577057436108589,0.0019880766084791517,"train",15300.0,"2021-11-23 10:12:45.326126","","","","","","",""
14.0,0.035046156495809555,0.0019886577092014953,"train",15320.0,"2021-11-23 10:12:48.387660","","","","","","",""
14.0,0.06727895885705948,0.001989224377756247,"train",15340.0,"2021-11-23 10:12:51.501275","","","","","","",""
14.0,0.05332575738430023,0.0019897766055225353,"train",15360.0,"2021-11-23 10:12:54.531819","","","","","","",""
14.0,0.03516644611954689,0.0019903143840991813,"train",15380.0,"2021-11-23 10:12:57.465967","","","","","","",""
14.0,0.033392809331417084,0.0019908377053048246,"train",15400.0,"2021-11-23 10:13:00.648379","","","","","","",""
14.0,0.0719723105430603,0.001991346561178048,"train",15420.0,"2021-11-23 10:13:04.228268","","","","","","",""
14.0,0.05748271197080612,0.0019918409439775003,"train",15440.0,"2021-11-23 10:13:07.368667","","","","","","",""
14.0,0.05881959944963455,0.0019923208461820117,"train",15460.0,"2021-11-23 10:13:10.474159","","","","","","",""
14.0,0.03787009045481682,0.001992786260490709,"train",15480.0,"2021-11-23 10:13:13.595564","","","","","","",""
14.0,0.03339947387576103,0.0019932371798231287,"train",15500.0,"2021-11-23 10:13:16.752920","","","","","","",""
14.0,0.04527520760893822,0.0019936735973193212,"train",15520.0,"2021-11-23 10:13:19.855890","","","","","","",""
14.0,0.027000144124031067,0.001994095506339958,"train",15540.0,"2021-11-23 10:13:22.917531","","","","","","",""
14.0,0.054588623344898224,0.001994502900466431,"train",15560.0,"2021-11-23 10:13:26.091693","","","","","","",""
14.0,0.0885971337556839,0.0019948957735009517,"train",15580.0,"2021-11-23 10:13:29.832282","","","","","","",""
14.0,0.028321508318185806,0.0019952741194666436,"train",15600.0,"2021-11-23 10:13:33.055159","","","","","","",""
14.0,0.037574898451566696,0.0019956379326076354,"train",15620.0,"2021-11-23 10:13:36.300982","","","","","","",""
14.0,0.05998670309782028,0.001995987207389146,"train",15640.0,"2021-11-23 10:13:39.399694","","","","","","",""
14.0,0.04396912828087807,0.0019963219384975706,"train",15660.0,"2021-11-23 10:13:42.531363","","","","","","",""
14.0,0.05521411448717117,0.001996642120840561,"train",15680.0,"2021-11-23 10:13:45.791684","","","","","","",""
14.0,0.06315738707780838,0.001996947749547103,"train",15700.0,"2021-11-23 10:13:48.964677","","","","","","",""
14.0,0.06708022207021713,0.0019972388199675905,"train",15720.0,"2021-11-23 10:13:52.837803","","","","","","",""
14.0,0.04536516219377518,0.001997515327673896,"train",15740.0,"2021-11-23 10:13:56.033477","","","","","","",""
14.0,0.041170693933963776,0.0019977772684594388,"train",15760.0,"2021-11-23 10:13:59.138562","","","","","","",""
14.0,0.04858553409576416,0.0019980246383392475,"train",15780.0,"2021-11-23 10:14:02.202244","","","","","","",""
14.0,0.040323350578546524,0.0019982574335500225,"train",15800.0,"2021-11-23 10:14:05.324518","","","","","","",""
14.0,0.07529785484075546,0.001998475650550192,"train",15820.0,"2021-11-23 10:14:08.386325","","","","","","",""
14.0,0.03071465902030468,0.0019986792860199657,"train",15840.0,"2021-11-23 10:14:11.378375","","","","","","",""
14.0,0.06288734823465347,0.001998868336861386,"train",15860.0,"2021-11-23 10:14:14.994848","","","","","","",""
14.0,0.03402844816446304,0.001999042800198376,"train",15880.0,"2021-11-23 10:14:18.048680","","","","","","",""
14.0,0.0374000184237957,0.00199920267337678,"train",15900.0,"2021-11-23 10:14:21.163433","","","","","","",""
14.0,0.04899941384792328,0.0019993479539644077,"train",15920.0,"2021-11-23 10:14:24.363633","","","","","","",""
14.0,0.05761813372373581,0.0019994786397510697,"train",15940.0,"2021-11-23 10:14:27.592401","","","","","","",""
14.0,0.0511602908372879,0.0019995947287486096,"train",15960.0,"2021-11-23 10:14:30.768209","","","","","","",""
14.0,0.03235800191760063,0.0019996962191909367,"train",15980.0,"2021-11-23 10:14:33.766837","","","","","","",""
14.0,0.0539994090795517,0.0019997831095340513,"train",16000.0,"2021-11-23 10:14:37.380519","","","","","","",""
14.0,0.047106094658374786,0.001999855398456069,"train",16020.0,"2021-11-23 10:14:40.378100","","","","","","",""
14.0,0.03618203103542328,0.00199991308485724,"train",16040.0,"2021-11-23 10:14:43.418828","","","","","","",""
14.0,0.041528988629579544,0.001999956167859967,"train",16060.0,"2021-11-23 10:14:46.462379","","","","","","",""
14.0,0.03030344657599926,0.0019999846468088172,"train",16080.0,"2021-11-23 10:14:49.494579","","","","","","",""
14.0,0.04254518449306488,0.0019999985212705335,"train",16100.0,"2021-11-23 10:14:52.498481","","","","","","",""
14.0,"","","train",16110.0,"2021-11-23 10:18:17.961457",0.6745979771520046,0.786986619197489,0.9841935951417539,0.7243609248608573,0.6343795348782971,0.6641170931772268,0.4623120583699034
14.0,"","","val",16110.0,"2021-11-23 10:19:11.207265",0.5943407166879277,0.6259444438749433,0.9613398280226227,0.6278956662500914,0.5312895291068949,0.5595852503745508,0.35633043123242764
15.0,0.02792379818856716,0.0019999995774202316,"train",16120.0,"2021-11-23 10:19:15.443478","","","","","","",""
15.0,0.02896309085190296,0.0019999966438102564,"train",16140.0,"2021-11-23 10:19:19.451741","","","","","","",""
15.0,0.040359750390052795,0.0019999909162942875,"train",16160.0,"2021-11-23 10:19:22.665030","","","","","","",""
15.0,0.043242234736680984,0.001999982394888327,"train",16180.0,"2021-11-23 10:19:25.853974","","","","","","",""
15.0,0.05426489934325218,0.0019999710796161823,"train",16200.0,"2021-11-23 10:19:29.044828","","","","","","",""
15.0,0.034758009016513824,0.0019999569705094686,"train",16220.0,"2021-11-23 10:19:32.082952","","","","","","",""
15.0,0.026475822553038597,0.001999940067607605,"train",16240.0,"2021-11-23 10:19:35.100447","","","","","","",""
15.0,0.07304723560810089,0.001999920370957817,"train",16260.0,"2021-11-23 10:19:38.199663","","","","","","",""
15.0,0.05124204233288765,0.0019998978806151355,"train",16280.0,"2021-11-23 10:19:41.330410","","","","","","",""
15.0,0.056841302663087845,0.0019998725966423976,"train",16300.0,"2021-11-23 10:19:44.920965","","","","","","",""
15.0,0.06915201246738434,0.001999844519110244,"train",16320.0,"2021-11-23 10:19:47.988959","","","","","","",""
15.0,0.04243578389286995,0.001999813648097122,"train",16340.0,"2021-11-23 10:19:51.134750","","","","","","",""
15.0,0.03772253543138504,0.001999779983689282,"train",16360.0,"2021-11-23 10:19:54.359698","","","","","","",""
15.0,0.03538993000984192,0.0019997435259807806,"train",16380.0,"2021-11-23 10:19:57.553034","","","","","","",""
15.0,0.06564892828464508,0.001999704275073478,"train",16400.0,"2021-11-23 10:20:00.719341","","","","","","",""
15.0,0.06803734600543976,0.0019996622310770383,"train",16420.0,"2021-11-23 10:20:03.790371","","","","","","",""
15.0,0.06400017440319061,0.0019996173941089286,"train",16440.0,"2021-11-23 10:20:07.439337","","","","","","",""
15.0,0.0729544460773468,0.0019995697642944212,"train",16460.0,"2021-11-23 10:20:10.421185","","","","","","",""
15.0,0.0399661548435688,0.0019995193417665894,"train",16480.0,"2021-11-23 10:20:13.404598","","","","","","",""
15.0,0.03620851784944534,0.0019994661266663108,"train",16500.0,"2021-11-23 10:20:16.373053","","","","","","",""
15.0,0.04423805698752403,0.001999410119142264,"train",16520.0,"2021-11-23 10:20:19.332168","","","","","","",""
15.0,0.07278549671173096,0.0019993513193509297,"train",16540.0,"2021-11-23 10:20:22.351491","","","","","","",""
15.0,0.0558181069791317,0.0019992897274565906,"train",16560.0,"2021-11-23 10:20:25.456092","","","","","","",""
15.0,0.05352240428328514,0.0019992253436313303,"train",16580.0,"2021-11-23 10:20:29.148998","","","","","","",""
15.0,0.07066263258457184,0.0019991581680550313,"train",16600.0,"2021-11-23 10:20:32.248427","","","","","","",""
15.0,0.058216702193021774,0.0019990882009153785,"train",16620.0,"2021-11-23 10:20:35.346477","","","","","","",""
15.0,0.032632265239953995,0.001999015442407854,"train",16640.0,"2021-11-23 10:20:38.443460","","","","","","",""
15.0,0.06305094808340073,0.0019989398927357403,"train",16660.0,"2021-11-23 10:20:41.492546","","","","","","",""
15.0,0.04408235847949982,0.0019988615521101174,"train",16680.0,"2021-11-23 10:20:44.498444","","","","","","",""
15.0,0.06502410024404526,0.0019987804207498637,"train",16700.0,"2021-11-23 10:20:47.495028","","","","","","",""
15.0,0.06215706095099449,0.0019986964988816533,"train",16720.0,"2021-11-23 10:20:51.159948","","","","","","",""
15.0,0.037191834300756454,0.0019986097867399585,"train",16740.0,"2021-11-23 10:20:54.146466","","","","","","",""
15.0,0.058663591742515564,0.0019985202845670463,"train",16760.0,"2021-11-23 10:20:57.136061","","","","","","",""
15.0,0.0746273547410965,0.0019984279926129798,"train",16780.0,"2021-11-23 10:21:00.148265","","","","","","",""
15.0,0.040689434856176376,0.001998332911135615,"train",16800.0,"2021-11-23 10:21:03.133978","","","","","","",""
15.0,0.04029112681746483,0.0019982350404006036,"train",16820.0,"2021-11-23 10:21:06.128208","","","","","","",""
15.0,0.038093991577625275,0.0019981343806813883,"train",16840.0,"2021-11-23 10:21:09.115815","","","","","","",""
15.0,0.06690597534179688,0.001998030932259205,"train",16860.0,"2021-11-23 10:21:12.751707","","","","","","",""
15.0,0.056262604892253876,0.0019979246954230823,"train",16880.0,"2021-11-23 10:21:15.754058","","","","","","",""
15.0,0.03735899552702904,0.0019978156704698363,"train",16900.0,"2021-11-23 10:21:18.838271","","","","","","",""
15.0,0.07464586198329926,0.001997703857704076,"train",16920.0,"2021-11-23 10:21:21.973389","","","","","","",""
15.0,0.07212543487548828,0.0019975892574381976,"train",16940.0,"2021-11-23 10:21:25.118148","","","","","","",""
15.0,0.07028551399707794,0.001997471869992386,"train",16960.0,"2021-11-23 10:21:28.274903","","","","","","",""
15.0,0.053958710283041,0.0019973516956946127,"train",16980.0,"2021-11-23 10:21:31.333642","","","","","","",""
15.0,0.03696485236287117,0.0019972287348806366,"train",17000.0,"2021-11-23 10:21:34.306697","","","","","","",""
15.0,0.05128426104784012,0.0019971029878940003,"train",17020.0,"2021-11-23 10:21:37.873122","","","","","","",""
15.0,0.027655836194753647,0.0019969744550860317,"train",17040.0,"2021-11-23 10:21:40.844718","","","","","","",""
15.0,0.04143546149134636,0.0019968431368158433,"train",17060.0,"2021-11-23 10:21:43.929116","","","","","","",""
15.0,0.04314129427075386,0.001996709033450327,"train",17080.0,"2021-11-23 10:21:47.013130","","","","","","",""
15.0,0.06427568197250366,0.0019965721453641585,"train",17100.0,"2021-11-23 10:21:50.117071","","","","","","",""
15.0,0.07650923728942871,0.0019964324729397935,"train",17120.0,"2021-11-23 10:21:53.267053","","","","","","",""
15.0,0.08705072849988937,0.0019962900165674657,"train",17140.0,"2021-11-23 10:21:56.367693","","","","","","",""
15.0,0.03896986320614815,0.0019961447766451887,"train",17160.0,"2021-11-23 10:22:00.164091","","","","","","",""
15.0,0.05767512694001198,0.001995996753578751,"train",17180.0,"2021-11-23 10:22:03.254297","","","","","","",""
15.0,"","","train",17184.0,"2021-11-23 10:25:28.101972",0.6850178272575129,0.807984080246306,0.9862482383378887,0.7458051186587719,0.6534521066346808,0.6977851731082961,0.4794302898340735
15.0,"","","val",17184.0,"2021-11-23 10:26:21.188976",0.5929490896439754,0.6223932916373587,0.9619638612395742,0.6378978837680626,0.5223004548377501,0.5578980166073088,0.348846276755883
16.0,0.0496191531419754,0.001995845947781719,"train",17200.0,"2021-11-23 10:26:26.303042","","","","","","",""
16.0,0.08323322981595993,0.001995692359675433,"train",17220.0,"2021-11-23 10:26:29.547341","","","","","","",""
16.0,0.0738944336771965,0.0019955359896890066,"train",17240.0,"2021-11-23 10:26:32.713143","","","","","","",""
16.0,0.06903205066919327,0.0019953768382593258,"train",17260.0,"2021-11-23 10:26:35.869310","","","","","","",""
16.0,0.03300144150853157,0.0019952149058310486,"train",17280.0,"2021-11-23 10:26:39.045352","","","","","","",""
16.0,0.0365707166492939,0.001995050192856602,"train",17300.0,"2021-11-23 10:26:42.919902","","","","","","",""
16.0,0.046913787722587585,0.001994882699796182,"train",17320.0,"2021-11-23 10:26:46.066581","","","","","","",""
16.0,0.044543489813804626,0.001994712427117752,"train",17340.0,"2021-11-23 10:26:49.183730","","","","","","",""
16.0,0.050359103828668594,0.0019945393752970413,"train",17360.0,"2021-11-23 10:26:52.351716","","","","","","",""
16.0,0.039372194558382034,0.001994363544817544,"train",17380.0,"2021-11-23 10:26:55.465351","","","","","","",""
16.0,0.025415536016225815,0.001994184936170517,"train",17400.0,"2021-11-23 10:26:58.591121","","","","","","",""
16.0,0.034703921526670456,0.0019940035498549804,"train",17420.0,"2021-11-23 10:27:01.683165","","","","","","",""
16.0,0.03842313587665558,0.0019938193863777145,"train",17440.0,"2021-11-23 10:27:05.322889","","","","","","",""
16.0,0.03918613865971565,0.001993632446253258,"train",17460.0,"2021-11-23 10:27:08.290088","","","","","","",""
16.0,0.028210852295160294,0.0019934427300039074,"train",17480.0,"2021-11-23 10:27:11.262000","","","","","","",""
16.0,0.0592135414481163,0.001993250238159717,"train",17500.0,"2021-11-23 10:27:14.216385","","","","","","",""
16.0,0.04666591435670853,0.0019930549712584944,"train",17520.0,"2021-11-23 10:27:17.204519","","","","","","",""
16.0,0.05035492405295372,0.001992856929845801,"train",17540.0,"2021-11-23 10:27:20.273552","","","","","","",""
16.0,0.06420086324214935,0.0019926561144749497,"train",17560.0,"2021-11-23 10:27:23.351592","","","","","","",""
16.0,0.03415586054325104,0.001992452525707004,"train",17580.0,"2021-11-23 10:27:27.018732","","","","","","",""
16.0,0.05270114541053772,0.0019922461641107767,"train",17600.0,"2021-11-23 10:27:29.991231","","","","","","",""
16.0,0.06362490355968475,0.001992037030262826,"train",17620.0,"2021-11-23 10:27:33.044005","","","","","","",""
16.0,0.044365622103214264,0.0019918251247474567,"train",17640.0,"2021-11-23 10:27:35.972651","","","","","","",""
16.0,0.032479848712682724,0.001991610448156718,"train",17660.0,"2021-11-23 10:27:39.084356","","","","","","",""
16.0,0.060423459857702255,0.0019913930010903996,"train",17680.0,"2021-11-23 10:27:42.093831","","","","","","",""
16.0,0.05894453078508377,0.001991172784156033,"train",17700.0,"2021-11-23 10:27:45.114771","","","","","","",""
16.0,0.037726469337940216,0.0019909497979688877,"train",17720.0,"2021-11-23 10:27:48.673090","","","","","","",""
16.0,0.05075914412736893,0.0019907240431519713,"train",17740.0,"2021-11-23 10:27:51.732769","","","","","","",""
16.0,0.06247023493051529,0.001990495520336026,"train",17760.0,"2021-11-23 10:27:54.974335","","","","","","",""
16.0,0.051981110125780106,0.0019902642301595284,"train",17780.0,"2021-11-23 10:27:57.982045","","","","","","",""
16.0,0.04907447099685669,0.001990030173268685,"train",17800.0,"2021-11-23 10:28:00.934650","","","","","","",""
16.0,0.04994852468371391,0.0019897933503174345,"train",17820.0,"2021-11-23 10:28:03.900855","","","","","","",""
16.0,0.02836286649107933,0.0019895537619674425,"train",17840.0,"2021-11-23 10:28:06.938917","","","","","","",""
16.0,0.04268236458301544,0.001989311408888101,"train",17860.0,"2021-11-23 10:28:10.072236","","","","","","",""
16.0,0.030746983364224434,0.001989066291756527,"train",17880.0,"2021-11-23 10:28:13.870571","","","","","","",""
16.0,0.03020406886935234,0.00198881841125756,"train",17900.0,"2021-11-23 10:28:16.971086","","","","","","",""
16.0,0.03763530030846596,0.0019885677680837595,"train",17920.0,"2021-11-23 10:28:20.073324","","","","","","",""
16.0,0.0697273388504982,0.001988314362935404,"train",17940.0,"2021-11-23 10:28:23.199707","","","","","","",""
16.0,0.052369751036167145,0.0019880581965204896,"train",17960.0,"2021-11-23 10:28:26.294769","","","","","","",""
16.0,0.019179195165634155,0.0019877992695547255,"train",17980.0,"2021-11-23 10:28:29.471480","","","","","","",""
16.0,0.04650653898715973,0.0019875375827615354,"train",18000.0,"2021-11-23 10:28:32.625196","","","","","","",""
16.0,0.07739335298538208,0.0019872731368720527,"train",18020.0,"2021-11-23 10:28:36.429041","","","","","","",""
16.0,0.07508259266614914,0.00198700593262512,"train",18040.0,"2021-11-23 10:28:39.599656","","","","","","",""
16.0,0.04605666548013687,0.001986735970767286,"train",18060.0,"2021-11-23 10:28:42.677707","","","","","","",""
16.0,0.04673017933964729,0.001986463252052804,"train",18080.0,"2021-11-23 10:28:45.787055","","","","","","",""
16.0,0.02726023644208908,0.0019861877772436305,"train",18100.0,"2021-11-23 10:28:48.860400","","","","","","",""
16.0,0.05485004931688309,0.001985909547109422,"train",18120.0,"2021-11-23 10:28:51.937105","","","","","","",""
16.0,0.03322817385196686,0.001985628562427533,"train",18140.0,"2021-11-23 10:28:55.077376","","","","","","",""
16.0,0.06244790926575661,0.001985344823983014,"train",18160.0,"2021-11-23 10:28:58.874771","","","","","","",""
16.0,0.03771784156560898,0.001985058332568609,"train",18180.0,"2021-11-23 10:29:01.928871","","","","","","",""
16.0,0.044562824070453644,0.001984769088984755,"train",18200.0,"2021-11-23 10:29:04.930676","","","","","","",""
16.0,0.054476384073495865,0.001984477094039576,"train",18220.0,"2021-11-23 10:29:07.974264","","","","","","",""
16.0,0.038801711052656174,0.001984182348548885,"train",18240.0,"2021-11-23 10:29:10.921390","","","","","","",""
16.0,"","","train",18258.0,"2021-11-23 10:32:37.540876",0.7000800407480172,0.8283913530509849,0.9883183645431133,0.7616712599186746,0.6897095914972083,0.7224576105428941,0.512982018479721
16.0,"","","val",18258.0,"2021-11-23 10:33:30.915435",0.5916734315203526,0.6263785144880498,0.9616071783878207,0.6368434780581728,0.5414990148206423,0.5667530191357856,0.3589229267809309
17.0,0.028882985934615135,0.00198388485333618,"train",18260.0,"2021-11-23 10:33:33.699823","","","","","","",""
17.0,0.03654751181602478,0.0019835846092326396,"train",18280.0,"2021-11-23 10:33:36.899740","","","","","","",""
17.0,0.06535282731056213,0.0019832816170771246,"train",18300.0,"2021-11-23 10:33:40.666426","","","","","","",""
17.0,0.05211888998746872,0.001982975877716172,"train",18320.0,"2021-11-23 10:33:43.636664","","","","","","",""
17.0,0.0794624611735344,0.0019826673920039957,"train",18340.0,"2021-11-23 10:33:46.681277","","","","","","",""
17.0,0.054722514003515244,0.0019823561608024822,"train",18360.0,"2021-11-23 10:33:49.672733","","","","","","",""
17.0,0.06092862784862518,0.0019820421849811886,"train",18380.0,"2021-11-23 10:33:52.776815","","","","","","",""
17.0,0.048002492636442184,0.0019817254654173402,"train",18400.0,"2021-11-23 10:33:55.854494","","","","","","",""
17.0,0.06222934648394585,0.0019814060029958278,"train",18420.0,"2021-11-23 10:33:58.913413","","","","","","",""
17.0,0.03709114342927933,0.001981083798609206,"train",18440.0,"2021-11-23 10:34:02.590541","","","","","","",""
17.0,0.04274347424507141,0.0019807588531576908,"train",18460.0,"2021-11-23 10:34:05.680715","","","","","","",""
17.0,0.032248180359601974,0.0019804311675491555,"train",18480.0,"2021-11-23 10:34:08.765491","","","","","","",""
17.0,0.07494582235813141,0.00198010074269913,"train",18500.0,"2021-11-23 10:34:11.864279","","","","","","",""
17.0,0.038829393684864044,0.0019797675795307965,"train",18520.0,"2021-11-23 10:34:14.965822","","","","","","",""
17.0,0.05815769359469414,0.0019794316789749885,"train",18540.0,"2021-11-23 10:34:18.060113","","","","","","",""
17.0,0.03332816809415817,0.0019790930419701877,"train",18560.0,"2021-11-23 10:34:21.178248","","","","","","",""
17.0,0.039815932512283325,0.0019787516694625214,"train",18580.0,"2021-11-23 10:34:24.376773","","","","","","",""
17.0,0.02647070400416851,0.0019784075624057584,"train",18600.0,"2021-11-23 10:34:28.168958","","","","","","",""
17.0,0.043442800641059875,0.0019780607217613094,"train",18620.0,"2021-11-23 10:34:31.282997","","","","","","",""
17.0,0.04524034261703491,0.001977711148498221,"train",18640.0,"2021-11-23 10:34:34.297031","","","","","","",""
17.0,0.04339688643813133,0.0019773588435931756,"train",18660.0,"2021-11-23 10:34:37.410845","","","","","","",""
17.0,0.04705366864800453,0.0019770038080304873,"train",18680.0,"2021-11-23 10:34:40.531847","","","","","","",""
17.0,0.027322540059685707,0.001976646042802099,"train",18700.0,"2021-11-23 10:34:43.590922","","","","","","",""
17.0,0.023673225194215775,0.0019762855489075808,"train",18720.0,"2021-11-23 10:34:46.665698","","","","","","",""
17.0,0.05266217142343521,0.001975922327354126,"train",18740.0,"2021-11-23 10:34:50.440654","","","","","","",""
17.0,0.053193606436252594,0.001975556379156549,"train",18760.0,"2021-11-23 10:34:53.525260","","","","","","",""
17.0,0.041627198457717896,0.0019751877053372823,"train",18780.0,"2021-11-23 10:34:56.589078","","","","","","",""
17.0,0.04748500511050224,0.001974816306926373,"train",18800.0,"2021-11-23 10:34:59.638074","","","","","","",""
17.0,0.032290972769260406,0.001974442184961482,"train",18820.0,"2021-11-23 10:35:02.599882","","","","","","",""
17.0,0.06315169483423233,0.0019740653404878776,"train",18840.0,"2021-11-23 10:35:05.611016","","","","","","",""
17.0,0.038784027099609375,0.0019736857745584362,"train",18860.0,"2021-11-23 10:35:08.585471","","","","","","",""
17.0,0.08085543662309647,0.0019733034882336367,"train",18880.0,"2021-11-23 10:35:12.316138","","","","","","",""
17.0,0.06515125185251236,0.0019729184825815586,"train",18900.0,"2021-11-23 10:35:15.457258","","","","","","",""
17.0,0.05210883915424347,0.0019725307586778806,"train",18920.0,"2021-11-23 10:35:18.619202","","","","","","",""
17.0,0.05131297931075096,0.001972140317605874,"train",18940.0,"2021-11-23 10:35:21.773060","","","","","","",""
17.0,0.05909819155931473,0.0019717471604564028,"train",18960.0,"2021-11-23 10:35:24.981339","","","","","","",""
17.0,0.04688574746251106,0.0019713512883279185,"train",18980.0,"2021-11-23 10:35:28.010786","","","","","","",""
17.0,0.06109349802136421,0.00197095270232646,"train",19000.0,"2021-11-23 10:35:31.166330","","","","","","",""
17.0,0.037156786769628525,0.001970551403565646,"train",19020.0,"2021-11-23 10:35:34.937956","","","","","","",""
17.0,0.02876310423016548,0.0019701473931666765,"train",19040.0,"2021-11-23 10:35:38.069479","","","","","","",""
17.0,0.036768872290849686,0.001969740672258327,"train",19060.0,"2021-11-23 10:35:41.096499","","","","","","",""
17.0,0.05481759458780289,0.0019693312419769454,"train",19080.0,"2021-11-23 10:35:44.200214","","","","","","",""
17.0,0.04967181757092476,0.0019689191034664498,"train",19100.0,"2021-11-23 10:35:47.355574","","","","","","",""
17.0,0.060507941991090775,0.0019685042578783257,"train",19120.0,"2021-11-23 10:35:50.519993","","","","","","",""
17.0,0.03708203509449959,0.00196808670637162,"train",19140.0,"2021-11-23 10:35:53.621040","","","","","","",""
17.0,0.03134728968143463,0.001967666450112942,"train",19160.0,"2021-11-23 10:35:57.305300","","","","","","",""
17.0,0.05811635032296181,0.001967243490276456,"train",19180.0,"2021-11-23 10:36:00.276533","","","","","","",""
17.0,0.025345085188746452,0.0019668178280438818,"train",19200.0,"2021-11-23 10:36:03.264074","","","","","","",""
17.0,0.04051783308386803,0.0019663894646044875,"train",19220.0,"2021-11-23 10:36:06.243933","","","","","","",""
17.0,0.023405475541949272,0.001965958401155089,"train",19240.0,"2021-11-23 10:36:09.311490","","","","","","",""
17.0,0.04672713950276375,0.0019655246389000463,"train",19260.0,"2021-11-23 10:36:12.338793","","","","","","",""
17.0,0.05608028545975685,0.0019650881790512597,"train",19280.0,"2021-11-23 10:36:15.473374","","","","","","",""
17.0,0.046942222863435745,0.001964649022828165,"train",19300.0,"2021-11-23 10:36:18.588499","","","","","","",""
17.0,0.057895902544260025,0.0019642071714577325,"train",19320.0,"2021-11-23 10:36:22.331834","","","","","","",""
17.0,"","","train",19332.0,"2021-11-23 10:39:48.808054",0.7229571418176526,0.8469962765359778,0.9900092136937219,0.7773968685563825,0.7049088586024056,0.738057595667568,0.5366953536712684
17.0,"","","val",19332.0,"2021-11-23 10:40:42.299901",0.6033283080134524,0.6346325667498998,0.9620058830858507,0.6412991266744276,0.5538230558881139,0.5762397387147056,0.37146884781377076
18.0,0.02835598774254322,0.0019637626261744634,"train",19340.0,"2021-11-23 10:40:46.091711","","","","","","",""
18.0,0.07021988183259964,0.001963315388220384,"train",19360.0,"2021-11-23 10:40:49.295543","","","","","","",""
18.0,0.06450454145669937,0.0019628654588450443,"train",19380.0,"2021-11-23 10:40:52.407927","","","","","","",""
18.0,0.027668587863445282,0.001962412839305514,"train",19400.0,"2021-11-23 10:40:55.401102","","","","","","",""
18.0,0.031065087765455246,0.0019619575308663785,"train",19420.0,"2021-11-23 10:40:58.438690","","","","","","",""
18.0,0.05795237049460411,0.001961499534799737,"train",19440.0,"2021-11-23 10:41:01.492298","","","","","","",""
18.0,0.046941932290792465,0.001961038852385196,"train",19460.0,"2021-11-23 10:41:04.511854","","","","","","",""
18.0,0.037132102996110916,0.0019605754849098683,"train",19480.0,"2021-11-23 10:41:08.345092","","","","","","",""
18.0,0.03083891235291958,0.0019601094336683693,"train",19500.0,"2021-11-23 10:41:11.434231","","","","","","",""
18.0,0.035995882004499435,0.0019596406999628116,"train",19520.0,"2021-11-23 10:41:14.621880","","","","","","",""
18.0,0.05046495795249939,0.0019591692851028022,"train",19540.0,"2021-11-23 10:41:17.737512","","","","","","",""
18.0,0.04611855372786522,0.001958695190405441,"train",19560.0,"2021-11-23 10:41:20.859852","","","","","","",""
18.0,0.0538584366440773,0.001958218417195312,"train",19580.0,"2021-11-23 10:41:23.996873","","","","","","",""
18.0,0.03527058660984039,0.001957738966804486,"train",19600.0,"2021-11-23 10:41:27.127692","","","","","","",""
18.0,0.05508727952837944,0.001957256840572511,"train",19620.0,"2021-11-23 10:41:30.160191","","","","","","",""
18.0,0.04138002172112465,0.0019567720398464133,"train",19640.0,"2021-11-23 10:41:33.176210","","","","","","",""
18.0,0.03458978980779648,0.00195628456598069,"train",19660.0,"2021-11-23 10:41:36.843888","","","","","","",""
18.0,0.028819674625992775,0.001955794420337307,"train",19680.0,"2021-11-23 10:41:39.797669","","","","","","",""
18.0,0.06312823295593262,0.0019553016042856957,"train",19700.0,"2021-11-23 10:41:42.870934","","","","","","",""
18.0,0.0603683739900589,0.001954806119202748,"train",19720.0,"2021-11-23 10:41:46.038843","","","","","","",""
18.0,0.04075469449162483,0.001954307966472812,"train",19740.0,"2021-11-23 10:41:49.153788","","","","","","",""
18.0,0.032980456948280334,0.0019538071474876914,"train",19760.0,"2021-11-23 10:41:52.246133","","","","","","",""
18.0,0.035128794610500336,0.001953303663646636,"train",19780.0,"2021-11-23 10:41:55.319113","","","","","","",""
18.0,0.06698838621377945,0.0019527975163563436,"train",19800.0,"2021-11-23 10:41:58.385504","","","","","","",""
18.0,0.035793084651231766,0.0019522887070309524,"train",19820.0,"2021-11-23 10:42:01.454358","","","","","","",""
18.0,0.03271627426147461,0.0019517772370920379,"train",19840.0,"2021-11-23 10:42:05.230652","","","","","","",""
18.0,0.05228869989514351,0.0019512631079686104,"train",19860.0,"2021-11-23 10:42:08.254686","","","","","","",""
18.0,0.0251445509493351,0.001950746321097108,"train",19880.0,"2021-11-23 10:42:11.217338","","","","","","",""
18.0,0.03302623704075813,0.0019502268779213957,"train",19900.0,"2021-11-23 10:42:14.163319","","","","","","",""
18.0,0.03141406178474426,0.0019497047798927598,"train",19920.0,"2021-11-23 10:42:17.119641","","","","","","",""
18.0,0.04389939084649086,0.001949180028469903,"train",19940.0,"2021-11-23 10:42:20.095347","","","","","","",""
18.0,0.04033263027667999,0.0019486526251189435,"train",19960.0,"2021-11-23 10:42:23.115181","","","","","","",""
18.0,0.028159067034721375,0.0019481225713134064,"train",19980.0,"2021-11-23 10:42:26.112527","","","","","","",""
18.0,0.07686326652765274,0.0019475898685342235,"train",20000.0,"2021-11-23 10:42:29.173531","","","","","","",""
18.0,0.022573813796043396,0.0019470545182697272,"train",20020.0,"2021-11-23 10:42:32.865557","","","","","","",""
18.0,0.06187808886170387,0.001946516522015647,"train",20040.0,"2021-11-23 10:42:35.949969","","","","","","",""
18.0,0.0268190186470747,0.0019459758812751047,"train",20060.0,"2021-11-23 10:42:39.009901","","","","","","",""
18.0,0.034697432070970535,0.0019454325975586106,"train",20080.0,"2021-11-23 10:42:42.050931","","","","","","",""
18.0,0.0344596728682518,0.0019448866723840602,"train",20100.0,"2021-11-23 10:42:45.129241","","","","","","",""
18.0,0.02991146594285965,0.001944338107276728,"train",20120.0,"2021-11-23 10:42:48.271569","","","","","","",""
18.0,0.04453905299305916,0.0019437869037692644,"train",20140.0,"2021-11-23 10:42:51.435165","","","","","","",""
18.0,0.03153574466705322,0.0019432330634016912,"train",20160.0,"2021-11-23 10:42:54.524513","","","","","","",""
18.0,0.03789779543876648,0.0019426765877213986,"train",20180.0,"2021-11-23 10:42:57.705258","","","","","","",""
18.0,0.06160258501768112,0.0019421174782831383,"train",20200.0,"2021-11-23 10:43:01.417133","","","","","","",""
