"epoch","loss","lr","part","step","time","accuracy","auprc","auroc","challenge_metric","f_beta_measure","f_measure","g_beta_measure"
0.0,0.2490173578262329,8.000730236035311e-05,"train",20.0,"2021-11-23 12:58:16.881292","","","","","","",""
0.0,0.29891425371170044,8.002920933031948e-05,"train",40.0,"2021-11-23 12:58:20.470430","","","","","","",""
0.0,0.1621277928352356,8.006572057662293e-05,"train",60.0,"2021-11-23 12:58:23.879683","","","","","","",""
0.0,0.1342059075832367,8.011683554380914e-05,"train",80.0,"2021-11-23 12:58:28.038656","","","","","","",""
0.0,0.12299494445323944,8.018255345425274e-05,"train",100.0,"2021-11-23 12:58:31.541424","","","","","","",""
0.0,0.14002756774425507,8.026287330817079e-05,"train",120.0,"2021-11-23 12:58:35.074734","","","","","","",""
0.0,0.15395890176296234,8.03577938836373e-05,"train",140.0,"2021-11-23 12:58:38.585933","","","","","","",""
0.0,0.11287001520395279,8.04673137366021e-05,"train",160.0,"2021-11-23 12:58:41.928852","","","","","","",""
0.0,0.1320081502199173,8.059143120091187e-05,"train",180.0,"2021-11-23 12:58:46.001471","","","","","","",""
0.0,0.09565813094377518,8.073014438833613e-05,"train",200.0,"2021-11-23 12:58:49.395660","","","","","","",""
0.0,0.08340826630592346,8.088345118859724e-05,"train",220.0,"2021-11-23 12:58:52.748090","","","","","","",""
0.0,0.09886546432971954,8.10513492693996e-05,"train",240.0,"2021-11-23 12:58:56.309555","","","","","","",""
0.0,0.10420847684144974,8.123383607646804e-05,"train",260.0,"2021-11-23 12:58:59.795976","","","","","","",""
0.0,0.09885670989751816,8.143090883358495e-05,"train",280.0,"2021-11-23 12:59:03.765307","","","","","","",""
0.0,0.07165274769067764,8.164256454263295e-05,"train",300.0,"2021-11-23 12:59:07.191242","","","","","","",""
0.0,0.13088925182819366,8.186879998364088e-05,"train",320.0,"2021-11-23 12:59:10.780051","","","","","","",""
0.0,0.09619508683681488,8.210961171483213e-05,"train",340.0,"2021-11-23 12:59:14.354694","","","","","","",""
0.0,0.09842661023139954,8.236499607267717e-05,"train",360.0,"2021-11-23 12:59:17.753535","","","","","","",""
0.0,0.0764545425772667,8.26349491719505e-05,"train",380.0,"2021-11-23 12:59:21.859496","","","","","","",""
0.0,0.08915261179208755,8.291946690578713e-05,"train",400.0,"2021-11-23 12:59:25.317354","","","","","","",""
0.0,0.1262601763010025,8.321854494574774e-05,"train",420.0,"2021-11-23 12:59:28.799837","","","","","","",""
0.0,0.08873742073774338,8.353217874188293e-05,"train",440.0,"2021-11-23 12:59:32.203991","","","","","","",""
0.0,0.1314723938703537,8.38603635228035e-05,"train",460.0,"2021-11-23 12:59:35.592903","","","","","","",""
0.0,0.09764907509088516,8.420309429575212e-05,"train",480.0,"2021-11-23 12:59:39.781712","","","","","","",""
0.0,0.10624454915523529,8.456036584667914e-05,"train",500.0,"2021-11-23 12:59:43.421499","","","","","","",""
0.0,0.12230224907398224,8.493217274032315e-05,"train",520.0,"2021-11-23 12:59:47.080098","","","","","","",""
0.0,0.08751614391803741,8.531850932029235e-05,"train",540.0,"2021-11-23 12:59:50.573215","","","","","","",""
0.0,0.11079207807779312,8.571936970915212e-05,"train",560.0,"2021-11-23 12:59:53.985647","","","","","","",""
0.0,0.09918752312660217,8.613474780851246e-05,"train",580.0,"2021-11-23 12:59:58.178771","","","","","","",""
0.0,0.10349734127521515,8.656463729912224e-05,"train",600.0,"2021-11-23 13:00:01.637352","","","","","","",""
0.0,0.11770712584257126,8.700903164096468e-05,"train",620.0,"2021-11-23 13:00:05.113881","","","","","","",""
0.0,0.08455010503530502,8.746792407335769e-05,"train",640.0,"2021-11-23 13:00:08.509420","","","","","","",""
0.0,0.09315965324640274,8.794130761505497e-05,"train",660.0,"2021-11-23 13:00:11.939542","","","","","","",""
0.0,0.11906720697879791,8.842917506435462e-05,"train",680.0,"2021-11-23 13:00:15.337659","","","","","","",""
0.0,0.09062784165143967,8.893151899920645e-05,"train",700.0,"2021-11-23 13:00:19.429916","","","","","","",""
0.0,0.1134197860956192,8.944833177732632e-05,"train",720.0,"2021-11-23 13:00:22.808137","","","","","","",""
0.0,0.1117648258805275,8.997960553631186e-05,"train",740.0,"2021-11-23 13:00:26.192540","","","","","","",""
0.0,0.08603250235319138,9.052533219376224e-05,"train",760.0,"2021-11-23 13:00:29.579249","","","","","","",""
0.0,0.10763369500637054,9.108550344740104e-05,"train",780.0,"2021-11-23 13:00:33.056661","","","","","","",""
0.0,0.07813122868537903,9.166011077520208e-05,"train",800.0,"2021-11-23 13:00:37.203914","","","","","","",""
0.0,0.06588203459978104,9.224914543552059e-05,"train",820.0,"2021-11-23 13:00:40.680808","","","","","","",""
0.0,0.10524933785200119,9.285259846722417e-05,"train",840.0,"2021-11-23 13:00:44.130196","","","","","","",""
0.0,0.09549058973789215,9.34704606898307e-05,"train",860.0,"2021-11-23 13:00:47.524191","","","","","","",""
0.0,0.10651742666959763,9.410272270364735e-05,"train",880.0,"2021-11-23 13:00:50.919714","","","","","","",""
0.0,0.1081332117319107,9.474937488991348e-05,"train",900.0,"2021-11-23 13:00:54.918286","","","","","","",""
0.0,0.0944678783416748,9.541040741094719e-05,"train",920.0,"2021-11-23 13:00:58.411267","","","","","","",""
0.0,0.08746611326932907,9.608581021029522e-05,"train",940.0,"2021-11-23 13:01:01.918574","","","","","","",""
0.0,0.09129713475704193,9.677557301288509e-05,"train",960.0,"2021-11-23 13:01:05.376686","","","","","","",""
0.0,0.09355206042528152,9.747968532518238e-05,"train",980.0,"2021-11-23 13:01:08.761693","","","","","","",""
0.0,0.11571961641311646,9.819813643535029e-05,"train",1000.0,"2021-11-23 13:01:12.727495","","","","","","",""
0.0,0.11573512107133865,9.893091541341185e-05,"train",1020.0,"2021-11-23 13:01:16.193186","","","","","","",""
0.0,0.13566894829273224,9.967801111141644e-05,"train",1040.0,"2021-11-23 13:01:19.719311","","","","","","",""
0.0,0.08064883202314377,0.00010043941216361023,"train",1060.0,"2021-11-23 13:01:23.351973","","","","","","",""
0.0,"","","train",1074.0,"2021-11-23 13:04:46.112118",0.4284799534308375,0.39099889875495547,0.8826892504143776,0.4398118539914156,0.34126772606913813,0.3432836242190152,0.20717720322354818
0.0,"","","val",1074.0,"2021-11-23 13:05:38.031929",0.4228806679809811,0.3687727851933257,0.8669554723887026,0.429491113123705,0.330114330930927,0.3311270302906158,0.1978107724503813
1.0,0.10467059910297394,0.00010121510698660771,"train",1080.0,"2021-11-23 13:05:41.409081","","","","","","",""
1.0,0.10506771504878998,0.00010200508377956928,"train",1100.0,"2021-11-23 13:05:45.773441","","","","","","",""
1.0,0.08781757950782776,0.00010280933052437993,"train",1120.0,"2021-11-23 13:05:49.347699","","","","","","",""
1.0,0.09449956566095352,0.00010362783498583223,"train",1140.0,"2021-11-23 13:05:52.788362","","","","","","",""
1.0,0.07331075519323349,0.0001044605847118124,"train",1160.0,"2021-11-23 13:05:56.289022","","","","","","",""
1.0,0.09037178009748459,0.0001053075670334907,"train",1180.0,"2021-11-23 13:05:59.815145","","","","","","",""
1.0,0.09716245532035828,0.00010616876906551181,"train",1200.0,"2021-11-23 13:06:03.904288","","","","","","",""
1.0,0.08720139414072037,0.0001070441777061941,"train",1220.0,"2021-11-23 13:06:07.215741","","","","","","",""
1.0,0.08029802143573761,0.00010793377963772563,"train",1240.0,"2021-11-23 13:06:10.486569","","","","","","",""
1.0,0.09576040506362915,0.0001088375613263698,"train",1260.0,"2021-11-23 13:06:13.841383","","","","","","",""
1.0,0.08439891785383224,0.00010975550902266908,"train",1280.0,"2021-11-23 13:06:17.217066","","","","","","",""
1.0,0.07498504221439362,0.00011068760876165474,"train",1300.0,"2021-11-23 13:06:21.231031","","","","","","",""
1.0,0.09590926766395569,0.0001116338463630598,"train",1320.0,"2021-11-23 13:06:24.731574","","","","","","",""
1.0,0.07974795252084732,0.00011259420743153455,"train",1340.0,"2021-11-23 13:06:28.147622","","","","","","",""
1.0,0.07844465225934982,0.00011356867735686535,"train",1360.0,"2021-11-23 13:06:31.523643","","","","","","",""
1.0,0.08269041031599045,0.00011455724131419621,"train",1380.0,"2021-11-23 13:06:34.894384","","","","","","",""
1.0,0.08631657063961029,0.00011555988426425654,"train",1400.0,"2021-11-23 13:06:39.073460","","","","","","",""
1.0,0.08609632402658463,0.00011657659095358746,"train",1420.0,"2021-11-23 13:06:42.642518","","","","","","",""
1.0,0.09714950621128082,0.00011760734591477516,"train",1440.0,"2021-11-23 13:06:46.234429","","","","","","",""
1.0,0.09933331608772278,0.00011865213346668618,"train",1460.0,"2021-11-23 13:06:49.745061","","","","","","",""
1.0,0.09868597984313965,0.00011971093771470502,"train",1480.0,"2021-11-23 13:06:53.254350","","","","","","",""
1.0,0.09260796010494232,0.0001207837425509777,"train",1500.0,"2021-11-23 13:06:56.894376","","","","","","",""
1.0,0.10061254352331161,0.00012187053165465503,"train",1520.0,"2021-11-23 13:07:01.133215","","","","","","",""
1.0,0.09209798276424408,0.000122971288492142,"train",1540.0,"2021-11-23 13:07:04.496397","","","","","","",""
1.0,0.08799320459365845,0.00012408599631734863,"train",1560.0,"2021-11-23 13:07:07.862911","","","","","","",""
1.0,0.07692990452051163,0.00012521463817194542,"train",1580.0,"2021-11-23 13:07:11.212162","","","","","","",""
1.0,0.08126064389944077,0.00012635719688562077,"train",1600.0,"2021-11-23 13:07:14.528119","","","","","","",""
1.0,0.06734579056501389,0.00012751365507634267,"train",1620.0,"2021-11-23 13:07:18.568163","","","","","","",""
1.0,0.09736710041761398,0.0001286839951506226,"train",1640.0,"2021-11-23 13:07:21.937213","","","","","","",""
1.0,0.0755772814154625,0.00012986819930378333,"train",1660.0,"2021-11-23 13:07:25.281968","","","","","","",""
1.0,0.08903926610946655,0.00013106624952023064,"train",1680.0,"2021-11-23 13:07:28.619339","","","","","","",""
1.0,0.08366759121417999,0.00013227812757372545,"train",1700.0,"2021-11-23 13:07:31.959363","","","","","","",""
1.0,0.08787347376346588,0.00013350381502766394,"train",1720.0,"2021-11-23 13:07:35.947067","","","","","","",""
1.0,0.07491090148687363,0.00013474329323535494,"train",1740.0,"2021-11-23 13:07:39.419745","","","","","","",""
1.0,0.0858360305428505,0.0001359965433403059,"train",1760.0,"2021-11-23 13:07:42.869495","","","","","","",""
1.0,0.0951089859008789,0.00013726354627650872,"train",1780.0,"2021-11-23 13:07:46.318727","","","","","","",""
1.0,0.07712652534246445,0.00013854428276873052,"train",1800.0,"2021-11-23 13:07:49.718034","","","","","","",""
1.0,0.07080298662185669,0.00013983873333280506,"train",1820.0,"2021-11-23 13:07:53.721943","","","","","","",""
1.0,0.0635194256901741,0.00014114687827593156,"train",1840.0,"2021-11-23 13:07:57.174994","","","","","","",""
1.0,0.06570101529359818,0.00014246869769697352,"train",1860.0,"2021-11-23 13:08:00.749296","","","","","","",""
1.0,0.07739758491516113,0.00014380417148676054,"train",1880.0,"2021-11-23 13:08:04.306987","","","","","","",""
1.0,0.07976048439741135,0.00014515327932839404,"train",1900.0,"2021-11-23 13:08:07.807334","","","","","","",""
1.0,0.08797649294137955,0.0001465160006975598,"train",1920.0,"2021-11-23 13:08:11.918648","","","","","","",""
1.0,0.06786161661148071,0.00014789231486283454,"train",1940.0,"2021-11-23 13:08:15.411582","","","","","","",""
1.0,0.06487876176834106,0.00014928220088600633,"train",1960.0,"2021-11-23 13:08:18.908214","","","","","","",""
1.0,0.1099967285990715,0.00015068563762239045,"train",1980.0,"2021-11-23 13:08:22.381126","","","","","","",""
1.0,0.08605867624282837,0.00015210260372115238,"train",2000.0,"2021-11-23 13:08:25.857368","","","","","","",""
1.0,0.0768919363617897,0.00015353307762563115,"train",2020.0,"2021-11-23 13:08:29.959245","","","","","","",""
1.0,0.10894261300563812,0.00015497703757366872,"train",2040.0,"2021-11-23 13:08:33.370573","","","","","","",""
1.0,0.07760562747716904,0.00015643446159794,"train",2060.0,"2021-11-23 13:08:36.816761","","","","","","",""
1.0,0.09836341440677643,0.0001579053275262887,"train",2080.0,"2021-11-23 13:08:40.340021","","","","","","",""
1.0,0.07923915237188339,0.00015938961298206183,"train",2100.0,"2021-11-23 13:08:43.876060","","","","","","",""
1.0,0.07914215326309204,0.00016088729538445297,"train",2120.0,"2021-11-23 13:08:47.261986","","","","","","",""
1.0,0.1144026443362236,0.000162398351948844,"train",2140.0,"2021-11-23 13:08:51.267188","","","","","","",""
1.0,"","","train",2148.0,"2021-11-23 13:12:13.106654",0.4424652550389289,0.47220507546904106,0.9232751063634956,0.5084714379211457,0.39950962407343177,0.39858433510240343,0.23986889127754896
1.0,"","","val",2148.0,"2021-11-23 13:13:05.327522",0.4322741505276586,0.4398883842747612,0.9069434184883443,0.491663566847852,0.37975660099011316,0.3757703147655027,0.2277011853513142
2.0,0.10329412668943405,0.00016392275968715297,"train",2160.0,"2021-11-23 13:13:09.809572","","","","","","",""
2.0,0.06732287257909775,0.00016546049540818223,"train",2180.0,"2021-11-23 13:13:13.287791","","","","","","",""
2.0,0.0755670815706253,0.00016701153571797313,"train",2200.0,"2021-11-23 13:13:16.663069","","","","","","",""
2.0,0.10973562300205231,0.00016857585702016015,"train",2220.0,"2021-11-23 13:13:20.089552","","","","","","",""
2.0,0.07811269909143448,0.00017015343551633126,"train",2240.0,"2021-11-23 13:13:24.220457","","","","","","",""
2.0,0.06494307518005371,0.0001717442472063892,"train",2260.0,"2021-11-23 13:13:27.601643","","","","","","",""
2.0,0.06569396704435349,0.00017334826788891681,"train",2280.0,"2021-11-23 13:13:31.039026","","","","","","",""
2.0,0.06488336622714996,0.00017496547316154555,"train",2300.0,"2021-11-23 13:13:34.529160","","","","","","",""
2.0,0.07084085047245026,0.00017659583842132573,"train",2320.0,"2021-11-23 13:13:37.868868","","","","","","",""
2.0,0.06503072381019592,0.00017823933886510217,"train",2340.0,"2021-11-23 13:13:41.853924","","","","","","",""
2.0,0.08090468496084213,0.00017989594948989015,"train",2360.0,"2021-11-23 13:13:45.406634","","","","","","",""
2.0,0.06888069957494736,0.00018156564509325753,"train",2380.0,"2021-11-23 13:13:48.925868","","","","","","",""
2.0,0.07453492283821106,0.0001832484002737059,"train",2400.0,"2021-11-23 13:13:52.454641","","","","","","",""
2.0,0.0979040265083313,0.00018494418943105877,"train",2420.0,"2021-11-23 13:13:55.974596","","","","","","",""
2.0,0.07338231056928635,0.00018665298676685078,"train",2440.0,"2021-11-23 13:14:00.074892","","","","","","",""
2.0,0.09007389843463898,0.0001883747662847191,"train",2460.0,"2021-11-23 13:14:03.614807","","","","","","",""
2.0,0.08480730652809143,0.00019010950179080112,"train",2480.0,"2021-11-23 13:14:07.122355","","","","","","",""
2.0,0.10246280580759048,0.00019185716689412995,"train",2500.0,"2021-11-23 13:14:10.622501","","","","","","",""
2.0,0.1051187664270401,0.00019361773500703797,"train",2520.0,"2021-11-23 13:14:14.135748","","","","","","",""
2.0,0.061736200004816055,0.00019539117934556168,"train",2540.0,"2021-11-23 13:14:18.280612","","","","","","",""
2.0,0.09449811279773712,0.00019717747292984696,"train",2560.0,"2021-11-23 13:14:21.821851","","","","","","",""
2.0,0.05620346963405609,0.0001989765885845624,"train",2580.0,"2021-11-23 13:14:25.338105","","","","","","",""
2.0,0.06456667184829712,0.00020078849893931014,"train",2600.0,"2021-11-23 13:14:28.892711","","","","","","",""
2.0,0.07923049479722977,0.0002026131764290434,"train",2620.0,"2021-11-23 13:14:32.351761","","","","","","",""
2.0,0.1173504889011383,0.00020445059329448614,"train",2640.0,"2021-11-23 13:14:36.800833","","","","","","",""
2.0,0.11476772278547287,0.00020630072158255497,"train",2660.0,"2021-11-23 13:14:40.213866","","","","","","",""
2.0,0.07127835601568222,0.00020816353314678467,"train",2680.0,"2021-11-23 13:14:43.570625","","","","","","",""
2.0,0.08474370837211609,0.00021003899964775505,"train",2700.0,"2021-11-23 13:14:47.015279","","","","","","",""
2.0,0.055766016244888306,0.00021192709255352473,"train",2720.0,"2021-11-23 13:14:50.525823","","","","","","",""
2.0,0.05874527618288994,0.00021382778314006255,"train",2740.0,"2021-11-23 13:14:54.795393","","","","","","",""
2.0,0.07717367261648178,0.00021574104249168615,"train",2760.0,"2021-11-23 13:14:58.229261","","","","","","",""
2.0,0.07133665680885315,0.00021766684150150133,"train",2780.0,"2021-11-23 13:15:01.700051","","","","","","",""
2.0,0.08439181745052338,0.00021960515087184485,"train",2800.0,"2021-11-23 13:15:05.193583","","","","","","",""
2.0,0.12050288170576096,0.00022155594111472978,"train",2820.0,"2021-11-23 13:15:08.788009","","","","","","",""
2.0,0.0682922825217247,0.0002235191825522959,"train",2840.0,"2021-11-23 13:15:12.411303","","","","","","",""
2.0,0.0753035694360733,0.00022549484531725838,"train",2860.0,"2021-11-23 13:15:16.424820","","","","","","",""
2.0,0.07285107672214508,0.00022748289935336434,"train",2880.0,"2021-11-23 13:15:19.766176","","","","","","",""
2.0,0.08421768248081207,0.00022948331441584964,"train",2900.0,"2021-11-23 13:15:23.101782","","","","","","",""
2.0,0.07892092317342758,0.00023149606007189785,"train",2920.0,"2021-11-23 13:15:26.644770","","","","","","",""
2.0,0.1301363706588745,0.00023352110570110476,"train",2940.0,"2021-11-23 13:15:29.972233","","","","","","",""
2.0,0.07778842747211456,0.00023555842049594305,"train",2960.0,"2021-11-23 13:15:33.945338","","","","","","",""
2.0,0.07120981067419052,0.00023760797346223305,"train",2980.0,"2021-11-23 13:15:37.340589","","","","","","",""
2.0,0.1048620417714119,0.00023966973341961028,"train",3000.0,"2021-11-23 13:15:40.696908","","","","","","",""
2.0,0.0501059927046299,0.0002417436690020044,"train",3020.0,"2021-11-23 13:15:44.045707","","","","","","",""
2.0,0.07564069330692291,0.00024382974865811325,"train",3040.0,"2021-11-23 13:15:47.431267","","","","","","",""
2.0,0.05904589593410492,0.000245927940651884,"train",3060.0,"2021-11-23 13:15:51.577614","","","","","","",""
2.0,0.10223247855901718,0.0002480382130629953,"train",3080.0,"2021-11-23 13:15:55.038523","","","","","","",""
2.0,0.07518520206212997,0.0002501605337873443,"train",3100.0,"2021-11-23 13:15:58.554629","","","","","","",""
2.0,0.07325281202793121,0.0002522948705375337,"train",3120.0,"2021-11-23 13:16:02.087840","","","","","","",""
2.0,0.08147954940795898,0.00025444119084336303,"train",3140.0,"2021-11-23 13:16:05.560759","","","","","","",""
2.0,0.08896072208881378,0.00025659946205232364,"train",3160.0,"2021-11-23 13:16:09.679773","","","","","","",""
2.0,0.09861113876104355,0.0002587696513300941,"train",3180.0,"2021-11-23 13:16:13.155998","","","","","","",""
2.0,0.09050153940916061,0.0002609517256610412,"train",3200.0,"2021-11-23 13:16:16.580749","","","","","","",""
2.0,0.08528950065374374,0.00026314565184872084,"train",3220.0,"2021-11-23 13:16:19.933472","","","","","","",""
2.0,"","","train",3222.0,"2021-11-23 13:19:40.624732",0.487331732518373,0.5270415189698033,0.9421636792940659,0.5431327788023927,0.413805773541631,0.4233847547923358,0.2632072939791612
2.0,"","","val",3222.0,"2021-11-23 13:20:32.900481",0.47036994085585065,0.4790796127361561,0.927391332669364,0.5168891196165758,0.389637607160467,0.3986400709122975,0.24145485954333967
3.0,0.07464847713708878,0.0002653513965163838,"train",3240.0,"2021-11-23 13:20:38.460241","","","","","","",""
3.0,0.09981627017259598,0.0002675689261074836,"train",3260.0,"2021-11-23 13:20:42.649477","","","","","","",""
3.0,0.07601150870323181,0.00026979820688618605,"train",3280.0,"2021-11-23 13:20:46.050059","","","","","","",""
3.0,0.08941908180713654,0.00027203920493788433,"train",3300.0,"2021-11-23 13:20:49.450216","","","","","","",""
3.0,0.063474640250206,0.00027429188616971277,"train",3320.0,"2021-11-23 13:20:52.820892","","","","","","",""
3.0,0.09029362350702286,0.0002765562163110668,"train",3340.0,"2021-11-23 13:20:56.210101","","","","","","",""
3.0,0.10627137869596481,0.00027883216091412503,"train",3360.0,"2021-11-23 13:21:00.321701","","","","","","",""
3.0,0.06659022718667984,0.0002811196853543707,"train",3380.0,"2021-11-23 13:21:03.886916","","","","","","",""
3.0,0.09086050093173981,0.00028341875483112134,"train",3400.0,"2021-11-23 13:21:07.478910","","","","","","",""
3.0,0.09716994315385818,0.00028572933436805644,"train",3420.0,"2021-11-23 13:21:11.017490","","","","","","",""
3.0,0.09275300800800323,0.0002880513888137504,"train",3440.0,"2021-11-23 13:21:14.438165","","","","","","",""
3.0,0.057754553854465485,0.0002903848828422063,"train",3460.0,"2021-11-23 13:21:18.447680","","","","","","",""
3.0,0.08478476852178574,0.00029272978095339465,"train",3480.0,"2021-11-23 13:21:21.823442","","","","","","",""
3.0,0.08773067593574524,0.00029508604747379243,"train",3500.0,"2021-11-23 13:21:25.240912","","","","","","",""
3.0,0.0692504271864891,0.00029745364655692653,"train",3520.0,"2021-11-23 13:21:28.683009","","","","","","",""
3.0,0.07755587995052338,0.0002998325421839181,"train",3540.0,"2021-11-23 13:21:32.072519","","","","","","",""
3.0,0.06506146490573883,0.0003022226981640318,"train",3560.0,"2021-11-23 13:21:35.495123","","","","","","",""
3.0,0.11252504587173462,0.00030462407813522494,"train",3580.0,"2021-11-23 13:21:39.539828","","","","","","",""
3.0,0.06213194876909256,0.0003070366455647027,"train",3600.0,"2021-11-23 13:21:42.961948","","","","","","",""
3.0,0.08991880714893341,0.000309460363749471,"train",3620.0,"2021-11-23 13:21:46.325671","","","","","","",""
3.0,0.11540409922599792,0.0003118951958168978,"train",3640.0,"2021-11-23 13:21:49.685863","","","","","","",""
3.0,0.07544239610433578,0.0003143411047252722,"train",3660.0,"2021-11-23 13:21:53.043873","","","","","","",""
3.0,0.081884004175663,0.0003167980532643691,"train",3680.0,"2021-11-23 13:21:57.260079","","","","","","",""
3.0,0.08097529411315918,0.0003192660040560141,"train",3700.0,"2021-11-23 13:22:00.604874","","","","","","",""
3.0,0.08947092294692993,0.0003217449195546528,"train",3720.0,"2021-11-23 13:22:03.989944","","","","","","",""
3.0,0.07519930601119995,0.00032423476204792244,"train",3740.0,"2021-11-23 13:22:07.438086","","","","","","",""
3.0,0.055374059826135635,0.0003267354936572248,"train",3760.0,"2021-11-23 13:22:10.811320","","","","","","",""
3.0,0.09637600183486938,0.0003292470763383026,"train",3780.0,"2021-11-23 13:22:15.146806","","","","","","",""
3.0,0.09013044834136963,0.0003317694718818192,"train",3800.0,"2021-11-23 13:22:18.403753","","","","","","",""
3.0,0.08546832203865051,0.00033430264191393853,"train",3820.0,"2021-11-23 13:22:21.656721","","","","","","",""
3.0,0.0848107635974884,0.0003368465478969097,"train",3840.0,"2021-11-23 13:22:24.944442","","","","","","",""
3.0,0.059734974056482315,0.0003394011511296533,"train",3860.0,"2021-11-23 13:22:28.341740","","","","","","",""
3.0,0.10469094663858414,0.0003419664127483496,"train",3880.0,"2021-11-23 13:22:32.647136","","","","","","",""
3.0,0.07845225930213928,0.00034454229372703074,"train",3900.0,"2021-11-23 13:22:36.171163","","","","","","",""
3.0,0.0915612280368805,0.00034712875487817314,"train",3920.0,"2021-11-23 13:22:39.708542","","","","","","",""
3.0,0.060971006751060486,0.00034972575685329526,"train",3940.0,"2021-11-23 13:22:43.330637","","","","","","",""
3.0,0.08929863572120667,0.0003523332601435541,"train",3960.0,"2021-11-23 13:22:46.984626","","","","","","",""
3.0,0.08290668576955795,0.00035495122508034916,"train",3980.0,"2021-11-23 13:22:51.473460","","","","","","",""
3.0,0.06382612138986588,0.0003575796118359231,"train",4000.0,"2021-11-23 13:22:55.021656","","","","","","",""
3.0,0.0743144154548645,0.00036021838042396906,"train",4020.0,"2021-11-23 13:22:58.488006","","","","","","",""
3.0,0.06959278136491776,0.0003628674907002389,"train",4040.0,"2021-11-23 13:23:01.962794","","","","","","",""
3.0,0.09242330491542816,0.00036552690236315395,"train",4060.0,"2021-11-23 13:23:05.437357","","","","","","",""
3.0,0.06936907768249512,0.00036819657495441773,"train",4080.0,"2021-11-23 13:23:09.659898","","","","","","",""
3.0,0.07015354931354523,0.0003708764678596317,"train",4100.0,"2021-11-23 13:23:13.052097","","","","","","",""
3.0,0.08831119537353516,0.00037356654030891293,"train",4120.0,"2021-11-23 13:23:16.501572","","","","","","",""
3.0,0.07963994890451431,0.0003762667513775148,"train",4140.0,"2021-11-23 13:23:20.039388","","","","","","",""
3.0,0.0818447694182396,0.0003789770599864498,"train",4160.0,"2021-11-23 13:23:23.600381","","","","","","",""
3.0,0.08299926668405533,0.000381697424903113,"train",4180.0,"2021-11-23 13:23:27.169454","","","","","","",""
3.0,0.062126606702804565,0.0003844278047419108,"train",4200.0,"2021-11-23 13:23:31.705988","","","","","","",""
3.0,0.06580593436956406,0.0003871681579648903,"train",4220.0,"2021-11-23 13:23:35.316860","","","","","","",""
3.0,0.06218568980693817,0.0003899184428823709,"train",4240.0,"2021-11-23 13:23:38.684894","","","","","","",""
3.0,0.0733489915728569,0.0003926786176535783,"train",4260.0,"2021-11-23 13:23:42.061643","","","","","","",""
3.0,0.07692599296569824,0.0003954486402872818,"train",4280.0,"2021-11-23 13:23:45.414699","","","","","","",""
3.0,"","","train",4296.0,"2021-11-23 13:27:08.934203",0.5045332169104271,0.5600315138624479,0.9498676010310001,0.5732638333720773,0.4498170873397772,0.45287800609234125,0.28756405104786226
3.0,"","","val",4296.0,"2021-11-23 13:28:01.021820",0.4889249681085469,0.5113707879704303,0.9368555816820525,0.5480631068517553,0.42147133229335504,0.42078850944941554,0.2656665285331031
4.0,0.09800612181425095,0.0003982284686424324,"train",4300.0,"2021-11-23 13:28:04.028223","","","","","","",""
4.0,0.1011584922671318,0.0004010180604288045,"train",4320.0,"2021-11-23 13:28:07.674307","","","","","","",""
4.0,0.07227011024951935,0.00040381737320763873,"train",4340.0,"2021-11-23 13:28:11.056928","","","","","","",""
4.0,0.08237021416425705,0.0004066263643922878,"train",4360.0,"2021-11-23 13:28:14.409167","","","","","","",""
4.0,0.07953386753797531,0.0004094449912488646,"train",4380.0,"2021-11-23 13:28:17.760341","","","","","","",""
4.0,0.06034824252128601,0.0004122732108968923,"train",4400.0,"2021-11-23 13:28:22.000313","","","","","","",""
4.0,0.08811129629611969,0.0004151109803099558,"train",4420.0,"2021-11-23 13:28:25.410164","","","","","","",""
4.0,0.0500669851899147,0.00041795825631635764,"train",4440.0,"2021-11-23 13:28:28.993364","","","","","","",""
4.0,0.05457187816500664,0.0004208149955997739,"train",4460.0,"2021-11-23 13:28:32.523318","","","","","","",""
4.0,0.06690771877765656,0.0004236811546999141,"train",4480.0,"2021-11-23 13:28:35.913488","","","","","","",""
4.0,0.10219240933656693,0.0004265566900131805,"train",4500.0,"2021-11-23 13:28:40.267481","","","","","","",""
4.0,0.05758799985051155,0.0004294415577933337,"train",4520.0,"2021-11-23 13:28:43.675291","","","","","","",""
4.0,0.07170084118843079,0.00043233571415215717,"train",4540.0,"2021-11-23 13:28:47.040909","","","","","","",""
4.0,0.058497365564107895,0.0004352391150601242,"train",4560.0,"2021-11-23 13:28:50.407028","","","","","","",""
4.0,0.07269090414047241,0.0004381517163470684,"train",4580.0,"2021-11-23 13:28:53.757051","","","","","","",""
4.0,0.05358774587512016,0.00044107347370285683,"train",4600.0,"2021-11-23 13:28:58.023984","","","","","","",""
4.0,0.05364418402314186,0.00044400434267806194,"train",4620.0,"2021-11-23 13:29:01.523841","","","","","","",""
4.0,0.04989123344421387,0.00044694427868463907,"train",4640.0,"2021-11-23 13:29:04.855937","","","","","","",""
4.0,0.0736900046467781,0.00044989323699660467,"train",4660.0,"2021-11-23 13:29:08.200393","","","","","","",""
4.0,0.07370749115943909,0.0004528511727507165,"train",4680.0,"2021-11-23 13:29:11.737232","","","","","","",""
4.0,0.09433890879154205,0.00045581804094715645,"train",4700.0,"2021-11-23 13:29:16.247770","","","","","","",""
4.0,0.08829915523529053,0.00045879379645021425,"train",4720.0,"2021-11-23 13:29:19.843545","","","","","","",""
4.0,0.08988311886787415,0.0004617783939889759,"train",4740.0,"2021-11-23 13:29:23.321460","","","","","","",""
4.0,0.05679026246070862,0.0004647717881580103,"train",4760.0,"2021-11-23 13:29:26.770422","","","","","","",""
4.0,0.09639407694339752,0.0004677739334180617,"train",4780.0,"2021-11-23 13:29:30.163356","","","","","","",""
4.0,0.07917668670415878,0.00047078478409674144,"train",4800.0,"2021-11-23 13:29:33.550777","","","","","","",""
4.0,0.056037914007902145,0.00047380429438922305,"train",4820.0,"2021-11-23 13:29:37.778550","","","","","","",""
4.0,0.07053039222955704,0.00047683241835893946,"train",4840.0,"2021-11-23 13:29:41.207202","","","","","","",""
4.0,0.08496853709220886,0.0004798691099382815,"train",4860.0,"2021-11-23 13:29:44.658271","","","","","","",""
4.0,0.07423392683267593,0.0004829143229292986,"train",4880.0,"2021-11-23 13:29:48.111994","","","","","","",""
4.0,0.0686752200126648,0.0004859680110044023,"train",4900.0,"2021-11-23 13:29:51.450777","","","","","","",""
4.0,0.06622335314750671,0.0004890301277070699,"train",4920.0,"2021-11-23 13:29:55.648030","","","","","","",""
4.0,0.0685771256685257,0.0004921006264525525,"train",4940.0,"2021-11-23 13:29:58.996786","","","","","","",""
4.0,0.07017248868942261,0.0004951794605285824,"train",4960.0,"2021-11-23 13:30:02.350185","","","","","","",""
4.0,0.07532186061143875,0.0004982665830960853,"train",4980.0,"2021-11-23 13:30:05.744049","","","","","","",""
4.0,0.12399270385503769,0.0005013619471898913,"train",5000.0,"2021-11-23 13:30:09.218493","","","","","","",""
4.0,0.0831606388092041,0.0005044655057194504,"train",5020.0,"2021-11-23 13:30:13.618006","","","","","","",""
4.0,0.08816906809806824,0.0005075772114695486,"train",5040.0,"2021-11-23 13:30:17.107439","","","","","","",""
4.0,0.04823508858680725,0.0005106970171010257,"train",5060.0,"2021-11-23 13:30:20.724054","","","","","","",""
4.0,0.06828853487968445,0.0005138248751514966,"train",5080.0,"2021-11-23 13:30:24.346187","","","","","","",""
4.0,0.06242593377828598,0.0005169607380360731,"train",5100.0,"2021-11-23 13:30:27.858700","","","","","","",""
4.0,0.0737830251455307,0.000520104558048086,"train",5120.0,"2021-11-23 13:30:32.306491","","","","","","",""
4.0,0.06274233013391495,0.0005232562873598136,"train",5140.0,"2021-11-23 13:30:35.809597","","","","","","",""
4.0,0.10371551662683487,0.0005264158780232072,"train",5160.0,"2021-11-23 13:30:39.314333","","","","","","",""
4.0,0.08881951868534088,0.0005295832819706228,"train",5180.0,"2021-11-23 13:30:42.778551","","","","","","",""
4.0,0.051548071205616,0.0005327584510155488,"train",5200.0,"2021-11-23 13:30:46.230291","","","","","","",""
4.0,0.07687254250049591,0.000535941336853343,"train",5220.0,"2021-11-23 13:30:50.517350","","","","","","",""
4.0,0.06801047176122665,0.0005391318910619655,"train",5240.0,"2021-11-23 13:30:53.981517","","","","","","",""
4.0,0.08903564512729645,0.0005423300651027144,"train",5260.0,"2021-11-23 13:30:57.426922","","","","","","",""
4.0,0.07069028168916702,0.0005455358103209663,"train",5280.0,"2021-11-23 13:31:00.920663","","","","","","",""
4.0,0.07015050947666168,0.0005487490779469157,"train",5300.0,"2021-11-23 13:31:04.453442","","","","","","",""
4.0,0.11867866665124893,0.000551969819096316,"train",5320.0,"2021-11-23 13:31:08.782335","","","","","","",""
4.0,0.08353117108345032,0.0005551979847712252,"train",5340.0,"2021-11-23 13:31:12.288288","","","","","","",""
4.0,0.06844708323478699,0.0005584335258607489,"train",5360.0,"2021-11-23 13:31:15.801507","","","","","","",""
4.0,"","","train",5370.0,"2021-11-23 13:34:38.466256",0.5169613621480026,0.5888841312763479,0.9559207388668208,0.5824520540186934,0.45783042132409013,0.47290567262378974,0.3005742523136878
4.0,"","","val",5370.0,"2021-11-23 13:35:30.447903",0.501971471645599,0.5307558255402142,0.943568951365835,0.5567840574355435,0.43161813940252824,0.4438677004924424,0.27977959691099463
5.0,0.07216920703649521,0.0005616763931417894,"train",5380.0,"2021-11-23 13:35:34.553995","","","","","","",""
5.0,0.07044806331396103,0.0005649265372797939,"train",5400.0,"2021-11-23 13:35:38.068362","","","","","","",""
5.0,0.0805327519774437,0.0005681839088295046,"train",5420.0,"2021-11-23 13:35:41.482189","","","","","","",""
5.0,0.05261313170194626,0.0005714484582357109,"train",5440.0,"2021-11-23 13:35:45.543266","","","","","","",""
5.0,0.04941035434603691,0.0005747201358340048,"train",5460.0,"2021-11-23 13:35:49.078300","","","","","","",""
5.0,0.05245395004749298,0.0005779988918515344,"train",5480.0,"2021-11-23 13:35:52.674807","","","","","","",""
5.0,0.06086995452642441,0.0005812846764077623,"train",5500.0,"2021-11-23 13:35:55.983452","","","","","","",""
5.0,0.09981987625360489,0.0005845774395152243,"train",5520.0,"2021-11-23 13:35:59.471345","","","","","","",""
5.0,0.09335699677467346,0.0005878771310802895,"train",5540.0,"2021-11-23 13:36:03.658290","","","","","","",""
5.0,0.0961475595831871,0.0005911837009039229,"train",5560.0,"2021-11-23 13:36:07.205753","","","","","","",""
5.0,0.05867424234747887,0.0005944970986824485,"train",5580.0,"2021-11-23 13:36:10.655607","","","","","","",""
5.0,0.06613965332508087,0.000597817274008315,"train",5600.0,"2021-11-23 13:36:14.078099","","","","","","",""
5.0,0.06527681648731232,0.0006011441763708635,"train",5620.0,"2021-11-23 13:36:17.608828","","","","","","",""
5.0,0.04890147224068642,0.0006044777551570929,"train",5640.0,"2021-11-23 13:36:21.711178","","","","","","",""
5.0,0.0805998370051384,0.000607817959652434,"train",5660.0,"2021-11-23 13:36:25.109046","","","","","","",""
5.0,0.08897942304611206,0.0006111647390415189,"train",5680.0,"2021-11-23 13:36:28.497825","","","","","","",""
5.0,0.10156934708356857,0.0006145180424089525,"train",5700.0,"2021-11-23 13:36:31.891759","","","","","","",""
5.0,0.057105306535959244,0.0006178778187400902,"train",5720.0,"2021-11-23 13:36:35.359975","","","","","","",""
5.0,0.09243233501911163,0.0006212440169218129,"train",5740.0,"2021-11-23 13:36:39.446949","","","","","","",""
5.0,0.06885945796966553,0.0006246165857433027,"train",5760.0,"2021-11-23 13:36:42.721432","","","","","","",""
5.0,0.06573855876922607,0.0006279954738968251,"train",5780.0,"2021-11-23 13:36:46.033186","","","","","","",""
5.0,0.06763292849063873,0.0006313806299785075,"train",5800.0,"2021-11-23 13:36:49.385596","","","","","","",""
5.0,0.0840020403265953,0.0006347720024891209,"train",5820.0,"2021-11-23 13:36:52.882706","","","","","","",""
5.0,0.07031949609518051,0.0006381695398348657,"train",5840.0,"2021-11-23 13:36:56.999691","","","","","","",""
5.0,0.07052742689847946,0.0006415731903281542,"train",5860.0,"2021-11-23 13:37:00.365129","","","","","","",""
5.0,0.05932645872235298,0.0006449829021883979,"train",5880.0,"2021-11-23 13:37:03.840590","","","","","","",""
5.0,0.10334852337837219,0.0006483986235427956,"train",5900.0,"2021-11-23 13:37:07.324983","","","","","","",""
5.0,0.06950931996107101,0.0006518203024271213,"train",5920.0,"2021-11-23 13:37:10.701705","","","","","","",""
5.0,0.08006793260574341,0.0006552478867865169,"train",5940.0,"2021-11-23 13:37:14.685723","","","","","","",""
5.0,0.0773690715432167,0.0006586813244762815,"train",5960.0,"2021-11-23 13:37:18.058974","","","","","","",""
5.0,0.07559347152709961,0.0006621205632626672,"train",5980.0,"2021-11-23 13:37:21.445817","","","","","","",""
5.0,0.0817473903298378,0.0006655655508236717,"train",6000.0,"2021-11-23 13:37:24.850089","","","","","","",""
5.0,0.08047909289598465,0.0006690162347498356,"train",6020.0,"2021-11-23 13:37:28.256893","","","","","","",""
5.0,0.05457977205514908,0.0006724725625450389,"train",6040.0,"2021-11-23 13:37:32.296924","","","","","","",""
5.0,0.07422556728124619,0.0006759344816273003,"train",6060.0,"2021-11-23 13:37:35.785636","","","","","","",""
5.0,0.05965602025389671,0.0006794019393295771,"train",6080.0,"2021-11-23 13:37:39.354231","","","","","","",""
5.0,0.06518803536891937,0.0006828748829005654,"train",6100.0,"2021-11-23 13:37:42.907762","","","","","","",""
5.0,0.08553583920001984,0.0006863532595055041,"train",6120.0,"2021-11-23 13:37:46.307537","","","","","","",""
5.0,0.10748475044965744,0.0006898370162269777,"train",6140.0,"2021-11-23 13:37:49.686203","","","","","","",""
5.0,0.09411020576953888,0.0006933261000657217,"train",6160.0,"2021-11-23 13:37:53.853539","","","","","","",""
5.0,0.06360165774822235,0.000696820457941429,"train",6180.0,"2021-11-23 13:37:57.395790","","","","","","",""
5.0,0.08034326881170273,0.000700320036693557,"train",6200.0,"2021-11-23 13:38:00.876657","","","","","","",""
5.0,0.09688034653663635,0.0007038247830821358,"train",6220.0,"2021-11-23 13:38:04.448807","","","","","","",""
5.0,0.06083761155605316,0.0007073346437885815,"train",6240.0,"2021-11-23 13:38:07.853205","","","","","","",""
5.0,0.06304167211055756,0.000710849565416502,"train",6260.0,"2021-11-23 13:38:12.065758","","","","","","",""
5.0,0.056363239884376526,0.0007143694944925134,"train",6280.0,"2021-11-23 13:38:15.633899","","","","","","",""
5.0,0.08249811083078384,0.0007178943774670524,"train",6300.0,"2021-11-23 13:38:19.090196","","","","","","",""
5.0,0.09650389105081558,0.0007214241607151901,"train",6320.0,"2021-11-23 13:38:22.528379","","","","","","",""
5.0,0.05539390817284584,0.000724958790537449,"train",6340.0,"2021-11-23 13:38:25.977947","","","","","","",""
5.0,0.06662865728139877,0.0007284982131606195,"train",6360.0,"2021-11-23 13:38:29.946858","","","","","","",""
5.0,0.05437086522579193,0.0007320423747385781,"train",6380.0,"2021-11-23 13:38:33.458975","","","","","","",""
5.0,0.08254405111074448,0.0007355912213531054,"train",6400.0,"2021-11-23 13:38:37.022871","","","","","","",""
5.0,0.07184440642595291,0.000739144699014708,"train",6420.0,"2021-11-23 13:38:40.490041","","","","","","",""
5.0,0.09240283071994781,0.0007427027536634401,"train",6440.0,"2021-11-23 13:38:43.836362","","","","","","",""
5.0,"","","train",6444.0,"2021-11-23 13:42:03.925314",0.5258677144728225,0.6113173864440645,0.9604154159462494,0.6234888098176039,0.5045555623725039,0.5087850422942599,0.3300222639580088
5.0,"","","val",6444.0,"2021-11-23 13:42:56.096790",0.5087556534848661,0.5529856942476064,0.9478131277949047,0.5951722649721182,0.47030170194802545,0.47155995347569135,0.3041057489866159
6.0,0.07477718591690063,0.0007462653311697235,"train",6460.0,"2021-11-23 13:43:02.148792","","","","","","",""
6.0,0.060324862599372864,0.0007498323773351733,"train",6480.0,"2021-11-23 13:43:05.806640","","","","","","",""
6.0,0.08289427310228348,0.0007534038378934223,"train",6500.0,"2021-11-23 13:43:09.335387","","","","","","",""
6.0,0.06405404955148697,0.0007569796585109453,"train",6520.0,"2021-11-23 13:43:12.853386","","","","","","",""
6.0,0.06344997137784958,0.0007605597847878862,"train",6540.0,"2021-11-23 13:43:16.237039","","","","","","",""
6.0,0.08121789991855621,0.0007641441622588871,"train",6560.0,"2021-11-23 13:43:20.470373","","","","","","",""
6.0,0.058342352509498596,0.0007677327363939143,"train",6580.0,"2021-11-23 13:43:23.761636","","","","","","",""
6.0,0.055704936385154724,0.0007713254525990895,"train",6600.0,"2021-11-23 13:43:27.106390","","","","","","",""
6.0,0.08132699131965637,0.0007749222562175211,"train",6620.0,"2021-11-23 13:43:30.559164","","","","","","",""
6.0,0.09628811478614807,0.000778523092530133,"train",6640.0,"2021-11-23 13:43:34.100599","","","","","","",""
6.0,0.06512738019227982,0.0007821279067564996,"train",6660.0,"2021-11-23 13:43:38.482352","","","","","","",""
6.0,0.06633293628692627,0.0007857366440556786,"train",6680.0,"2021-11-23 13:43:41.994639","","","","","","",""
6.0,0.08407177031040192,0.0007893492495270442,"train",6700.0,"2021-11-23 13:43:45.510325","","","","","","",""
6.0,0.1064738929271698,0.0007929656682111239,"train",6720.0,"2021-11-23 13:43:49.034315","","","","","","",""
6.0,0.047572821378707886,0.0007965858450904332,"train",6740.0,"2021-11-23 13:43:52.539565","","","","","","",""
6.0,0.06678691506385803,0.000800209725090314,"train",6760.0,"2021-11-23 13:43:56.088299","","","","","","",""
6.0,0.07543089985847473,0.0008038372530797706,"train",6780.0,"2021-11-23 13:44:00.338785","","","","","","",""
6.0,0.10380101948976517,0.0008074683738723109,"train",6800.0,"2021-11-23 13:44:03.792133","","","","","","",""
6.0,0.060065291821956635,0.0008111030322267832,"train",6820.0,"2021-11-23 13:44:07.355382","","","","","","",""
6.0,0.05363659933209419,0.0008147411728482187,"train",6840.0,"2021-11-23 13:44:10.900705","","","","","","",""
6.0,0.04241463169455528,0.0008183827403886721,"train",6860.0,"2021-11-23 13:44:14.400900","","","","","","",""
6.0,0.08536437898874283,0.0008220276794480633,"train",6880.0,"2021-11-23 13:44:18.816812","","","","","","",""
6.0,0.09350565820932388,0.0008256759345750203,"train",6900.0,"2021-11-23 13:44:22.331186","","","","","","",""
6.0,0.0490913949906826,0.0008293274502677234,"train",6920.0,"2021-11-23 13:44:25.752484","","","","","","",""
6.0,0.06355006992816925,0.0008329821709747486,"train",6940.0,"2021-11-23 13:44:29.123023","","","","","","",""
6.0,0.0615760013461113,0.0008366400410959136,"train",6960.0,"2021-11-23 13:44:32.576934","","","","","","",""
6.0,0.04706563055515289,0.000840301004983123,"train",6980.0,"2021-11-23 13:44:36.804732","","","","","","",""
6.0,0.09524597227573395,0.0008439650069412147,"train",7000.0,"2021-11-23 13:44:40.334548","","","","","","",""
6.0,0.07003960758447647,0.0008476319912288095,"train",7020.0,"2021-11-23 13:44:43.776253","","","","","","",""
6.0,0.07794604450464249,0.0008513019020591544,"train",7040.0,"2021-11-23 13:44:47.221265","","","","","","",""
6.0,0.057461217045784,0.0008549746836009771,"train",7060.0,"2021-11-23 13:44:50.520433","","","","","","",""
6.0,0.06531821936368942,0.0008586502799793306,"train",7080.0,"2021-11-23 13:44:54.665129","","","","","","",""
6.0,0.061541713774204254,0.0008623286352764453,"train",7100.0,"2021-11-23 13:44:58.016090","","","","","","",""
6.0,0.054772231727838516,0.0008660096935325802,"train",7120.0,"2021-11-23 13:45:01.374252","","","","","","",""
6.0,0.05149758607149124,0.0008696933987468731,"train",7140.0,"2021-11-23 13:45:04.780571","","","","","","",""
6.0,0.047359809279441833,0.0008733796948781924,"train",7160.0,"2021-11-23 13:45:08.129881","","","","","","",""
6.0,0.0761340782046318,0.0008770685258459915,"train",7180.0,"2021-11-23 13:45:12.431092","","","","","","",""
6.0,0.07809585332870483,0.0008807598355311595,"train",7200.0,"2021-11-23 13:45:15.954411","","","","","","",""
6.0,0.04281198978424072,0.0008844535677768764,"train",7220.0,"2021-11-23 13:45:19.501847","","","","","","",""
6.0,0.08056774735450745,0.0008881496663894681,"train",7240.0,"2021-11-23 13:45:23.055534","","","","","","",""
6.0,0.04983174428343773,0.0008918480751392592,"train",7260.0,"2021-11-23 13:45:26.639654","","","","","","",""
6.0,0.06803818047046661,0.00089554873776143,"train",7280.0,"2021-11-23 13:45:31.066697","","","","","","",""
6.0,0.10907867550849915,0.0008992515979568724,"train",7300.0,"2021-11-23 13:45:34.610121","","","","","","",""
6.0,0.0539189949631691,0.0009029565993930457,"train",7320.0,"2021-11-23 13:45:38.174697","","","","","","",""
6.0,0.07435724884271622,0.0009066636857048339,"train",7340.0,"2021-11-23 13:45:41.587049","","","","","","",""
6.0,0.05529416725039482,0.0009103728004954039,"train",7360.0,"2021-11-23 13:45:44.923202","","","","","","",""
6.0,0.08768623322248459,0.0009140838873370617,"train",7380.0,"2021-11-23 13:45:49.229858","","","","","","",""
6.0,0.07349581271409988,0.0009177968897721136,"train",7400.0,"2021-11-23 13:45:52.776825","","","","","","",""
6.0,0.0796748548746109,0.0009215117513137218,"train",7420.0,"2021-11-23 13:45:56.141638","","","","","","",""
6.0,0.05281640961766243,0.0009252284154467663,"train",7440.0,"2021-11-23 13:45:59.682948","","","","","","",""
6.0,0.0930095687508583,0.0009289468256287042,"train",7460.0,"2021-11-23 13:46:03.060801","","","","","","",""
6.0,0.058314476162195206,0.0009326669252904287,"train",7480.0,"2021-11-23 13:46:06.381973","","","","","","",""
6.0,0.06224336475133896,0.0009363886578371307,"train",7500.0,"2021-11-23 13:46:10.529119","","","","","","",""
6.0,"","","train",7518.0,"2021-11-23 13:49:34.035016",0.5457323728443572,0.6257960736216519,0.9623741526958357,0.5992358934382023,0.4941154768240224,0.5031553345593351,0.3279490065970036
6.0,"","","val",7518.0,"2021-11-23 13:50:26.877414",0.5326452510727125,0.5648392181634688,0.9494674729805141,0.5769680208069813,0.4692908121222137,0.4754701858155951,0.3061701176033821
7.0,0.05060151219367981,0.0009401119666491604,"train",7520.0,"2021-11-23 13:50:29.476915","","","","","","",""
7.0,0.08565203100442886,0.0009438367950828869,"train",7540.0,"2021-11-23 13:50:33.231614","","","","","","",""
7.0,0.08472582697868347,0.000947563086471561,"train",7560.0,"2021-11-23 13:50:36.655592","","","","","","",""
7.0,0.07368940860033035,0.0009512907841261783,"train",7580.0,"2021-11-23 13:50:39.969398","","","","","","",""
7.0,0.06917476654052734,0.0009550198313363391,"train",7600.0,"2021-11-23 13:50:44.313517","","","","","","",""
7.0,0.11035490781068802,0.0009587501713711128,"train",7620.0,"2021-11-23 13:50:47.793227","","","","","","",""
7.0,0.04013913869857788,0.0009624817474799023,"train",7640.0,"2021-11-23 13:50:51.277993","","","","","","",""
7.0,0.07992259413003922,0.0009662145028933038,"train",7660.0,"2021-11-23 13:50:54.644368","","","","","","",""
7.0,0.07416638731956482,0.0009699483808239733,"train",7680.0,"2021-11-23 13:50:58.062330","","","","","","",""
7.0,0.08819972723722458,0.0009736833244674895,"train",7700.0,"2021-11-23 13:51:02.059518","","","","","","",""
7.0,0.10251043736934662,0.0009774192770032192,"train",7720.0,"2021-11-23 13:51:05.436366","","","","","","",""
7.0,0.08970295637845993,0.0009811561815951785,"train",7740.0,"2021-11-23 13:51:08.853701","","","","","","",""
7.0,0.05763028562068939,0.0009848939813929015,"train",7760.0,"2021-11-23 13:51:12.362081","","","","","","",""
7.0,0.07163866609334946,0.0009886326195323026,"train",7780.0,"2021-11-23 13:51:15.960682","","","","","","",""
7.0,0.051978059113025665,0.0009923720391365428,"train",7800.0,"2021-11-23 13:51:20.132859","","","","","","",""
7.0,0.0651785358786583,0.000996112183316893,"train",7820.0,"2021-11-23 13:51:23.686903","","","","","","",""
7.0,0.0689365342259407,0.0009998529951736029,"train",7840.0,"2021-11-23 13:51:27.271801","","","","","","",""
7.0,0.06927499920129776,0.0010035944177967638,"train",7860.0,"2021-11-23 13:51:30.797532","","","","","","",""
7.0,0.05046676844358444,0.0010073363942671744,"train",7880.0,"2021-11-23 13:51:34.292925","","","","","","",""
7.0,0.09352371841669083,0.0010110788676572094,"train",7900.0,"2021-11-23 13:51:38.349502","","","","","","",""
7.0,0.049938082695007324,0.0010148217810316822,"train",7920.0,"2021-11-23 13:51:41.922879","","","","","","",""
7.0,0.06706324964761734,0.0010185650774487127,"train",7940.0,"2021-11-23 13:51:45.462442","","","","","","",""
7.0,0.05927250161767006,0.0010223086999605951,"train",7960.0,"2021-11-23 13:51:48.980861","","","","","","",""
7.0,0.07752817869186401,0.0010260525916146609,"train",7980.0,"2021-11-23 13:51:52.587072","","","","","","",""
7.0,0.06481416523456573,0.0010297966954541469,"train",8000.0,"2021-11-23 13:51:56.822316","","","","","","",""
7.0,0.09502889215946198,0.001033540954519064,"train",8020.0,"2021-11-23 13:52:00.384196","","","","","","",""
7.0,0.13076312839984894,0.0010372853118470592,"train",8040.0,"2021-11-23 13:52:03.842691","","","","","","",""
7.0,0.05195413902401924,0.0010410297104742857,"train",8060.0,"2021-11-23 13:52:07.302751","","","","","","",""
7.0,0.06394247710704803,0.0010447740934362692,"train",8080.0,"2021-11-23 13:52:10.678800","","","","","","",""
7.0,0.08323383331298828,0.0010485184037687715,"train",8100.0,"2021-11-23 13:52:14.734608","","","","","","",""
7.0,0.07820919156074524,0.0010522625845086615,"train",8120.0,"2021-11-23 13:52:18.078471","","","","","","",""
7.0,0.09963685274124146,0.0010560065786947796,"train",8140.0,"2021-11-23 13:52:21.457464","","","","","","",""
7.0,0.05793523043394089,0.0010597503293688013,"train",8160.0,"2021-11-23 13:52:24.812050","","","","","","",""
7.0,0.08071620762348175,0.001063493779576111,"train",8180.0,"2021-11-23 13:52:28.301694","","","","","","",""
7.0,0.08400940150022507,0.0010672368723666614,"train",8200.0,"2021-11-23 13:52:31.943281","","","","","","",""
7.0,0.05164143070578575,0.0010709795507958426,"train",8220.0,"2021-11-23 13:52:36.113811","","","","","","",""
7.0,0.06344551593065262,0.0010747217579253504,"train",8240.0,"2021-11-23 13:52:39.760556","","","","","","",""
7.0,0.06178078055381775,0.0010784634368240487,"train",8260.0,"2021-11-23 13:52:43.228362","","","","","","",""
7.0,0.05387795343995094,0.0010822045305688382,"train",8280.0,"2021-11-23 13:52:46.522204","","","","","","",""
7.0,0.07275966554880142,0.0010859449822455227,"train",8300.0,"2021-11-23 13:52:49.816095","","","","","","",""
7.0,0.08692900091409683,0.001089684734949672,"train",8320.0,"2021-11-23 13:52:53.721818","","","","","","",""
7.0,0.09073608368635178,0.00109342373178749,"train",8340.0,"2021-11-23 13:52:57.030617","","","","","","",""
7.0,0.08172907680273056,0.0010971619158766821,"train",8360.0,"2021-11-23 13:53:00.347209","","","","","","",""
7.0,0.08395653963088989,0.0011008992303473152,"train",8380.0,"2021-11-23 13:53:03.651397","","","","","","",""
7.0,0.08013921976089478,0.001104635618342687,"train",8400.0,"2021-11-23 13:53:06.948853","","","","","","",""
7.0,0.05156905576586723,0.001108371023020191,"train",8420.0,"2021-11-23 13:53:11.027270","","","","","","",""
7.0,0.060699671506881714,0.0011121053875521787,"train",8440.0,"2021-11-23 13:53:14.557028","","","","","","",""
7.0,0.09094812721014023,0.0011158386551268257,"train",8460.0,"2021-11-23 13:53:18.149394","","","","","","",""
7.0,0.0649983361363411,0.0011195707689489972,"train",8480.0,"2021-11-23 13:53:21.772189","","","","","","",""
7.0,0.05991007015109062,0.0011233016722411097,"train",8500.0,"2021-11-23 13:53:25.325182","","","","","","",""
7.0,0.0523359514772892,0.0011270313082439951,"train",8520.0,"2021-11-23 13:53:29.414753","","","","","","",""
7.0,0.0650005117058754,0.001130759620217767,"train",8540.0,"2021-11-23 13:53:32.936803","","","","","","",""
7.0,0.06958268582820892,0.0011344865514426794,"train",8560.0,"2021-11-23 13:53:36.522241","","","","","","",""
7.0,0.0641070157289505,0.0011382120452199938,"train",8580.0,"2021-11-23 13:53:40.079250","","","","","","",""
7.0,"","","train",8592.0,"2021-11-23 13:57:01.977645",0.5496325402022848,0.6303737019219999,0.9625741624726664,0.6013096336738013,0.4755700696691522,0.48960876242598217,0.31611205773989226
7.0,"","","val",8592.0,"2021-11-23 13:57:54.613136",0.5354285051606169,0.5681811103792003,0.9501195306584869,0.5774762408591073,0.4452320058766193,0.45524111875474904,0.2891956872789991
8.0,0.05195840820670128,0.001141936044872839,"train",8600.0,"2021-11-23 13:57:58.463139","","","","","","",""
8.0,0.061175234615802765,0.0011456584937470744,"train",8620.0,"2021-11-23 13:58:02.857994","","","","","","",""
8.0,0.05583791807293892,0.0011493793352121522,"train",8640.0,"2021-11-23 13:58:06.416422","","","","","","",""
8.0,0.08759942650794983,0.0011530985126619784,"train",8660.0,"2021-11-23 13:58:09.986199","","","","","","",""
8.0,0.056104257702827454,0.001156815969515773,"train",8680.0,"2021-11-23 13:58:13.510675","","","","","","",""
8.0,0.07929237186908722,0.001160531649218934,"train",8700.0,"2021-11-23 13:58:16.894279","","","","","","",""
8.0,0.04374255612492561,0.001164245495243894,"train",8720.0,"2021-11-23 13:58:20.958021","","","","","","",""
8.0,0.0761406347155571,0.0011679574510909817,"train",8740.0,"2021-11-23 13:58:24.337747","","","","","","",""
8.0,0.057263508439064026,0.0011716674602892828,"train",8760.0,"2021-11-23 13:58:27.726695","","","","","","",""
8.0,0.061449263244867325,0.0011753754663974968,"train",8780.0,"2021-11-23 13:58:31.209351","","","","","","",""
8.0,0.06464513391256332,0.0011790814130047968,"train",8800.0,"2021-11-23 13:58:34.732119","","","","","","",""
8.0,0.0502137690782547,0.001182785243731688,"train",8820.0,"2021-11-23 13:58:39.060928","","","","","","",""
8.0,0.06949307769536972,0.0011864869022308656,"train",8840.0,"2021-11-23 13:58:42.749505","","","","","","",""
8.0,0.06161682680249214,0.0011901863321880693,"train",8860.0,"2021-11-23 13:58:46.303489","","","","","","",""
8.0,0.06825149059295654,0.001193883477322945,"train",8880.0,"2021-11-23 13:58:49.905111","","","","","","",""
8.0,0.06174081191420555,0.0011975782813898961,"train",8900.0,"2021-11-23 13:58:53.277662","","","","","","",""
8.0,0.047757599502801895,0.0012012706881789417,"train",8920.0,"2021-11-23 13:58:56.714541","","","","","","",""
8.0,0.08099573105573654,0.001204960641516572,"train",8940.0,"2021-11-23 13:59:00.899552","","","","","","",""
8.0,0.07565136253833771,0.0012086480852666014,"train",8960.0,"2021-11-23 13:59:04.638051","","","","","","",""
8.0,0.08839738368988037,0.0012123329633310235,"train",8980.0,"2021-11-23 13:59:08.264113","","","","","","",""
8.0,0.05960162729024887,0.0012160152196508643,"train",9000.0,"2021-11-23 13:59:11.714495","","","","","","",""
8.0,0.06484250724315643,0.0012196947982070355,"train",9020.0,"2021-11-23 13:59:15.093252","","","","","","",""
8.0,0.06698902696371078,0.0012233716430211856,"train",9040.0,"2021-11-23 13:59:19.162121","","","","","","",""
8.0,0.060160063207149506,0.001227045698156553,"train",9060.0,"2021-11-23 13:59:22.554314","","","","","","",""
8.0,0.053578224033117294,0.0012307169077188148,"train",9080.0,"2021-11-23 13:59:25.953039","","","","","","",""
8.0,0.09940579533576965,0.0012343852158569401,"train",9100.0,"2021-11-23 13:59:29.420157","","","","","","",""
8.0,0.0713360458612442,0.0012380505667640377,"train",9120.0,"2021-11-23 13:59:32.868252","","","","","","",""
8.0,0.04900989308953285,0.0012417129046782046,"train",9140.0,"2021-11-23 13:59:36.945576","","","","","","",""
8.0,0.08752495795488358,0.0012453721738833758,"train",9160.0,"2021-11-23 13:59:40.458469","","","","","","",""
8.0,0.0649677962064743,0.001249028318710172,"train",9180.0,"2021-11-23 13:59:43.954039","","","","","","",""
8.0,0.10249540209770203,0.0012526812835367447,"train",9200.0,"2021-11-23 13:59:47.591783","","","","","","",""
8.0,0.08367601782083511,0.0012563310127896242,"train",9220.0,"2021-11-23 13:59:51.188125","","","","","","",""
8.0,0.0797220766544342,0.0012599774509445645,"train",9240.0,"2021-11-23 13:59:55.350675","","","","","","",""
8.0,0.0545429103076458,0.0012636205425273874,"train",9260.0,"2021-11-23 13:59:58.915750","","","","","","",""
8.0,0.06522088497877121,0.0012672602321148268,"train",9280.0,"2021-11-23 14:00:02.397614","","","","","","",""
8.0,0.04956170544028282,0.0012708964643353732,"train",9300.0,"2021-11-23 14:00:05.850966","","","","","","",""
8.0,0.08679389953613281,0.001274529183870114,"train",9320.0,"2021-11-23 14:00:09.221358","","","","","","",""
8.0,0.05430302396416664,0.0012781583354535748,"train",9340.0,"2021-11-23 14:00:13.291385","","","","","","",""
8.0,0.08379454165697098,0.0012817838638745646,"train",9360.0,"2021-11-23 14:00:16.664994","","","","","","",""
8.0,0.08397093415260315,0.001285405713977009,"train",9380.0,"2021-11-23 14:00:20.059280","","","","","","",""
8.0,0.08276080340147018,0.0012890238306607947,"train",9400.0,"2021-11-23 14:00:23.506556","","","","","","",""
8.0,0.04996568709611893,0.001292638158882606,"train",9420.0,"2021-11-23 14:00:26.908882","","","","","","",""
8.0,0.07051251083612442,0.0012962486436567603,"train",9440.0,"2021-11-23 14:00:30.971491","","","","","","",""
8.0,0.05886886268854141,0.0012998552300560484,"train",9460.0,"2021-11-23 14:00:34.387848","","","","","","",""
8.0,0.06753121316432953,0.0013034578632125668,"train",9480.0,"2021-11-23 14:00:37.822104","","","","","","",""
8.0,0.08417388051748276,0.0013070564883185534,"train",9500.0,"2021-11-23 14:00:41.219528","","","","","","",""
8.0,0.058962129056453705,0.001310651050627223,"train",9520.0,"2021-11-23 14:00:44.646154","","","","","","",""
8.0,0.05932047218084335,0.001314241495453598,"train",9540.0,"2021-11-23 14:00:48.102706","","","","","","",""
8.0,0.08025570213794708,0.00131782776817534,"train",9560.0,"2021-11-23 14:00:52.238492","","","","","","",""
8.0,0.06474685668945312,0.0013214098142335837,"train",9580.0,"2021-11-23 14:00:55.687381","","","","","","",""
8.0,0.05982400104403496,0.001324987579133764,"train",9600.0,"2021-11-23 14:00:59.118442","","","","","","",""
8.0,0.0898023396730423,0.0013285610084464463,"train",9620.0,"2021-11-23 14:01:02.614837","","","","","","",""
8.0,0.046557582914829254,0.001332130047808155,"train",9640.0,"2021-11-23 14:01:06.147703","","","","","","",""
8.0,0.06973697990179062,0.001335694642922199,"train",9660.0,"2021-11-23 14:01:10.216786","","","","","","",""
8.0,"","","train",9666.0,"2021-11-23 14:04:31.690663",0.5591501127846904,0.6444748550450564,0.965420904906039,0.6284280742148944,0.5340502031622518,0.5492243860351367,0.3522045282583418
8.0,"","","val",9666.0,"2021-11-23 14:05:23.934071",0.537921836947698,0.5815166844352521,0.9537051585248792,0.594216884774279,0.49606136661370975,0.5093235946322857,0.31941179784084783
9.0,0.045985665172338486,0.0013392547395594985,"train",9680.0,"2021-11-23 14:05:28.767465","","","","","","",""
9.0,0.05760620906949043,0.001342810283559412,"train",9700.0,"2021-11-23 14:05:32.359588","","","","","","",""
9.0,0.06289941072463989,0.0013463612208305564,"train",9720.0,"2021-11-23 14:05:35.763657","","","","","","",""
9.0,0.05365129932761192,0.0013499074973516321,"train",9740.0,"2021-11-23 14:05:39.218934","","","","","","",""
9.0,0.057277873158454895,0.0013534490591722464,"train",9760.0,"2021-11-23 14:05:43.559360","","","","","","",""
9.0,0.06779144704341888,0.0013569858524137305,"train",9780.0,"2021-11-23 14:05:47.175856","","","","","","",""
9.0,0.04484574869275093,0.001360517823269962,"train",9800.0,"2021-11-23 14:05:50.647930","","","","","","",""
9.0,0.06842608749866486,0.0013640449180081834,"train",9820.0,"2021-11-23 14:05:54.245879","","","","","","",""
9.0,0.054098207503557205,0.0013675670829698173,"train",9840.0,"2021-11-23 14:05:57.871423","","","","","","",""
9.0,0.04360387101769447,0.0013710842645712853,"train",9860.0,"2021-11-23 14:06:02.274097","","","","","","",""
9.0,0.05741087347269058,0.0013745964093048219,"train",9880.0,"2021-11-23 14:06:05.908660","","","","","","",""
9.0,0.055970922112464905,0.0013781034637392886,"train",9900.0,"2021-11-23 14:06:09.366777","","","","","","",""
9.0,0.08774429559707642,0.0013816053745209864,"train",9920.0,"2021-11-23 14:06:12.755269","","","","","","",""
9.0,0.06497027724981308,0.0013851020883744697,"train",9940.0,"2021-11-23 14:06:16.209036","","","","","","",""
9.0,0.058368418365716934,0.001388593552103353,"train",9960.0,"2021-11-23 14:06:20.161652","","","","","","",""
9.0,0.08770265430212021,0.0013920797125911233,"train",9980.0,"2021-11-23 14:06:23.533506","","","","","","",""
9.0,0.04260747507214546,0.001395560516801947,"train",10000.0,"2021-11-23 14:06:26.896579","","","","","","",""
9.0,0.04421023279428482,0.0013990359117814774,"train",10020.0,"2021-11-23 14:06:30.237201","","","","","","",""
9.0,0.047639597207307816,0.0014025058446576583,"train",10040.0,"2021-11-23 14:06:33.734644","","","","","","",""
9.0,0.06123512238264084,0.0014059702626415317,"train",10060.0,"2021-11-23 14:06:38.031238","","","","","","",""
9.0,0.06531534343957901,0.0014094291130280377,"train",10080.0,"2021-11-23 14:06:41.634749","","","","","","",""
9.0,0.06717722117900848,0.0014128823431968183,"train",10100.0,"2021-11-23 14:06:45.202810","","","","","","",""
9.0,0.07620127499103546,0.001416329900613017,"train",10120.0,"2021-11-23 14:06:48.768240","","","","","","",""
9.0,0.0844404473900795,0.0014197717328280782,"train",10140.0,"2021-11-23 14:06:52.389391","","","","","","",""
9.0,0.05083655193448067,0.0014232077874805457,"train",10160.0,"2021-11-23 14:06:56.655099","","","","","","",""
9.0,0.08017189800739288,0.0014266380122968589,"train",10180.0,"2021-11-23 14:07:00.250278","","","","","","",""
9.0,0.055532924830913544,0.0014300623550921468,"train",10200.0,"2021-11-23 14:07:03.833148","","","","","","",""
9.0,0.06968455016613007,0.0014334807637710243,"train",10220.0,"2021-11-23 14:07:07.366646","","","","","","",""
9.0,0.0922805443406105,0.0014368931863283831,"train",10240.0,"2021-11-23 14:07:10.884779","","","","","","",""
9.0,0.051618870347738266,0.0014402995708501826,"train",10260.0,"2021-11-23 14:07:14.511319","","","","","","",""
9.0,0.06188419833779335,0.0014436998655142422,"train",10280.0,"2021-11-23 14:07:18.751531","","","","","","",""
9.0,0.0363691970705986,0.0014470940185910258,"train",10300.0,"2021-11-23 14:07:22.365848","","","","","","",""
9.0,0.07796107977628708,0.001450481978444431,"train",10320.0,"2021-11-23 14:07:25.967627","","","","","","",""
9.0,0.0637257844209671,0.0014538636935325763,"train",10340.0,"2021-11-23 14:07:29.393340","","","","","","",""
9.0,0.0734986886382103,0.0014572391124085817,"train",10360.0,"2021-11-23 14:07:33.060453","","","","","","",""
9.0,0.0549994558095932,0.0014606081837213525,"train",10380.0,"2021-11-23 14:07:37.297385","","","","","","",""
9.0,0.10133384168148041,0.0014639708562163639,"train",10400.0,"2021-11-23 14:07:40.842386","","","","","","",""
9.0,0.05735345557332039,0.001467327078736435,"train",10420.0,"2021-11-23 14:07:44.315060","","","","","","",""
9.0,0.039731044322252274,0.0014706768002225108,"train",10440.0,"2021-11-23 14:07:47.753012","","","","","","",""
9.0,0.048460595309734344,0.0014740199697144392,"train",10460.0,"2021-11-23 14:07:51.234780","","","","","","",""
9.0,0.07061369717121124,0.0014773565363517442,"train",10480.0,"2021-11-23 14:07:55.357091","","","","","","",""
9.0,0.09560312330722809,0.0014806864493744007,"train",10500.0,"2021-11-23 14:07:58.750131","","","","","","",""
9.0,0.06842508912086487,0.0014840096581236072,"train",10520.0,"2021-11-23 14:08:02.194023","","","","","","",""
9.0,0.04053859785199165,0.001487326112042556,"train",10540.0,"2021-11-23 14:08:05.715684","","","","","","",""
9.0,0.051228731870651245,0.0014906357606772013,"train",10560.0,"2021-11-23 14:08:09.262689","","","","","","",""
9.0,0.0454833097755909,0.0014939385536770291,"train",10580.0,"2021-11-23 14:08:13.420186","","","","","","",""
9.0,0.07926143705844879,0.0014972344407958218,"train",10600.0,"2021-11-23 14:08:16.932846","","","","","","",""
9.0,0.0440678708255291,0.0015005233718924213,"train",10620.0,"2021-11-23 14:08:20.441424","","","","","","",""
9.0,0.06619103252887726,0.0015038052969314946,"train",10640.0,"2021-11-23 14:08:23.963964","","","","","","",""
9.0,0.05451435595750809,0.0015070801659842939,"train",10660.0,"2021-11-23 14:08:27.438428","","","","","","",""
9.0,0.06220580264925957,0.001510347929229414,"train",10680.0,"2021-11-23 14:08:31.512268","","","","","","",""
9.0,0.06008965149521828,0.0015136085369535537,"train",10700.0,"2021-11-23 14:08:35.002987","","","","","","",""
9.0,0.07665898650884628,0.0015168619395522708,"train",10720.0,"2021-11-23 14:08:38.471561","","","","","","",""
9.0,0.046943068504333496,0.0015201080875307349,"train",10740.0,"2021-11-23 14:08:41.906780","","","","","","",""
9.0,"","","train",10740.0,"2021-11-23 14:12:02.235520",0.5665720730553736,0.6561347237197501,0.9673681493237094,0.589210674128687,0.4652547777045267,0.49399046073410957,0.31869651746643546
9.0,"","","val",10740.0,"2021-11-23 14:12:54.469395",0.5466195059723994,0.5822391505071723,0.9544579164167175,0.5608725814173777,0.4318040836214931,0.4521574971185304,0.2908888180298401
10.0,0.06443649530410767,0.0015233469315044834,"train",10760.0,"2021-11-23 14:13:00.342113","","","","","","",""
10.0,0.05365459993481636,0.0015265784222001709,"train",10780.0,"2021-11-23 14:13:04.543217","","","","","","",""
10.0,0.0630028024315834,0.0015298025104563185,"train",10800.0,"2021-11-23 14:13:07.899140","","","","","","",""
10.0,0.08681976795196533,0.001533019147224064,"train",10820.0,"2021-11-23 14:13:11.331923","","","","","","",""
10.0,0.06640090048313141,0.0015362282835679054,"train",10840.0,"2021-11-23 14:13:14.759004","","","","","","",""
10.0,0.06612247973680496,0.0015394298706664469,"train",10860.0,"2021-11-23 14:13:18.221929","","","","","","",""
10.0,0.06590568274259567,0.001542623859813141,"train",10880.0,"2021-11-23 14:13:22.275783","","","","","","",""
10.0,0.05823713168501854,0.00154581020241703,"train",10900.0,"2021-11-23 14:13:25.733752","","","","","","",""
10.0,0.04939306899905205,0.0015489888500034858,"train",10920.0,"2021-11-23 14:13:29.179160","","","","","","",""
10.0,0.09150681644678116,0.0015521597542149444,"train",10940.0,"2021-11-23 14:13:32.613142","","","","","","",""
10.0,0.06824541091918945,0.0015553228668116455,"train",10960.0,"2021-11-23 14:13:35.973339","","","","","","",""
10.0,0.05575995892286301,0.0015584781396723642,"train",10980.0,"2021-11-23 14:13:39.504237","","","","","","",""
10.0,0.053715962916612625,0.0015616255247951432,"train",11000.0,"2021-11-23 14:13:43.677220","","","","","","",""
10.0,0.05692214518785477,0.0015647649742980233,"train",11020.0,"2021-11-23 14:13:47.275100","","","","","","",""
10.0,0.05223211646080017,0.0015678964404197727,"train",11040.0,"2021-11-23 14:13:50.846568","","","","","","",""
10.0,0.07603121548891068,0.0015710198755206112,"train",11060.0,"2021-11-23 14:13:54.425249","","","","","","",""
10.0,0.054182268679142,0.0015741352320829379,"train",11080.0,"2021-11-23 14:13:57.990446","","","","","","",""
10.0,0.05378180369734764,0.0015772424627120527,"train",11100.0,"2021-11-23 14:14:02.179627","","","","","","",""
10.0,0.06243637949228287,0.0015803415201368761,"train",11120.0,"2021-11-23 14:14:05.748787","","","","","","",""
10.0,0.056263916194438934,0.001583432357210671,"train",11140.0,"2021-11-23 14:14:09.331785","","","","","","",""
10.0,0.08092310279607773,0.001586514926911758,"train",11160.0,"2021-11-23 14:14:12.914114","","","","","","",""
10.0,0.05115301534533501,0.0015895891823442313,"train",11180.0,"2021-11-23 14:14:16.524810","","","","","","",""
10.0,0.07444503158330917,0.0015926550767386717,"train",11200.0,"2021-11-23 14:14:20.565282","","","","","","",""
10.0,0.07809920608997345,0.0015957125634528599,"train",11220.0,"2021-11-23 14:14:23.942022","","","","","","",""
10.0,0.06925469636917114,0.0015987615959724836,"train",11240.0,"2021-11-23 14:14:27.323703","","","","","","",""
10.0,0.04809633642435074,0.0016018021279118457,"train",11260.0,"2021-11-23 14:14:30.887738","","","","","","",""
10.0,0.04093923047184944,0.0016048341130145728,"train",11280.0,"2021-11-23 14:14:34.285438","","","","","","",""
10.0,0.0676872581243515,0.0016078575051543145,"train",11300.0,"2021-11-23 14:14:38.316199","","","","","","",""
10.0,0.07720690220594406,0.0016108722583354478,"train",11320.0,"2021-11-23 14:14:41.700413","","","","","","",""
10.0,0.0723782405257225,0.0016138783266937777,"train",11340.0,"2021-11-23 14:14:45.062318","","","","","","",""
10.0,0.0754576325416565,0.0016168756644972322,"train",11360.0,"2021-11-23 14:14:48.511317","","","","","","",""
10.0,0.07701443880796432,0.0016198642261465587,"train",11380.0,"2021-11-23 14:14:51.956327","","","","","","",""
10.0,0.059689201414585114,0.0016228439661760208,"train",11400.0,"2021-11-23 14:14:56.011361","","","","","","",""
10.0,0.07572846859693527,0.001625814839254086,"train",11420.0,"2021-11-23 14:14:59.480993","","","","","","",""
10.0,0.05924178287386894,0.0016287768001841164,"train",11440.0,"2021-11-23 14:15:02.996262","","","","","","",""
10.0,0.04153575375676155,0.001631729803905059,"train",11460.0,"2021-11-23 14:15:06.520005","","","","","","",""
10.0,0.05918406695127487,0.0016346738054921273,"train",11480.0,"2021-11-23 14:15:10.155266","","","","","","",""
10.0,0.04366970807313919,0.001637608760157486,"train",11500.0,"2021-11-23 14:15:14.490028","","","","","","",""
10.0,0.04121076315641403,0.0016405346232509356,"train",11520.0,"2021-11-23 14:15:18.092181","","","","","","",""
10.0,0.0761774405837059,0.0016434513502605861,"train",11540.0,"2021-11-23 14:15:21.523766","","","","","","",""
10.0,0.07405366748571396,0.0016463588968135383,"train",11560.0,"2021-11-23 14:15:24.983624","","","","","","",""
10.0,0.07199309766292572,0.0016492572186765577,"train",11580.0,"2021-11-23 14:15:28.431527","","","","","","",""
10.0,0.05284911021590233,0.001652146271756747,"train",11600.0,"2021-11-23 14:15:31.885707","","","","","","",""
10.0,0.06199438497424126,0.0016550260121022172,"train",11620.0,"2021-11-23 14:15:35.984115","","","","","","",""
10.0,0.04909849166870117,0.0016578963959027562,"train",11640.0,"2021-11-23 14:15:39.459619","","","","","","",""
10.0,0.05055398494005203,0.001660757379490496,"train",11660.0,"2021-11-23 14:15:42.924013","","","","","","",""
10.0,0.04150759428739548,0.0016636089193405761,"train",11680.0,"2021-11-23 14:15:46.471380","","","","","","",""
10.0,0.044791728258132935,0.0016664509720718049,"train",11700.0,"2021-11-23 14:15:50.053268","","","","","","",""
10.0,0.06079399958252907,0.0016692834944473224,"train",11720.0,"2021-11-23 14:15:54.249508","","","","","","",""
10.0,0.061583273112773895,0.0016721064433752554,"train",11740.0,"2021-11-23 14:15:57.823057","","","","","","",""
10.0,0.03851766884326935,0.0016749197759093734,"train",11760.0,"2021-11-23 14:16:01.327440","","","","","","",""
10.0,0.07226152718067169,0.0016777234492497436,"train",11780.0,"2021-11-23 14:16:04.852280","","","","","","",""
10.0,0.05166748911142349,0.0016805174207433808,"train",11800.0,"2021-11-23 14:16:08.332524","","","","","","",""
10.0,"","","train",11814.0,"2021-11-23 14:19:31.352692",0.5720730553736447,0.6701264382965346,0.9687477606671178,0.6239044289546652,0.49058984921684046,0.5068871113324145,0.33716328009349295
10.0,"","","val",11814.0,"2021-11-23 14:20:23.606245",0.5509103560245854,0.5957098177240046,0.9561565780613198,0.5920325112681398,0.46351670913658577,0.4725246039893748,0.3094590061607194
11.0,0.04882283881306648,0.0016833016478848956,"train",11820.0,"2021-11-23 14:20:26.969071","","","","","","",""
11.0,0.06812246888875961,0.0016860760883171426,"train",11840.0,"2021-11-23 14:20:30.514111","","","","","","",""
11.0,0.08736031502485275,0.001688840699831864,"train",11860.0,"2021-11-23 14:20:33.905165","","","","","","",""
11.0,0.04216179624199867,0.0016915954403703313,"train",11880.0,"2021-11-23 14:20:37.269246","","","","","","",""
11.0,0.05709896981716156,0.0016943402680239862,"train",11900.0,"2021-11-23 14:20:40.628758","","","","","","",""
11.0,0.052848249673843384,0.0016970751410350774,"train",11920.0,"2021-11-23 14:20:44.732164","","","","","","",""
11.0,0.04476860910654068,0.001699800017797296,"train",11940.0,"2021-11-23 14:20:48.057531","","","","","","",""
11.0,0.05890863388776779,0.0017025148568564086,"train",11960.0,"2021-11-23 14:20:51.568115","","","","","","",""
11.0,0.04716477170586586,0.001705219616910888,"train",11980.0,"2021-11-23 14:20:54.961238","","","","","","",""
11.0,0.058953169733285904,0.001707914256812541,"train",12000.0,"2021-11-23 14:20:58.373701","","","","","","",""
11.0,0.04595791548490524,0.0017105987355671352,"train",12020.0,"2021-11-23 14:21:02.457559","","","","","","",""
11.0,0.04365198314189911,0.0017132730123350227,"train",12040.0,"2021-11-23 14:21:06.002269","","","","","","",""
11.0,0.048673391342163086,0.00171593704643176,"train",12060.0,"2021-11-23 14:21:09.588452","","","","","","",""
11.0,0.04847394675016403,0.0017185907973287285,"train",12080.0,"2021-11-23 14:21:13.178931","","","","","","",""
11.0,0.04550441727042198,0.0017212342246537506,"train",12100.0,"2021-11-23 14:21:16.752625","","","","","","",""
11.0,0.07492861151695251,0.0017238672881917032,"train",12120.0,"2021-11-23 14:21:20.916019","","","","","","",""
11.0,0.06607685983181,0.001726489947885131,"train",12140.0,"2021-11-23 14:21:24.381286","","","","","","",""
11.0,0.06134432181715965,0.0017291021638348543,"train",12160.0,"2021-11-23 14:21:27.834980","","","","","","",""
11.0,0.09416466951370239,0.0017317038963005765,"train",12180.0,"2021-11-23 14:21:31.319436","","","","","","",""
11.0,0.06204169616103172,0.00173429510570149,"train",12200.0,"2021-11-23 14:21:34.900131","","","","","","",""
11.0,0.05962785333395004,0.0017368757526168759,"train",12220.0,"2021-11-23 14:21:39.025695","","","","","","",""
11.0,0.05298685282468796,0.0017394457977867057,"train",12240.0,"2021-11-23 14:21:42.480150","","","","","","",""
11.0,0.05300638824701309,0.0017420052021122378,"train",12260.0,"2021-11-23 14:21:45.900554","","","","","","",""
11.0,0.0503239706158638,0.0017445539266566128,"train",12280.0,"2021-11-23 14:21:49.294725","","","","","","",""
11.0,0.047431305050849915,0.001747091932645445,"train",12300.0,"2021-11-23 14:21:52.617930","","","","","","",""
11.0,0.06179448589682579,0.0017496191814674125,"train",12320.0,"2021-11-23 14:21:56.158233","","","","","","",""
11.0,0.05215129628777504,0.001752135634674846,"train",12340.0,"2021-11-23 14:22:00.407396","","","","","","",""
11.0,0.05623985826969147,0.0017546412539843118,"train",12360.0,"2021-11-23 14:22:04.075097","","","","","","",""
11.0,0.07994654774665833,0.001757136001277194,"train",12380.0,"2021-11-23 14:22:07.715409","","","","","","",""
11.0,0.050690002739429474,0.001759619838600278,"train",12400.0,"2021-11-23 14:22:11.330737","","","","","","",""
11.0,0.06467897444963455,0.0017620927281663229,"train",12420.0,"2021-11-23 14:22:14.925151","","","","","","",""
11.0,0.057421449571847916,0.0017645546323546398,"train",12440.0,"2021-11-23 14:22:19.111788","","","","","","",""
11.0,0.04782858490943909,0.0017670055137116636,"train",12460.0,"2021-11-23 14:22:22.534833","","","","","","",""
11.0,0.044131334871053696,0.0017694453349515209,"train",12480.0,"2021-11-23 14:22:25.874780","","","","","","",""
11.0,0.0557505264878273,0.0017718740589566,"train",12500.0,"2021-11-23 14:22:29.205596","","","","","","",""
11.0,0.06730104982852936,0.0017742916487781134,"train",12520.0,"2021-11-23 14:22:32.693397","","","","","","",""
11.0,0.046942174434661865,0.0017766980676366608,"train",12540.0,"2021-11-23 14:22:36.774714","","","","","","",""
11.0,0.08011922985315323,0.001779093278922789,"train",12560.0,"2021-11-23 14:22:40.172726","","","","","","",""
11.0,0.0774414911866188,0.001781477246197548,"train",12580.0,"2021-11-23 14:22:43.563422","","","","","","",""
11.0,0.05909368768334389,0.0017838499331930462,"train",12600.0,"2021-11-23 14:22:47.016427","","","","","","",""
11.0,0.0459933765232563,0.001786211303813001,"train",12620.0,"2021-11-23 14:22:50.501756","","","","","","",""
11.0,0.071099653840065,0.0017885613221332894,"train",12640.0,"2021-11-23 14:22:54.690340","","","","","","",""
11.0,0.0563335157930851,0.0017908999524024931,"train",12660.0,"2021-11-23 14:22:58.304669","","","","","","",""
11.0,0.07340744882822037,0.0017932271590424438,"train",12680.0,"2021-11-23 14:23:01.920604","","","","","","",""
11.0,0.050693411380052567,0.0017955429066487635,"train",12700.0,"2021-11-23 14:23:05.542156","","","","","","",""
11.0,0.04264431446790695,0.0017978471599914025,"train",12720.0,"2021-11-23 14:23:09.122478","","","","","","",""
11.0,0.08275266736745834,0.0018001398840151778,"train",12740.0,"2021-11-23 14:23:13.124002","","","","","","",""
11.0,0.05268602445721626,0.0018024210438403031,"train",12760.0,"2021-11-23 14:23:16.589632","","","","","","",""
11.0,0.03560071438550949,0.0018046906047629228,"train",12780.0,"2021-11-23 14:23:19.980705","","","","","","",""
11.0,0.05386078730225563,0.0018069485322556372,"train",12800.0,"2021-11-23 14:23:23.380391","","","","","","",""
11.0,0.047537777572870255,0.001809194791968029,"train",12820.0,"2021-11-23 14:23:26.741379","","","","","","",""
11.0,0.08461039513349533,0.0018114293497271863,"train",12840.0,"2021-11-23 14:23:30.745544","","","","","","",""
11.0,0.05114684998989105,0.0018136521715382218,"train",12860.0,"2021-11-23 14:23:34.132168","","","","","","",""
11.0,0.05761940777301788,0.0018158632235847892,"train",12880.0,"2021-11-23 14:23:37.509951","","","","","","",""
11.0,"","","train",12888.0,"2021-11-23 14:26:57.454219",0.5764243614931238,0.677179197411356,0.9696503867483864,0.6167608718951467,0.5275053746077025,0.5459590497526233,0.3552442100979842
11.0,"","","val",12888.0,"2021-11-23 14:27:49.848737",0.5556650817580888,0.5979279042126643,0.9567616739822734,0.586352813033669,0.483492731943592,0.49781297985486267,0.3173899863623915
12.0,0.04996435344219208,0.0018180624722295999,"train",12900.0,"2021-11-23 14:27:54.322494","","","","","","",""
12.0,0.08848502486944199,0.001820249884014933,"train",12920.0,"2021-11-23 14:27:57.837890","","","","","","",""
12.0,0.04312320053577423,0.001822425425663144,"train",12940.0,"2021-11-23 14:28:01.236096","","","","","","",""
12.0,0.06426626443862915,0.0018245890640771725,"train",12960.0,"2021-11-23 14:28:05.430275","","","","","","",""
12.0,0.06227127090096474,0.0018267407663410452,"train",12980.0,"2021-11-23 14:28:08.874195","","","","","","",""
12.0,0.04125010222196579,0.0018288804997203755,"train",13000.0,"2021-11-23 14:28:12.329364","","","","","","",""
12.0,0.0476827509701252,0.0018310082316628634,"train",13020.0,"2021-11-23 14:28:15.763034","","","","","","",""
12.0,0.03601524606347084,0.0018331239297987893,"train",13040.0,"2021-11-23 14:28:19.176492","","","","","","",""
12.0,0.06090673431754112,0.0018352275619415066,"train",13060.0,"2021-11-23 14:28:23.156950","","","","","","",""
12.0,0.057187292724847794,0.0018373190960879326,"train",13080.0,"2021-11-23 14:28:26.515075","","","","","","",""
12.0,0.03913971409201622,0.0018393985004190336,"train",13100.0,"2021-11-23 14:28:29.890297","","","","","","",""
12.0,0.06321097165346146,0.00184146574330031,"train",13120.0,"2021-11-23 14:28:33.345764","","","","","","",""
12.0,0.05019132047891617,0.001843520793282278,"train",13140.0,"2021-11-23 14:28:36.772880","","","","","","",""
12.0,0.044934049248695374,0.0018455636191009464,"train",13160.0,"2021-11-23 14:28:41.211627","","","","","","",""
12.0,0.0550418458878994,0.001847594189678294,"train",13180.0,"2021-11-23 14:28:44.734356","","","","","","",""
12.0,0.06230395287275314,0.0018496124741227415,"train",13200.0,"2021-11-23 14:28:48.262072","","","","","","",""
12.0,0.07812752574682236,0.001851618441729622,"train",13220.0,"2021-11-23 14:28:51.722938","","","","","","",""
12.0,0.06496606022119522,0.0018536120619816467,"train",13240.0,"2021-11-23 14:28:55.079150","","","","","","",""
12.0,0.04613535478711128,0.0018555933045493712,"train",13260.0,"2021-11-23 14:28:59.195617","","","","","","",""
12.0,0.06360825896263123,0.0018575621392916554,"train",13280.0,"2021-11-23 14:29:02.586838","","","","","","",""
12.0,0.05661029368638992,0.0018595185362561225,"train",13300.0,"2021-11-23 14:29:06.038438","","","","","","",""
12.0,0.04757652059197426,0.0018614624656796155,"train",13320.0,"2021-11-23 14:29:09.416560","","","","","","",""
12.0,0.06251195073127747,0.0018633938979886484,"train",13340.0,"2021-11-23 14:29:12.782051","","","","","","",""
12.0,0.04146643355488777,0.0018653128037998568,"train",13360.0,"2021-11-23 14:29:16.740461","","","","","","",""
12.0,0.07073663175106049,0.0018672191539204459,"train",13380.0,"2021-11-23 14:29:20.090267","","","","","","",""
12.0,0.04389696195721626,0.0018691129193486335,"train",13400.0,"2021-11-23 14:29:23.667306","","","","","","",""
12.0,0.07572906464338303,0.0018709940712740908,"train",13420.0,"2021-11-23 14:29:27.248915","","","","","","",""
12.0,0.04847358167171478,0.0018728625810783823,"train",13440.0,"2021-11-23 14:29:30.892611","","","","","","",""
12.0,0.04672769084572792,0.0018747184203353996,"train",13460.0,"2021-11-23 14:29:35.134359","","","","","","",""
12.0,0.050550829619169235,0.0018765615608117947,"train",13480.0,"2021-11-23 14:29:38.648818","","","","","","",""
12.0,0.05379023030400276,0.0018783919744674096,"train",13500.0,"2021-11-23 14:29:42.128752","","","","","","",""
12.0,0.04586334154009819,0.0018802096334557027,"train",13520.0,"2021-11-23 14:29:45.594414","","","","","","",""
12.0,0.08294116705656052,0.0018820145101241712,"train",13540.0,"2021-11-23 14:29:49.036637","","","","","","",""
12.0,0.07534396648406982,0.0018838065770147745,"train",13560.0,"2021-11-23 14:29:53.121074","","","","","","",""
12.0,0.058029379695653915,0.0018855858068643496,"train",13580.0,"2021-11-23 14:29:56.671435","","","","","","",""
12.0,0.046044882386922836,0.001887352172605026,"train",13600.0,"2021-11-23 14:30:00.118322","","","","","","",""
12.0,0.05890549346804619,0.0018891056473646398,"train",13620.0,"2021-11-23 14:30:03.545432","","","","","","",""
12.0,0.06849460303783417,0.0018908462044671395,"train",13640.0,"2021-11-23 14:30:07.011537","","","","","","",""
12.0,0.05272270366549492,0.001892573817432993,"train",13660.0,"2021-11-23 14:30:10.601303","","","","","","",""
12.0,0.03715476021170616,0.0018942884599795914,"train",13680.0,"2021-11-23 14:30:14.796556","","","","","","",""
12.0,0.07057133316993713,0.001895990106021648,"train",13700.0,"2021-11-23 14:30:18.311313","","","","","","",""
12.0,0.04687094688415527,0.0018976787296715943,"train",13720.0,"2021-11-23 14:30:21.785098","","","","","","",""
12.0,0.05914562568068504,0.0018993543052399757,"train",13740.0,"2021-11-23 14:30:25.179160","","","","","","",""
12.0,0.0762777179479599,0.0019010168072358413,"train",13760.0,"2021-11-23 14:30:28.695223","","","","","","",""
12.0,0.055283740162849426,0.0019026662103671305,"train",13780.0,"2021-11-23 14:30:32.903677","","","","","","",""
12.0,0.07390689104795456,0.0019043024895410605,"train",13800.0,"2021-11-23 14:30:36.454140","","","","","","",""
12.0,0.061472680419683456,0.001905925619864506,"train",13820.0,"2021-11-23 14:30:40.006660","","","","","","",""
12.0,0.038392819464206696,0.001907535576644378,"train",13840.0,"2021-11-23 14:30:43.577899","","","","","","",""
12.0,0.06306148320436478,0.0019091323353880008,"train",13860.0,"2021-11-23 14:30:47.133286","","","","","","",""
12.0,0.0488772839307785,0.0019107158718034828,"train",13880.0,"2021-11-23 14:30:51.359810","","","","","","",""
12.0,0.04321004077792168,0.001912286161800088,"train",13900.0,"2021-11-23 14:30:54.975952","","","","","","",""
12.0,0.03695560246706009,0.0019138431814886008,"train",13920.0,"2021-11-23 14:30:58.440097","","","","","","",""
12.0,0.061753302812576294,0.0019153869071816896,"train",13940.0,"2021-11-23 14:31:01.768426","","","","","","",""
12.0,0.04525388404726982,0.0019169173153942693,"train",13960.0,"2021-11-23 14:31:05.221981","","","","","","",""
12.0,"","","train",13962.0,"2021-11-23 14:34:25.012634",0.600291057265517,0.689279601026246,0.9715969966743182,0.6552190321913078,0.5554787232335291,0.581165469486524,0.38243099275221
12.0,"","","val",13962.0,"2021-11-23 14:35:17.201625",0.5688275542154703,0.6028994513003976,0.9585669137659714,0.6154173997256931,0.5103122406775581,0.5293884525405569,0.34068055067377856
13.0,0.04612457752227783,0.0019184343828438557,"train",13980.0,"2021-11-23 14:35:23.622128","","","","","","",""
13.0,0.08793416619300842,0.0019199380864509208,"train",14000.0,"2021-11-23 14:35:27.185532","","","","","","",""
13.0,0.044661447405815125,0.0019214284033392457,"train",14020.0,"2021-11-23 14:35:30.598385","","","","","","",""
13.0,0.06108060106635094,0.0019229053108362649,"train",14040.0,"2021-11-23 14:35:33.955867","","","","","","",""
13.0,0.04208644852042198,0.0019243687864734145,"train",14060.0,"2021-11-23 14:35:37.435169","","","","","","",""
13.0,0.08629448711872101,0.0019258188079864732,"train",14080.0,"2021-11-23 14:35:41.740495","","","","","","",""
13.0,0.07276588678359985,0.0019272553533158999,"train",14100.0,"2021-11-23 14:35:45.284216","","","","","","",""
13.0,0.05259373411536217,0.0019286784006071697,"train",14120.0,"2021-11-23 14:35:48.821031","","","","","","",""
13.0,0.04904428496956825,0.0019300879282111083,"train",14140.0,"2021-11-23 14:35:52.332694","","","","","","",""
13.0,0.05883127078413963,0.0019314839146842185,"train",14160.0,"2021-11-23 14:35:55.783457","","","","","","",""
13.0,0.07675250619649887,0.0019328663387890076,"train",14180.0,"2021-11-23 14:35:59.231636","","","","","","",""
13.0,0.044529303908348083,0.0019342351794943119,"train",14200.0,"2021-11-23 14:36:03.311136","","","","","","",""
13.0,0.049889080226421356,0.0019355904159756138,"train",14220.0,"2021-11-23 14:36:06.767085","","","","","","",""
13.0,0.04286012053489685,0.0019369320276153613,"train",14240.0,"2021-11-23 14:36:10.194047","","","","","","",""
13.0,0.05762886255979538,0.00193825999400328,"train",14260.0,"2021-11-23 14:36:13.549829","","","","","","",""
13.0,0.07409920543432236,0.0019395742949366843,"train",14280.0,"2021-11-23 14:36:16.923702","","","","","","",""
13.0,0.045041389763355255,0.0019408749104207845,"train",14300.0,"2021-11-23 14:36:21.077490","","","","","","",""
13.0,0.06091635674238205,0.0019421618206689913,"train",14320.0,"2021-11-23 14:36:24.523560","","","","","","",""
13.0,0.06488742679357529,0.0019434350061032163,"train",14340.0,"2021-11-23 14:36:27.885865","","","","","","",""
13.0,0.04493766278028488,0.0019446944473541703,"train",14360.0,"2021-11-23 14:36:31.274289","","","","","","",""
13.0,0.06800677627325058,0.0019459401252616573,"train",14380.0,"2021-11-23 14:36:34.868772","","","","","","",""
13.0,0.043637964874506,0.001947172020874868,"train",14400.0,"2021-11-23 14:36:39.064899","","","","","","",""
13.0,0.05290278419852257,0.0019483901154526647,"train",14420.0,"2021-11-23 14:36:42.430444","","","","","","",""
13.0,0.04682818800210953,0.0019495943904638694,"train",14440.0,"2021-11-23 14:36:45.793468","","","","","","",""
13.0,0.04320988431572914,0.0019507848275875444,"train",14460.0,"2021-11-23 14:36:49.219465","","","","","","",""
13.0,0.04299478605389595,0.0019519614087132712,"train",14480.0,"2021-11-23 14:36:52.651604","","","","","","",""
13.0,0.07425433397293091,0.0019531241159414263,"train",14500.0,"2021-11-23 14:36:56.696591","","","","","","",""
13.0,0.06949366629123688,0.001954272931583453,"train",14520.0,"2021-11-23 14:37:00.084949","","","","","","",""
13.0,0.04884129390120506,0.0019554078381621306,"train",14540.0,"2021-11-23 14:37:03.455136","","","","","","",""
13.0,0.04060017690062523,0.0019565288184118417,"train",14560.0,"2021-11-23 14:37:06.982855","","","","","","",""
13.0,0.05563534423708916,0.0019576358552788314,"train",14580.0,"2021-11-23 14:37:10.571008","","","","","","",""
13.0,0.05490602180361748,0.0019587289319214713,"train",14600.0,"2021-11-23 14:37:14.730037","","","","","","",""
13.0,0.03073759377002716,0.0019598080317105113,"train",14620.0,"2021-11-23 14:37:18.178520","","","","","","",""
13.0,0.05912645161151886,0.001960873138229337,"train",14640.0,"2021-11-23 14:37:21.659865","","","","","","",""
13.0,0.08194112032651901,0.0019619242352742153,"train",14660.0,"2021-11-23 14:37:25.210610","","","","","","",""
13.0,0.05459415540099144,0.001962961306854543,"train",14680.0,"2021-11-23 14:37:28.776920","","","","","","",""
13.0,0.07120329141616821,0.0019639843371930905,"train",14700.0,"2021-11-23 14:37:32.725081","","","","","","",""
13.0,0.06067100167274475,0.001964993310726241,"train",14720.0,"2021-11-23 14:37:36.040746","","","","","","",""
13.0,0.07142619043588638,0.0019659882121042262,"train",14740.0,"2021-11-23 14:37:39.407141","","","","","","",""
13.0,0.05296485498547554,0.001966969026191363,"train",14760.0,"2021-11-23 14:37:42.749107","","","","","","",""
13.0,0.04695839807391167,0.0019679357380662805,"train",14780.0,"2021-11-23 14:37:46.078043","","","","","","",""
13.0,0.07044344395399094,0.001968888333022148,"train",14800.0,"2021-11-23 14:37:49.484549","","","","","","",""
13.0,0.048876985907554626,0.0019698267965669,"train",14820.0,"2021-11-23 14:37:53.438213","","","","","","",""
13.0,0.05508400872349739,0.0019707511144234557,"train",14840.0,"2021-11-23 14:37:56.733701","","","","","","",""
13.0,0.046796947717666626,0.001971661272529935,"train",14860.0,"2021-11-23 14:38:00.100659","","","","","","",""
13.0,0.057797886431217194,0.001972557257039875,"train",14880.0,"2021-11-23 14:38:03.566609","","","","","","",""
13.0,0.06261474639177322,0.0019734390543224385,"train",14900.0,"2021-11-23 14:38:07.009927","","","","","","",""
13.0,0.058460842818021774,0.001974306650962622,"train",14920.0,"2021-11-23 14:38:11.036177","","","","","","",""
13.0,0.06906028836965561,0.0019751600337614608,"train",14940.0,"2021-11-23 14:38:14.379112","","","","","","",""
13.0,0.059848055243492126,0.0019759991897362284,"train",14960.0,"2021-11-23 14:38:17.664279","","","","","","",""
13.0,0.0782926082611084,0.0019768241061206343,"train",14980.0,"2021-11-23 14:38:21.096874","","","","","","",""
13.0,0.06160755455493927,0.0019776347703650186,"train",15000.0,"2021-11-23 14:38:24.559110","","","","","","",""
13.0,0.08255654573440552,0.001978431170136543,"train",15020.0,"2021-11-23 14:38:28.611888","","","","","","",""
13.0,"","","train",15036.0,"2021-11-23 14:41:50.302439",0.598937640980863,0.6988502213226855,0.9733405364312249,0.6490089247789131,0.5678937379415652,0.584604150879925,0.38483159106267384
13.0,"","","val",15036.0,"2021-11-23 14:42:42.052565",0.5699872434187637,0.6110457198357306,0.9601687094341395,0.6098917159120844,0.5120835715236246,0.5270458483168327,0.33342841774234816
14.0,0.06530731171369553,0.0019792132933193784,"train",15040.0,"2021-11-23 14:42:45.083690","","","","","","",""
14.0,0.0416002981364727,0.001979981128014888,"train",15060.0,"2021-11-23 14:42:48.747590","","","","","","",""
14.0,0.059367742389440536,0.001980734662541811,"train",15080.0,"2021-11-23 14:42:52.203817","","","","","","",""
14.0,0.08334027975797653,0.0019814738854364374,"train",15100.0,"2021-11-23 14:42:55.613848","","","","","","",""
14.0,0.07033397257328033,0.0019821987854527832,"train",15120.0,"2021-11-23 14:42:59.777298","","","","","","",""
14.0,0.048777710646390915,0.0019829093515627634,"train",15140.0,"2021-11-23 14:43:03.282509","","","","","","",""
14.0,0.03444855287671089,0.001983605572956358,"train",15160.0,"2021-11-23 14:43:06.826425","","","","","","",""
14.0,0.06070294976234436,0.001984287439041775,"train",15180.0,"2021-11-23 14:43:10.274490","","","","","","",""
14.0,0.043576352298259735,0.001984954939445616,"train",15200.0,"2021-11-23 14:43:13.656739","","","","","","",""
14.0,0.04826539009809494,0.0019856080640130295,"train",15220.0,"2021-11-23 14:43:17.682549","","","","","","",""
14.0,0.06238749623298645,0.0019862468028078676,"train",15240.0,"2021-11-23 14:43:21.067712","","","","","","",""
14.0,0.06231915205717087,0.001986871146112837,"train",15260.0,"2021-11-23 14:43:24.629231","","","","","","",""
14.0,0.056030962616205215,0.0019874810844296466,"train",15280.0,"2021-11-23 14:43:28.286005","","","","","","",""
14.0,0.04056306183338165,0.0019880766084791517,"train",15300.0,"2021-11-23 14:43:31.848664","","","","","","",""
14.0,0.059042900800704956,0.0019886577092014953,"train",15320.0,"2021-11-23 14:43:36.040942","","","","","","",""
14.0,0.031355567276477814,0.001989224377756247,"train",15340.0,"2021-11-23 14:43:39.514366","","","","","","",""
14.0,0.041687361896038055,0.0019897766055225353,"train",15360.0,"2021-11-23 14:43:43.017068","","","","","","",""
14.0,0.06280167400836945,0.0019903143840991813,"train",15380.0,"2021-11-23 14:43:46.498004","","","","","","",""
14.0,0.05608292296528816,0.0019908377053048246,"train",15400.0,"2021-11-23 14:43:49.886553","","","","","","",""
14.0,0.08017369359731674,0.001991346561178048,"train",15420.0,"2021-11-23 14:43:53.847438","","","","","","",""
14.0,0.059241704642772675,0.0019918409439775003,"train",15440.0,"2021-11-23 14:43:57.203813","","","","","","",""
14.0,0.08332331478595734,0.0019923208461820117,"train",15460.0,"2021-11-23 14:44:00.592369","","","","","","",""
14.0,0.07150381058454514,0.001992786260490709,"train",15480.0,"2021-11-23 14:44:03.968850","","","","","","",""
14.0,0.056742697954177856,0.0019932371798231287,"train",15500.0,"2021-11-23 14:44:07.500266","","","","","","",""
14.0,0.04985244199633598,0.0019936735973193212,"train",15520.0,"2021-11-23 14:44:11.005852","","","","","","",""
14.0,0.04948708042502403,0.001994095506339958,"train",15540.0,"2021-11-23 14:44:15.173873","","","","","","",""
14.0,0.05781601741909981,0.001994502900466431,"train",15560.0,"2021-11-23 14:44:18.724711","","","","","","",""
14.0,0.03418869897723198,0.0019948957735009517,"train",15580.0,"2021-11-23 14:44:22.164449","","","","","","",""
14.0,0.08956221491098404,0.0019952741194666436,"train",15600.0,"2021-11-23 14:44:25.400481","","","","","","",""
14.0,0.08419130742549896,0.0019956379326076354,"train",15620.0,"2021-11-23 14:44:28.850547","","","","","","",""
14.0,0.04527115821838379,0.001995987207389146,"train",15640.0,"2021-11-23 14:44:32.976048","","","","","","",""
14.0,0.060625024139881134,0.0019963219384975706,"train",15660.0,"2021-11-23 14:44:36.512070","","","","","","",""
14.0,0.07445444911718369,0.001996642120840561,"train",15680.0,"2021-11-23 14:44:40.058296","","","","","","",""
14.0,0.051099713891744614,0.001996947749547103,"train",15700.0,"2021-11-23 14:44:43.555128","","","","","","",""
14.0,0.05971420928835869,0.0019972388199675905,"train",15720.0,"2021-11-23 14:44:47.065917","","","","","","",""
14.0,0.05075914040207863,0.001997515327673896,"train",15740.0,"2021-11-23 14:44:51.277076","","","","","","",""
14.0,0.08715873211622238,0.0019977772684594388,"train",15760.0,"2021-11-23 14:44:54.792403","","","","","","",""
14.0,0.04023173451423645,0.0019980246383392475,"train",15780.0,"2021-11-23 14:44:58.328091","","","","","","",""
14.0,0.060751773416996,0.0019982574335500225,"train",15800.0,"2021-11-23 14:45:01.756780","","","","","","",""
14.0,0.050299305468797684,0.001998475650550192,"train",15820.0,"2021-11-23 14:45:05.194595","","","","","","",""
14.0,0.03346404433250427,0.0019986792860199657,"train",15840.0,"2021-11-23 14:45:09.338144","","","","","","",""
14.0,0.05163714289665222,0.001998868336861386,"train",15860.0,"2021-11-23 14:45:12.998353","","","","","","",""
14.0,0.06091752648353577,0.001999042800198376,"train",15880.0,"2021-11-23 14:45:16.321203","","","","","","",""
14.0,0.04021350294351578,0.00199920267337678,"train",15900.0,"2021-11-23 14:45:19.737017","","","","","","",""
14.0,0.05316167324781418,0.0019993479539644077,"train",15920.0,"2021-11-23 14:45:23.331918","","","","","","",""
14.0,0.058738160878419876,0.0019994786397510697,"train",15940.0,"2021-11-23 14:45:27.510865","","","","","","",""
14.0,0.044082023203372955,0.0019995947287486096,"train",15960.0,"2021-11-23 14:45:31.150118","","","","","","",""
14.0,0.06251461058855057,0.0019996962191909367,"train",15980.0,"2021-11-23 14:45:34.641311","","","","","","",""
14.0,0.041068095713853836,0.0019997831095340513,"train",16000.0,"2021-11-23 14:45:37.967036","","","","","","",""
14.0,0.04407835751771927,0.001999855398456069,"train",16020.0,"2021-11-23 14:45:41.588952","","","","","","",""
14.0,0.04668378829956055,0.00199991308485724,"train",16040.0,"2021-11-23 14:45:45.824243","","","","","","",""
14.0,0.06271088123321533,0.001999956167859967,"train",16060.0,"2021-11-23 14:45:49.423463","","","","","","",""
14.0,0.042737413197755814,0.0019999846468088172,"train",16080.0,"2021-11-23 14:45:52.926745","","","","","","",""
14.0,0.04140344262123108,0.0019999985212705335,"train",16100.0,"2021-11-23 14:45:56.392037","","","","","","",""
14.0,"","","train",16110.0,"2021-11-23 14:49:18.998938",0.6067816342865459,0.7080011091101652,0.973773852834314,0.6545961229574313,0.5662512911200076,0.5837829244619066,0.38598653522831
14.0,"","","val",16110.0,"2021-11-23 14:50:10.899915",0.5757277049750666,0.6110666534058962,0.9593514566303003,0.6111140014822952,0.5171458679280879,0.528750129819475,0.3379879054699052
15.0,0.07408468425273895,0.0019999995774202316,"train",16120.0,"2021-11-23 14:50:15.079496","","","","","","",""
15.0,0.03573760390281677,0.0019999966438102564,"train",16140.0,"2021-11-23 14:50:18.751116","","","","","","",""
15.0,0.034502528607845306,0.0019999909162942875,"train",16160.0,"2021-11-23 14:50:23.092242","","","","","","",""
15.0,0.08027508109807968,0.001999982394888327,"train",16180.0,"2021-11-23 14:50:26.681280","","","","","","",""
15.0,0.04387970268726349,0.0019999710796161823,"train",16200.0,"2021-11-23 14:50:30.224960","","","","","","",""
15.0,0.047639161348342896,0.0019999569705094686,"train",16220.0,"2021-11-23 14:50:33.638287","","","","","","",""
15.0,0.06112018600106239,0.001999940067607605,"train",16240.0,"2021-11-23 14:50:37.167867","","","","","","",""
15.0,0.05075863376259804,0.001999920370957817,"train",16260.0,"2021-11-23 14:50:41.281551","","","","","","",""
15.0,0.049310941249132156,0.0019998978806151355,"train",16280.0,"2021-11-23 14:50:44.816399","","","","","","",""
15.0,0.041200149804353714,0.0019998725966423976,"train",16300.0,"2021-11-23 14:50:48.325288","","","","","","",""
15.0,0.06175974756479263,0.001999844519110244,"train",16320.0,"2021-11-23 14:50:51.858293","","","","","","",""
15.0,0.05297490954399109,0.001999813648097122,"train",16340.0,"2021-11-23 14:50:55.215909","","","","","","",""
15.0,0.06059929355978966,0.001999779983689282,"train",16360.0,"2021-11-23 14:50:59.067465","","","","","","",""
15.0,0.05417385697364807,0.0019997435259807806,"train",16380.0,"2021-11-23 14:51:02.358573","","","","","","",""
15.0,0.05795867741107941,0.001999704275073478,"train",16400.0,"2021-11-23 14:51:05.746296","","","","","","",""
15.0,0.06370673328638077,0.0019996622310770383,"train",16420.0,"2021-11-23 14:51:09.155165","","","","","","",""
15.0,0.07935953140258789,0.0019996173941089286,"train",16440.0,"2021-11-23 14:51:12.590594","","","","","","",""
15.0,0.045437511056661606,0.0019995697642944212,"train",16460.0,"2021-11-23 14:51:16.664175","","","","","","",""
15.0,0.049339644610881805,0.0019995193417665894,"train",16480.0,"2021-11-23 14:51:20.021633","","","","","","",""
15.0,0.07049262523651123,0.0019994661266663108,"train",16500.0,"2021-11-23 14:51:23.450390","","","","","","",""
15.0,0.04470403492450714,0.001999410119142264,"train",16520.0,"2021-11-23 14:51:26.870839","","","","","","",""
15.0,0.06244002282619476,0.0019993513193509297,"train",16540.0,"2021-11-23 14:51:30.276235","","","","","","",""
15.0,0.056749362498521805,0.0019992897274565906,"train",16560.0,"2021-11-23 14:51:34.272626","","","","","","",""
15.0,0.07908844947814941,0.0019992253436313303,"train",16580.0,"2021-11-23 14:51:37.618970","","","","","","",""
15.0,0.056238580495119095,0.0019991581680550313,"train",16600.0,"2021-11-23 14:51:40.992546","","","","","","",""
15.0,0.056339118629693985,0.0019990882009153785,"train",16620.0,"2021-11-23 14:51:44.455013","","","","","","",""
15.0,0.10078660398721695,0.001999015442407854,"train",16640.0,"2021-11-23 14:51:47.901535","","","","","","",""
15.0,0.045393604785203934,0.0019989398927357403,"train",16660.0,"2021-11-23 14:51:51.872930","","","","","","",""
15.0,0.08309043943881989,0.0019988615521101174,"train",16680.0,"2021-11-23 14:51:55.177431","","","","","","",""
15.0,0.05965150520205498,0.0019987804207498637,"train",16700.0,"2021-11-23 14:51:58.510536","","","","","","",""
15.0,0.05732432007789612,0.0019986964988816533,"train",16720.0,"2021-11-23 14:52:01.967549","","","","","","",""
15.0,0.04362901672720909,0.0019986097867399585,"train",16740.0,"2021-11-23 14:52:05.435381","","","","","","",""
15.0,0.06778746098279953,0.0019985202845670463,"train",16760.0,"2021-11-23 14:52:09.538930","","","","","","",""
15.0,0.03680270537734032,0.0019984279926129798,"train",16780.0,"2021-11-23 14:52:12.849343","","","","","","",""
15.0,0.05964081361889839,0.001998332911135615,"train",16800.0,"2021-11-23 14:52:16.203543","","","","","","",""
15.0,0.05417952314019203,0.0019982350404006036,"train",16820.0,"2021-11-23 14:52:19.564916","","","","","","",""
15.0,0.06430438905954361,0.0019981343806813883,"train",16840.0,"2021-11-23 14:52:23.045371","","","","","","",""
15.0,0.031552381813526154,0.001998030932259205,"train",16860.0,"2021-11-23 14:52:26.521333","","","","","","",""
15.0,0.08064498007297516,0.0019979246954230823,"train",16880.0,"2021-11-23 14:52:30.598960","","","","","","",""
15.0,0.0869758352637291,0.0019978156704698363,"train",16900.0,"2021-11-23 14:52:34.113583","","","","","","",""
15.0,0.07134786993265152,0.001997703857704076,"train",16920.0,"2021-11-23 14:52:37.631422","","","","","","",""
15.0,0.06062251701951027,0.0019975892574381976,"train",16940.0,"2021-11-23 14:52:41.202968","","","","","","",""
15.0,0.05449889600276947,0.001997471869992386,"train",16960.0,"2021-11-23 14:52:44.775213","","","","","","",""
15.0,0.06147750839591026,0.0019973516956946127,"train",16980.0,"2021-11-23 14:52:49.007646","","","","","","",""
15.0,0.041243113577365875,0.0019972287348806366,"train",17000.0,"2021-11-23 14:52:52.562652","","","","","","",""
15.0,0.05536628141999245,0.0019971029878940003,"train",17020.0,"2021-11-23 14:52:55.919842","","","","","","",""
15.0,0.059991076588630676,0.0019969744550860317,"train",17040.0,"2021-11-23 14:52:59.404574","","","","","","",""
15.0,0.06779097020626068,0.0019968431368158433,"train",17060.0,"2021-11-23 14:53:02.889638","","","","","","",""
15.0,0.07146626710891724,0.001996709033450327,"train",17080.0,"2021-11-23 14:53:07.066574","","","","","","",""
15.0,0.0508861280977726,0.0019965721453641585,"train",17100.0,"2021-11-23 14:53:10.454091","","","","","","",""
15.0,0.07099302113056183,0.0019964324729397935,"train",17120.0,"2021-11-23 14:53:14.003358","","","","","","",""
15.0,0.07246392965316772,0.0019962900165674657,"train",17140.0,"2021-11-23 14:53:17.532041","","","","","","",""
15.0,0.05427073314785957,0.0019961447766451887,"train",17160.0,"2021-11-23 14:53:20.899358","","","","","","",""
15.0,0.047102995216846466,0.001995996753578751,"train",17180.0,"2021-11-23 14:53:24.920370","","","","","","",""
15.0,"","","train",17184.0,"2021-11-23 14:56:45.544310",0.6050643964199957,0.7199106379729311,0.9758412481453649,0.6534654545152694,0.5643563753972985,0.5970413832234068,0.3868727420147705
15.0,"","","val",17184.0,"2021-11-23 14:57:37.713757",0.5659283312072365,0.6127262756557786,0.9600489899923126,0.6020642916320186,0.5007610318959276,0.5268659523472142,0.32949721838698437
16.0,0.04043176770210266,0.001995845947781719,"train",17200.0,"2021-11-23 14:57:43.038053","","","","","","",""
16.0,0.07353833317756653,0.001995692359675433,"train",17220.0,"2021-11-23 14:57:46.753953","","","","","","",""
16.0,0.0646105483174324,0.0019955359896890066,"train",17240.0,"2021-11-23 14:57:50.326830","","","","","","",""
16.0,0.054117001593112946,0.0019953768382593258,"train",17260.0,"2021-11-23 14:57:53.717377","","","","","","",""
16.0,0.05206485092639923,0.0019952149058310486,"train",17280.0,"2021-11-23 14:57:57.928993","","","","","","",""
16.0,0.04201439023017883,0.001995050192856602,"train",17300.0,"2021-11-23 14:58:01.547186","","","","","","",""
16.0,0.03204891085624695,0.001994882699796182,"train",17320.0,"2021-11-23 14:58:05.152030","","","","","","",""
16.0,0.052757587283849716,0.001994712427117752,"train",17340.0,"2021-11-23 14:58:08.731454","","","","","","",""
16.0,0.05275388062000275,0.0019945393752970413,"train",17360.0,"2021-11-23 14:58:12.053605","","","","","","",""
16.0,0.06715347617864609,0.001994363544817544,"train",17380.0,"2021-11-23 14:58:15.375063","","","","","","",""
16.0,0.04574480652809143,0.001994184936170517,"train",17400.0,"2021-11-23 14:58:19.374267","","","","","","",""
16.0,0.06374446302652359,0.0019940035498549804,"train",17420.0,"2021-11-23 14:58:22.772733","","","","","","",""
16.0,0.055963583290576935,0.0019938193863777145,"train",17440.0,"2021-11-23 14:58:26.134745","","","","","","",""
16.0,0.0396428219974041,0.001993632446253258,"train",17460.0,"2021-11-23 14:58:29.576400","","","","","","",""
16.0,0.04101438820362091,0.0019934427300039074,"train",17480.0,"2021-11-23 14:58:33.012021","","","","","","",""
16.0,0.058716047555208206,0.001993250238159717,"train",17500.0,"2021-11-23 14:58:37.259370","","","","","","",""
16.0,0.04525537043809891,0.0019930549712584944,"train",17520.0,"2021-11-23 14:58:40.797761","","","","","","",""
16.0,0.05915199592709541,0.001992856929845801,"train",17540.0,"2021-11-23 14:58:44.266310","","","","","","",""
16.0,0.04649326577782631,0.0019926561144749497,"train",17560.0,"2021-11-23 14:58:47.716887","","","","","","",""
16.0,0.044697754085063934,0.001992452525707004,"train",17580.0,"2021-11-23 14:58:51.224580","","","","","","",""
16.0,0.09437750279903412,0.0019922461641107767,"train",17600.0,"2021-11-23 14:58:55.462072","","","","","","",""
16.0,0.04242365434765816,0.001992037030262826,"train",17620.0,"2021-11-23 14:58:59.061727","","","","","","",""
16.0,0.0428103543817997,0.0019918251247474567,"train",17640.0,"2021-11-23 14:59:02.674744","","","","","","",""
16.0,0.04468551278114319,0.001991610448156718,"train",17660.0,"2021-11-23 14:59:06.202370","","","","","","",""
16.0,0.04969879984855652,0.0019913930010903996,"train",17680.0,"2021-11-23 14:59:09.784619","","","","","","",""
16.0,0.06896451860666275,0.001991172784156033,"train",17700.0,"2021-11-23 14:59:14.088538","","","","","","",""
16.0,0.04149114340543747,0.0019909497979688877,"train",17720.0,"2021-11-23 14:59:17.703592","","","","","","",""
16.0,0.04640214145183563,0.0019907240431519713,"train",17740.0,"2021-11-23 14:59:21.321197","","","","","","",""
16.0,0.07277724891901016,0.001990495520336026,"train",17760.0,"2021-11-23 14:59:24.975487","","","","","","",""
16.0,0.046416040509939194,0.0019902642301595284,"train",17780.0,"2021-11-23 14:59:28.452320","","","","","","",""
16.0,0.05546253174543381,0.001990030173268685,"train",17800.0,"2021-11-23 14:59:32.613400","","","","","","",""
16.0,0.042572010308504105,0.0019897933503174345,"train",17820.0,"2021-11-23 14:59:36.018811","","","","","","",""
16.0,0.039374783635139465,0.0019895537619674425,"train",17840.0,"2021-11-23 14:59:39.412504","","","","","","",""
16.0,0.04752132296562195,0.001989311408888101,"train",17860.0,"2021-11-23 14:59:42.766943","","","","","","",""
16.0,0.06435911357402802,0.001989066291756527,"train",17880.0,"2021-11-23 14:59:46.149596","","","","","","",""
16.0,0.040596067905426025,0.00198881841125756,"train",17900.0,"2021-11-23 14:59:50.138777","","","","","","",""
16.0,0.05335574597120285,0.0019885677680837595,"train",17920.0,"2021-11-23 14:59:53.454875","","","","","","",""
16.0,0.07351996004581451,0.001988314362935404,"train",17940.0,"2021-11-23 14:59:56.812225","","","","","","",""
16.0,0.0570940263569355,0.0019880581965204896,"train",17960.0,"2021-11-23 15:00:00.346905","","","","","","",""
16.0,0.05316678062081337,0.0019877992695547255,"train",17980.0,"2021-11-23 15:00:03.877744","","","","","","",""
16.0,0.05247936025261879,0.0019875375827615354,"train",18000.0,"2021-11-23 15:00:08.038171","","","","","","",""
16.0,0.04215061664581299,0.0019872731368720527,"train",18020.0,"2021-11-23 15:00:11.549340","","","","","","",""
16.0,0.061079494655132294,0.00198700593262512,"train",18040.0,"2021-11-23 15:00:15.077596","","","","","","",""
16.0,0.03740401566028595,0.001986735970767286,"train",18060.0,"2021-11-23 15:00:18.662307","","","","","","",""
16.0,0.04203317314386368,0.001986463252052804,"train",18080.0,"2021-11-23 15:00:22.195026","","","","","","",""
16.0,0.06325018405914307,0.0019861877772436305,"train",18100.0,"2021-11-23 15:00:26.372689","","","","","","",""
16.0,0.06633354723453522,0.001985909547109422,"train",18120.0,"2021-11-23 15:00:29.936055","","","","","","",""
16.0,0.07254383713006973,0.001985628562427533,"train",18140.0,"2021-11-23 15:00:33.456819","","","","","","",""
16.0,0.04072592779994011,0.001985344823983014,"train",18160.0,"2021-11-23 15:00:36.751203","","","","","","",""
16.0,0.05900810658931732,0.001985058332568609,"train",18180.0,"2021-11-23 15:00:40.044148","","","","","","",""
16.0,0.03704800456762314,0.001984769088984755,"train",18200.0,"2021-11-23 15:00:43.364148","","","","","","",""
16.0,0.08413282036781311,0.001984477094039576,"train",18220.0,"2021-11-23 15:00:47.393882","","","","","","",""
16.0,0.04965582489967346,0.001984182348548885,"train",18240.0,"2021-11-23 15:00:50.701626","","","","","","",""
16.0,"","","train",18258.0,"2021-11-23 15:04:13.708811",0.6250018191079095,0.7277213891077673,0.9766860121380739,0.6317279928772427,0.5799787480034465,0.6034687244956282,0.40462190021603717
16.0,"","","val",18258.0,"2021-11-23 15:05:05.673191",0.5866287834860258,0.619238626465119,0.9607851142181095,0.582001019559949,0.5187560568981444,0.5364992081511202,0.34574149243097857
17.0,0.03283194825053215,0.00198388485333618,"train",18260.0,"2021-11-23 15:05:08.312792","","","","","","",""
17.0,0.05214344710111618,0.0019835846092326396,"train",18280.0,"2021-11-23 15:05:12.039068","","","","","","",""
17.0,0.0654948353767395,0.0019832816170771246,"train",18300.0,"2021-11-23 15:05:15.593888","","","","","","",""
17.0,0.07439223676919937,0.001982975877716172,"train",18320.0,"2021-11-23 15:05:19.816782","","","","","","",""
17.0,0.07049579918384552,0.0019826673920039957,"train",18340.0,"2021-11-23 15:05:23.300960","","","","","","",""
17.0,0.06652278453111649,0.0019823561608024822,"train",18360.0,"2021-11-23 15:05:26.688249","","","","","","",""
17.0,0.06975218653678894,0.0019820421849811886,"train",18380.0,"2021-11-23 15:05:30.053880","","","","","","",""
17.0,0.03629186004400253,0.0019817254654173402,"train",18400.0,"2021-11-23 15:05:33.428508","","","","","","",""
17.0,0.03821045160293579,0.0019814060029958278,"train",18420.0,"2021-11-23 15:05:37.718587","","","","","","",""
17.0,0.049284934997558594,0.001981083798609206,"train",18440.0,"2021-11-23 15:05:41.221223","","","","","","",""
17.0,0.05696694552898407,0.0019807588531576908,"train",18460.0,"2021-11-23 15:05:44.611217","","","","","","",""
17.0,0.05656924843788147,0.0019804311675491555,"train",18480.0,"2021-11-23 15:05:48.008424","","","","","","",""
17.0,0.04563748091459274,0.00198010074269913,"train",18500.0,"2021-11-23 15:05:51.375836","","","","","","",""
17.0,0.07827483117580414,0.0019797675795307965,"train",18520.0,"2021-11-23 15:05:55.562595","","","","","","",""
17.0,0.04608326032757759,0.0019794316789749885,"train",18540.0,"2021-11-23 15:05:58.977201","","","","","","",""
17.0,0.04565022885799408,0.0019790930419701877,"train",18560.0,"2021-11-23 15:06:02.531198","","","","","","",""
17.0,0.034850604832172394,0.0019787516694625214,"train",18580.0,"2021-11-23 15:06:06.109347","","","","","","",""
17.0,0.03332817927002907,0.0019784075624057584,"train",18600.0,"2021-11-23 15:06:09.704789","","","","","","",""
17.0,0.06241494044661522,0.0019780607217613094,"train",18620.0,"2021-11-23 15:06:13.973328","","","","","","",""
17.0,0.04874658212065697,0.001977711148498221,"train",18640.0,"2021-11-23 15:06:17.575514","","","","","","",""
17.0,0.096332848072052,0.0019773588435931756,"train",18660.0,"2021-11-23 15:06:21.119341","","","","","","",""
17.0,0.058000195771455765,0.0019770038080304873,"train",18680.0,"2021-11-23 15:06:24.687787","","","","","","",""
17.0,0.03581837937235832,0.001976646042802099,"train",18700.0,"2021-11-23 15:06:28.243902","","","","","","",""
17.0,0.034475479274988174,0.0019762855489075808,"train",18720.0,"2021-11-23 15:06:31.877604","","","","","","",""
17.0,0.06075482442975044,0.001975922327354126,"train",18740.0,"2021-11-23 15:06:36.202613","","","","","","",""
17.0,0.08845764398574829,0.001975556379156549,"train",18760.0,"2021-11-23 15:06:39.924061","","","","","","",""
17.0,0.04402716085314751,0.0019751877053372823,"train",18780.0,"2021-11-23 15:06:43.392853","","","","","","",""
17.0,0.03818799927830696,0.001974816306926373,"train",18800.0,"2021-11-23 15:06:46.771056","","","","","","",""
17.0,0.05506686866283417,0.001974442184961482,"train",18820.0,"2021-11-23 15:06:50.151100","","","","","","",""
17.0,0.042464304715394974,0.0019740653404878776,"train",18840.0,"2021-11-23 15:06:54.222383","","","","","","",""
17.0,0.03975639119744301,0.0019736857745584362,"train",18860.0,"2021-11-23 15:06:57.592489","","","","","","",""
17.0,0.06761636584997177,0.0019733034882336367,"train",18880.0,"2021-11-23 15:07:00.851082","","","","","","",""
17.0,0.06610509008169174,0.0019729184825815586,"train",18900.0,"2021-11-23 15:07:04.347821","","","","","","",""
17.0,0.07195848226547241,0.0019725307586778806,"train",18920.0,"2021-11-23 15:07:07.848219","","","","","","",""
17.0,0.05413416028022766,0.001972140317605874,"train",18940.0,"2021-11-23 15:07:12.063565","","","","","","",""
17.0,0.0688682273030281,0.0019717471604564028,"train",18960.0,"2021-11-23 15:07:15.585919","","","","","","",""
17.0,0.049014102667570114,0.0019713512883279185,"train",18980.0,"2021-11-23 15:07:19.255826","","","","","","",""
17.0,0.04511481150984764,0.00197095270232646,"train",19000.0,"2021-11-23 15:07:22.853205","","","","","","",""
17.0,0.05928719416260719,0.001970551403565646,"train",19020.0,"2021-11-23 15:07:26.460899","","","","","","",""
17.0,0.04019482061266899,0.0019701473931666765,"train",19040.0,"2021-11-23 15:07:30.639969","","","","","","",""
17.0,0.05982772260904312,0.001969740672258327,"train",19060.0,"2021-11-23 15:07:34.207411","","","","","","",""
17.0,0.06912597268819809,0.0019693312419769454,"train",19080.0,"2021-11-23 15:07:37.786685","","","","","","",""
17.0,0.047869376838207245,0.0019689191034664498,"train",19100.0,"2021-11-23 15:07:41.221200","","","","","","",""
17.0,0.03883114457130432,0.0019685042578783257,"train",19120.0,"2021-11-23 15:07:44.655059","","","","","","",""
17.0,0.05359244719147682,0.00196808670637162,"train",19140.0,"2021-11-23 15:07:48.912760","","","","","","",""
17.0,0.04508354142308235,0.001967666450112942,"train",19160.0,"2021-11-23 15:07:52.485630","","","","","","",""
17.0,0.055784810334444046,0.001967243490276456,"train",19180.0,"2021-11-23 15:07:56.036375","","","","","","",""
17.0,0.04963575303554535,0.0019668178280438818,"train",19200.0,"2021-11-23 15:07:59.417779","","","","","","",""
17.0,0.035070836544036865,0.0019663894646044875,"train",19220.0,"2021-11-23 15:08:02.871555","","","","","","",""
17.0,0.056468576192855835,0.001965958401155089,"train",19240.0,"2021-11-23 15:08:07.073942","","","","","","",""
17.0,0.05192860588431358,0.0019655246389000463,"train",19260.0,"2021-11-23 15:08:10.537679","","","","","","",""
17.0,0.031776923686265945,0.0019650881790512597,"train",19280.0,"2021-11-23 15:08:14.000749","","","","","","",""
17.0,0.05591737851500511,0.001964649022828165,"train",19300.0,"2021-11-23 15:08:17.401942","","","","","","",""
17.0,0.04513279348611832,0.0019642071714577325,"train",19320.0,"2021-11-23 15:08:20.793980","","","","","","",""
17.0,"","","train",19332.0,"2021-11-23 15:11:42.967844",0.6261806010332533,0.7406012152662211,0.9780409778261974,0.6695970642093163,0.5937299561022923,0.6263265376382716,0.4130626625857339
17.0,"","","val",19332.0,"2021-11-23 15:12:34.786918",0.5802504928679114,0.620846191613829,0.9624344927911573,0.6118455192267118,0.5182220988183016,0.5449819643185202,0.3418279424852594
18.0,0.04680574685335159,0.0019637626261744634,"train",19340.0,"2021-11-23 15:12:38.560952","","","","","","",""
18.0,0.03621990233659744,0.001963315388220384,"train",19360.0,"2021-11-23 15:12:42.927807","","","","","","",""
18.0,0.057728514075279236,0.0019628654588450443,"train",19380.0,"2021-11-23 15:12:46.367888","","","","","","",""
18.0,0.041123684495687485,0.001962412839305514,"train",19400.0,"2021-11-23 15:12:49.773125","","","","","","",""
18.0,0.08144202083349228,0.0019619575308663785,"train",19420.0,"2021-11-23 15:12:53.144147","","","","","","",""
18.0,0.05530114471912384,0.001961499534799737,"train",19440.0,"2021-11-23 15:12:56.473105","","","","","","",""
18.0,0.03640742972493172,0.001961038852385196,"train",19460.0,"2021-11-23 15:13:00.424090","","","","","","",""
18.0,0.03718544542789459,0.0019605754849098683,"train",19480.0,"2021-11-23 15:13:03.803934","","","","","","",""
18.0,0.06146959215402603,0.0019601094336683693,"train",19500.0,"2021-11-23 15:13:07.178195","","","","","","",""
18.0,0.03791242837905884,0.0019596406999628116,"train",19520.0,"2021-11-23 15:13:10.566086","","","","","","",""
18.0,0.03359758108854294,0.0019591692851028022,"train",19540.0,"2021-11-23 15:13:13.969171","","","","","","",""
18.0,0.03561575338244438,0.001958695190405441,"train",19560.0,"2021-11-23 15:13:18.287876","","","","","","",""
18.0,0.07148753106594086,0.001958218417195312,"train",19580.0,"2021-11-23 15:13:21.804320","","","","","","",""
18.0,0.02976049669086933,0.001957738966804486,"train",19600.0,"2021-11-23 15:13:25.347316","","","","","","",""
18.0,0.06925448030233383,0.001957256840572511,"train",19620.0,"2021-11-23 15:13:28.883278","","","","","","",""
18.0,0.07786343991756439,0.0019567720398464133,"train",19640.0,"2021-11-23 15:13:32.424856","","","","","","",""
18.0,0.055424660444259644,0.00195628456598069,"train",19660.0,"2021-11-23 15:13:36.664319","","","","","","",""
18.0,0.07276022434234619,0.001955794420337307,"train",19680.0,"2021-11-23 15:13:40.198376","","","","","","",""
18.0,0.056110870093107224,0.0019553016042856957,"train",19700.0,"2021-11-23 15:13:43.723812","","","","","","",""
18.0,0.035274356603622437,0.001954806119202748,"train",19720.0,"2021-11-23 15:13:47.240219","","","","","","",""
18.0,0.032780736684799194,0.001954307966472812,"train",19740.0,"2021-11-23 15:13:50.814281","","","","","","",""
18.0,0.04036334156990051,0.0019538071474876914,"train",19760.0,"2021-11-23 15:13:55.013100","","","","","","",""
18.0,0.06358814239501953,0.001953303663646636,"train",19780.0,"2021-11-23 15:13:58.608440","","","","","","",""
18.0,0.06905170530080795,0.0019527975163563436,"train",19800.0,"2021-11-23 15:14:02.173484","","","","","","",""
18.0,0.0383358895778656,0.0019522887070309524,"train",19820.0,"2021-11-23 15:14:05.812855","","","","","","",""
18.0,0.040344588458538055,0.0019517772370920379,"train",19840.0,"2021-11-23 15:14:09.427472","","","","","","",""
18.0,0.05040290951728821,0.0019512631079686104,"train",19860.0,"2021-11-23 15:14:13.662026","","","","","","",""
18.0,0.05251553654670715,0.001950746321097108,"train",19880.0,"2021-11-23 15:14:17.203619","","","","","","",""
18.0,0.05359615385532379,0.0019502268779213957,"train",19900.0,"2021-11-23 15:14:20.641538","","","","","","",""
18.0,0.050611432641744614,0.0019497047798927598,"train",19920.0,"2021-11-23 15:14:24.110296","","","","","","",""
18.0,0.0323481485247612,0.001949180028469903,"train",19940.0,"2021-11-23 15:14:27.643510","","","","","","",""
18.0,0.062198273837566376,0.0019486526251189435,"train",19960.0,"2021-11-23 15:14:31.867251","","","","","","",""
18.0,0.034168168902397156,0.0019481225713134064,"train",19980.0,"2021-11-23 15:14:35.502057","","","","","","",""
18.0,0.07456488907337189,0.0019475898685342235,"train",20000.0,"2021-11-23 15:14:38.944766","","","","","","",""
18.0,0.03891998156905174,0.0019470545182697272,"train",20020.0,"2021-11-23 15:14:42.324779","","","","","","",""
18.0,0.03841289505362511,0.001946516522015647,"train",20040.0,"2021-11-23 15:14:45.664040","","","","","","",""
18.0,0.04184682294726372,0.0019459758812751047,"train",20060.0,"2021-11-23 15:14:49.018449","","","","","","",""
18.0,0.03683261200785637,0.0019454325975586106,"train",20080.0,"2021-11-23 15:14:52.981878","","","","","","",""
18.0,0.04940922185778618,0.0019448866723840602,"train",20100.0,"2021-11-23 15:14:56.363570","","","","","","",""
18.0,0.04195327311754227,0.001944338107276728,"train",20120.0,"2021-11-23 15:14:59.758292","","","","","","",""
18.0,0.043778181076049805,0.0019437869037692644,"train",20140.0,"2021-11-23 15:15:03.147777","","","","","","",""
18.0,0.05159495770931244,0.0019432330634016912,"train",20160.0,"2021-11-23 15:15:06.641592","","","","","","",""
18.0,0.044737689197063446,0.0019426765877213986,"train",20180.0,"2021-11-23 15:15:10.759694","","","","","","",""
18.0,0.0547453910112381,0.0019421174782831383,"train",20200.0,"2021-11-23 15:15:14.049576","","","","","","",""
18.0,0.0465465672314167,0.0019415557366490208,"train",20220.0,"2021-11-23 15:15:17.558299","","","","","","",""
