"epoch","loss","lr","part","step","time","accuracy","auprc","auroc","challenge_metric","f_beta_measure","f_measure","g_beta_measure"
0.0,0.1406196504831314,6.0169020393251215e-05,"train",200.0,"2021-12-10 04:37:46.021659","","","","","","",""
0.0,0.12473427504301071,6.067600221774591e-05,"train",400.0,"2021-12-10 04:38:15.406538","","","","","","",""
0.0,0.12125928699970245,6.152070744496331e-05,"train",600.0,"2021-12-10 04:38:45.134299","","","","","","",""
0.0,0.10625474900007248,6.270273948487675e-05,"train",800.0,"2021-12-10 04:39:14.727741","","","","","","",""
0.0,0.14016366004943848,6.422154337215233e-05,"train",1000.0,"2021-12-10 04:39:44.225945","","","","","","",""
0.0,0.10043767839670181,6.607640602670573e-05,"train",1200.0,"2021-12-10 04:40:14.043082","","","","","","",""
0.0,0.09901203215122223,6.826645658849465e-05,"train",1400.0,"2021-12-10 04:40:44.060837","","","","","","",""
0.0,0.1134863793849945,7.079066682638756e-05,"train",1600.0,"2021-12-10 04:41:13.186160","","","","","","",""
0.0,0.11344678699970245,7.364785162092095e-05,"train",1800.0,"2021-12-10 04:41:43.115404","","","","","","",""
0.0,0.09460782259702682,7.683666952071214e-05,"train",2000.0,"2021-12-10 04:42:12.987005","","","","","","",""
0.0,"","","val",2148.0,"2021-12-10 04:43:03.788166",0.38530673779427116,0.28963540332024207,0.8317416074800679,0.3563713835239524,0.2392280366271799,0.23241518436668102,0.13993395219279178
1.0,0.10733399540185928,8.035562337227443e-05,"train",2200.0,"2021-12-10 04:43:14.135819","","","","","","",""
1.0,0.09033460915088654,8.420306102293012e-05,"train",2400.0,"2021-12-10 04:43:43.659760","","","","","","",""
1.0,0.11014272272586823,8.837717609649952e-05,"train",2600.0,"2021-12-10 04:44:12.856525","","","","","","",""
1.0,0.08153995126485825,9.287600884139613e-05,"train",2800.0,"2021-12-10 04:44:41.986471","","","","","","",""
1.0,0.09549371153116226,9.769744705073182e-05,"train",3000.0,"2021-12-10 04:45:11.969019","","","","","","",""
1.0,0.0765686109662056,0.00010283922705399992,"train",3200.0,"2021-12-10 04:45:42.016458","","","","","","",""
1.0,0.08786505460739136,0.00010829893477987303,"train",3400.0,"2021-12-10 04:46:11.607467","","","","","","",""
1.0,0.10266746580600739,0.00011407400688960936,"train",3600.0,"2021-12-10 04:46:41.099978","","","","","","",""
1.0,0.09037064015865326,0.00012016173198054511,"train",3800.0,"2021-12-10 04:47:10.454989","","","","","","",""
1.0,0.09853138029575348,0.00012655925185910003,"train",4000.0,"2021-12-10 04:47:39.976801","","","","","","",""
1.0,0.10545721650123596,0.0001332635628827027,"train",4200.0,"2021-12-10 04:48:09.569602","","","","","","",""
1.0,"","","val",4296.0,"2021-12-10 04:48:51.875124",0.407688739417836,0.3567263376285365,0.8734312424479713,0.4435960327117782,0.30737529823579063,0.2919758318829655,0.18221347140086158
2.0,0.09636588394641876,0.00014027151737000402,"train",4400.0,"2021-12-10 04:49:09.551456","","","","","","",""
2.0,0.08308161795139313,0.00014757982507871683,"train",4600.0,"2021-12-10 04:49:38.876906","","","","","","",""
2.0,0.08682799339294434,0.00015518505475038843,"train",4800.0,"2021-12-10 04:50:09.210574","","","","","","",""
2.0,0.08305544406175613,0.00016308363572138077,"train",5000.0,"2021-12-10 04:50:38.871241","","","","","","",""
2.0,0.09595484286546707,0.0001712718595992997,"train",5200.0,"2021-12-10 04:51:08.644165","","","","","","",""
2.0,0.09456001222133636,0.0001797458820040896,"train",5400.0,"2021-12-10 04:51:38.604710","","","","","","",""
2.0,0.10746150463819504,0.00018850172437297522,"train",5600.0,"2021-12-10 04:52:08.499750","","","","","","",""
2.0,0.1216621994972229,0.00019753527582839939,"train",5800.0,"2021-12-10 04:52:38.488298","","","","","","",""
2.0,0.14802506566047668,0.00020684229510808602,"train",6000.0,"2021-12-10 04:53:08.408553","","","","","","",""
2.0,0.09524791687726974,0.0002164184125563167,"train",6200.0,"2021-12-10 04:53:38.536477","","","","","","",""
2.0,0.0787089467048645,0.00022625913217548858,"train",6400.0,"2021-12-10 04:54:08.507002","","","","","","",""
2.0,"","","val",6444.0,"2021-12-10 04:54:43.159101",0.43523135799605706,0.4030168282329804,0.8975838206231496,0.4808799930766944,0.35891184356093986,0.3472882458129659,0.22047422826244306
3.0,0.10630378872156143,0.00023635983373699134,"train",6600.0,"2021-12-10 04:55:08.873884","","","","","","",""
3.0,0.08326494693756104,0.00024671577495040766,"train",6800.0,"2021-12-10 04:55:38.738908","","","","","","",""
3.0,0.07306791841983795,0.00025732209369002616,"train",7000.0,"2021-12-10 04:56:09.062083","","","","","","",""
3.0,0.08821991831064224,0.0002681738102776113,"train",7200.0,"2021-12-10 04:56:39.066380","","","","","","",""
3.0,0.10433639585971832,0.00027926582982037247,"train",7400.0,"2021-12-10 04:57:08.652672","","","","","","",""
3.0,0.11434656381607056,0.000290592944603017,"train",7600.0,"2021-12-10 04:57:37.910505","","","","","","",""
3.0,0.08839347213506699,0.00030214983653278167,"train",7800.0,"2021-12-10 04:58:07.888762","","","","","","",""
3.0,0.07832910120487213,0.0003139310796362806,"train",8000.0,"2021-12-10 04:58:37.821357","","","","","","",""
3.0,0.0826052725315094,0.0003259311426070078,"train",8200.0,"2021-12-10 04:59:07.166302","","","","","","",""
3.0,0.10910386592149734,0.00033814439140228956,"train",8400.0,"2021-12-10 04:59:36.435359","","","","","","",""
3.0,"","","val",8592.0,"2021-12-10 05:00:33.329545",0.4817348950481271,0.4402727456596947,0.9100521682790835,0.49705307973934537,0.3658720144341944,0.36272279867995477,0.2317938676930882
4.0,0.13755902647972107,0.0003505650918884753,"train",8600.0,"2021-12-10 05:00:37.157126","","","","","","",""
4.0,0.11275090277194977,0.00036318741253311927,"train",8800.0,"2021-12-10 05:01:07.060642","","","","","","",""
4.0,0.09536466747522354,0.00037600542714289007,"train",9000.0,"2021-12-10 05:01:37.287179","","","","","","",""
4.0,0.08524364978075027,0.00038901311764592654,"train",9200.0,"2021-12-10 05:02:06.273813","","","","","","",""
4.0,0.07048464566469193,0.0004022043769173287,"train",9400.0,"2021-12-10 05:02:36.376783","","","","","","",""
4.0,0.05393245443701744,0.0004155730116464588,"train",9600.0,"2021-12-10 05:03:06.001680","","","","","","",""
4.0,0.08981646597385406,0.0004291127452447081,"train",9800.0,"2021-12-10 05:03:35.861407","","","","","","",""
4.0,0.06483582407236099,0.0004428172207923617,"train",10000.0,"2021-12-10 05:04:04.872192","","","","","","",""
4.0,0.09493929892778397,0.0004566800040231799,"train",10200.0,"2021-12-10 05:04:34.289966","","","","","","",""
4.0,0.08896630257368088,0.00047069458634529265,"train",10400.0,"2021-12-10 05:05:03.708233","","","","","","",""
4.0,0.08829353749752045,0.0004848543878969904,"train",10600.0,"2021-12-10 05:05:33.138970","","","","","","",""
4.0,"","","val",10740.0,"2021-12-10 05:06:22.493314",0.4904905485329932,0.4750700307669566,0.9232063984467653,0.5318433786712882,0.3947782328340606,0.39574707875003967,0.2510284419856989
5.0,0.07948096096515656,0.0004991527606359773,"train",10800.0,"2021-12-10 05:06:34.148203","","","","","","",""
5.0,0.1055913195014,0.0005135829914606333,"train",11000.0,"2021-12-10 05:07:03.711451","","","","","","",""
5.0,0.09238824993371964,0.0005281383053618229,"train",11200.0,"2021-12-10 05:07:33.828821","","","","","","",""
5.0,0.06931252777576447,0.00054281186860377,"train",11400.0,"2021-12-10 05:08:03.551483","","","","","","",""
5.0,0.0989266037940979,0.0005575967919325036,"train",11600.0,"2021-12-10 05:08:32.645941","","","","","","",""
5.0,0.07211130112409592,0.0005724861338103702,"train",11800.0,"2021-12-10 05:09:02.814102","","","","","","",""
5.0,0.13591063022613525,0.0005874729036750938,"train",12000.0,"2021-12-10 05:09:32.788296","","","","","","",""
5.0,0.07422464340925217,0.0006025500652218514,"train",12200.0,"2021-12-10 05:10:02.308810","","","","","","",""
5.0,0.08518201857805252,0.0006177105397068278,"train",12400.0,"2021-12-10 05:10:32.423196","","","","","","",""
5.0,0.11006639152765274,0.000632947209270691,"train",12600.0,"2021-12-10 05:11:01.925058","","","","","","",""
5.0,0.07142901420593262,0.0006482529202804367,"train",12800.0,"2021-12-10 05:11:31.651087","","","","","","",""
5.0,"","","val",12888.0,"2021-12-10 05:12:12.993599",0.5015075959642816,0.49343817432676274,0.928207026647092,0.5440786303265406,0.41013332851704914,0.41406442409336797,0.2624210797478519
6.0,0.04968501999974251,0.0006636204866880267,"train",13000.0,"2021-12-10 05:12:32.435305","","","","","","",""
6.0,0.07761926203966141,0.0006790426934042456,"train",13200.0,"2021-12-10 05:13:01.634803","","","","","","",""
6.0,0.09816180914640427,0.0006945122996861934,"train",13400.0,"2021-12-10 05:13:31.605466","","","","","","",""
6.0,0.07021167129278183,0.0007100220425368221,"train",13600.0,"2021-12-10 05:14:02.083213","","","","","","",""
6.0,0.13304555416107178,0.0007255646401149214,"train",13800.0,"2021-12-10 05:14:31.807003","","","","","","",""
6.0,0.06106075271964073,0.0007411327951539502,"train",14000.0,"2021-12-10 05:15:01.581759","","","","","","",""
6.0,0.08535689115524292,0.0007567191983881109,"train",14200.0,"2021-12-10 05:15:31.720918","","","","","","",""
6.0,0.0753183588385582,0.0007723165319840599,"train",14400.0,"2021-12-10 05:16:01.334072","","","","","","",""
6.0,0.11306771636009216,0.0007879174729766352,"train",14600.0,"2021-12-10 05:16:31.365096","","","","","","",""
6.0,0.07663995772600174,0.0008035146967069996,"train",14800.0,"2021-12-10 05:17:01.033159","","","","","","",""
6.0,0.07470498979091644,0.0008191008802615731,"train",15000.0,"2021-12-10 05:17:30.449139","","","","","","",""
6.0,"","","val",15036.0,"2021-12-10 05:18:04.297692",0.5174533225095674,0.5104071901862891,0.9308247581903821,0.5475401092524887,0.4271546338513676,0.4348657605699009,0.27569264749107103
7.0,0.07122364640235901,0.0008346687059101515,"train",15200.0,"2021-12-10 05:18:31.588875","","","","","","",""
7.0,0.06409871578216553,0.0008502108645415871,"train",15400.0,"2021-12-10 05:19:01.119641","","","","","","",""
7.0,0.06979858875274658,0.0008657200590954241,"train",15600.0,"2021-12-10 05:19:31.450849","","","","","","",""
7.0,0.05327727273106575,0.0008811890079878787,"train",15800.0,"2021-12-10 05:20:01.882677","","","","","","",""
7.0,0.07249884307384491,0.0008966104485305473,"train",16000.0,"2021-12-10 05:20:31.322609","","","","","","",""
7.0,0.10902856290340424,0.0009119771403402501,"train",16200.0,"2021-12-10 05:21:00.908998","","","","","","",""
7.0,0.06688753515481949,0.0009272818687383955,"train",16400.0,"2021-12-10 05:21:30.047787","","","","","","",""
7.0,0.08840247988700867,0.000942517448138283,"train",16600.0,"2021-12-10 05:21:59.968211","","","","","","",""
7.0,0.08575839549303055,0.0009576767254187414,"train",16800.0,"2021-12-10 05:22:30.125921","","","","","","",""
7.0,0.08072669059038162,0.0009727525832825277,"train",17000.0,"2021-12-10 05:22:59.949189","","","","","","",""
7.0,"","","val",17184.0,"2021-12-10 05:23:55.962505",0.5340368781166648,0.5274701799503636,0.9357768501134747,0.5668881914519573,0.44672761164131064,0.46111595742849654,0.2861383437341169
8.0,0.06035314500331879,0.0009877379435979069,"train",17200.0,"2021-12-10 05:24:00.854524","","","","","","",""
8.0,0.04174797609448433,0.001002625770721841,"train",17400.0,"2021-12-10 05:24:30.769037","","","","","","",""
8.0,0.08908119797706604,0.001017409074803233,"train",17600.0,"2021-12-10 05:25:00.652794","","","","","","",""
8.0,0.09174473583698273,0.0010320809150646674,"train",17800.0,"2021-12-10 05:25:29.814853","","","","","","",""
8.0,0.09286036342382431,0.0010466344030611147,"train",18000.0,"2021-12-10 05:25:59.724325","","","","","","",""
8.0,0.07508493214845657,0.0010610627059140627,"train",18200.0,"2021-12-10 05:26:29.144439","","","","","","",""
8.0,0.060143325477838516,0.001075359049519561,"train",18400.0,"2021-12-10 05:26:58.475241","","","","","","",""
8.0,0.07284702360630035,0.0010895167217286708,"train",18600.0,"2021-12-10 05:27:28.108010","","","","","","",""
8.0,0.05153849720954895,0.001103529075498823,"train",18800.0,"2021-12-10 05:27:57.617647","","","","","","",""
8.0,0.059523019939661026,0.0011173895320146171,"train",19000.0,"2021-12-10 05:28:27.635866","","","","","","",""
8.0,0.06520481407642365,0.0011310915837765777,"train",19200.0,"2021-12-10 05:28:57.655460","","","","","","",""
8.0,"","","val",19332.0,"2021-12-10 05:29:45.586053",0.5508523715644207,0.5401522450460334,0.9372017764061276,0.5755951145504462,0.4602105599167156,0.47171770343812713,0.30208200229391413
9.0,0.07187096774578094,0.0011446287976564357,"train",19400.0,"2021-12-10 05:29:58.529187","","","","","","",""
9.0,0.05672061815857887,0.0011579948179174858,"train",19600.0,"2021-12-10 05:30:28.321110","","","","","","",""
9.0,0.07600647211074829,0.0011711833691986158,"train",19800.0,"2021-12-10 05:30:58.548316","","","","","","",""
9.0,0.06413944810628891,0.001184188259460592,"train",20000.0,"2021-12-10 05:31:28.291691","","","","","","",""
9.0,0.059383783489465714,0.0011970033828932302,"train",20200.0,"2021-12-10 05:31:58.091938","","","","","","",""
9.0,0.07590103149414062,0.001209622722782081,"train",20400.0,"2021-12-10 05:32:28.066100","","","","","","",""
9.0,0.0731937363743782,0.0012220403543332801,"train",20600.0,"2021-12-10 05:32:57.490223","","","","","","",""
9.0,0.05937116965651512,0.0012342504474552511,"train",20800.0,"2021-12-10 05:33:27.045328","","","","","","",""
9.0,0.05489332228899002,0.0012462472694959345,"train",21000.0,"2021-12-10 05:33:56.538850","","","","","","",""
9.0,0.04726691544055939,0.0012580251879342776,"train",21200.0,"2021-12-10 05:34:26.307565","","","","","","",""
9.0,0.07989346235990524,0.0012695786730247075,"train",21400.0,"2021-12-10 05:34:56.369203","","","","","","",""
9.0,"","","val",21480.0,"2021-12-10 05:35:36.817805",0.5565928331207236,0.5534091369954297,0.9424189202053621,0.5905495197786284,0.47507608854093974,0.48360952435060306,0.31338093208837753
10.0,0.07514820247888565,0.0012809023003933536,"train",21600.0,"2021-12-10 05:35:56.928397","","","","","","",""
10.0,0.10175521671772003,0.0012919907535847977,"train",21800.0,"2021-12-10 05:36:26.830433","","","","","","",""
10.0,0.05733540654182434,0.0013028388265581526,"train",22000.0,"2021-12-10 05:36:57.219043","","","","","","",""
10.0,0.07443255186080933,0.0013134414261313082,"train",22200.0,"2021-12-10 05:37:27.125595","","","","","","",""
10.0,0.10943025350570679,0.0013237935743721824,"train",22400.0,"2021-12-10 05:37:57.062831","","","","","","",""
10.0,0.07433538883924484,0.001333890410935868,"train",22600.0,"2021-12-10 05:38:26.460679","","","","","","",""
10.0,0.0559220053255558,0.0013437271953465686,"train",22800.0,"2021-12-10 05:38:56.167140","","","","","","",""
10.0,0.0842386782169342,0.0013532993092232586,"train",23000.0,"2021-12-10 05:39:25.554517","","","","","","",""
10.0,0.10037800669670105,0.0013626022584480163,"train",23200.0,"2021-12-10 05:39:55.007953","","","","","","",""
10.0,0.07135243713855743,0.0013716316752760184,"train",23400.0,"2021-12-10 05:40:24.490111","","","","","","",""
10.0,0.117082878947258,0.001380383320386201,"train",23600.0,"2021-12-10 05:40:54.624100","","","","","","",""
10.0,"","","val",23628.0,"2021-12-10 05:41:27.469402",0.5557230662182535,0.5585082045285528,0.9419818927469319,0.603657180469919,0.49042361855828004,0.49880806077446127,0.32053224953348863
11.0,0.06699319183826447,0.001388853084871625,"train",23800.0,"2021-12-10 05:41:56.406083","","","","","","",""
11.0,0.038807112723588943,0.0013970369921686117,"train",24000.0,"2021-12-10 05:42:26.372049","","","","","","",""
11.0,0.0690590888261795,0.0014049311999237463,"train",24200.0,"2021-12-10 05:42:56.461498","","","","","","",""
11.0,0.05153292044997215,0.0014125320017978635,"train",24400.0,"2021-12-10 05:43:26.379110","","","","","","",""
11.0,0.10299792140722275,0.001419835829206181,"train",24600.0,"2021-12-10 05:43:56.719832","","","","","","",""
11.0,0.06660718470811844,0.0014268392529937525,"train",24800.0,"2021-12-10 05:44:26.640291","","","","","","",""
11.0,0.07419995218515396,0.0014335389850454589,"train",25000.0,"2021-12-10 05:44:56.555472","","","","","","",""
11.0,0.07930703461170197,0.0014399318798297834,"train",25200.0,"2021-12-10 05:45:26.494207","","","","","","",""
11.0,0.04421807453036308,0.0014460149358756418,"train",25400.0,"2021-12-10 05:45:55.710469","","","","","","",""
11.0,0.06443824619054794,0.0014517852971815753,"train",25600.0,"2021-12-10 05:46:25.168338","","","","","","",""
11.0,"","","val",25776.0,"2021-12-10 05:47:19.454588",0.5564768642003943,0.573094773442705,0.9452621775759558,0.6177830146760945,0.5118426447973642,0.5165416745383357,0.3339795617175692
12.0,0.060223352164030075,0.0014572402545566473,"train",25800.0,"2021-12-10 05:47:25.886461","","","","","","",""
12.0,0.07343504577875137,0.0014623772468924118,"train",26000.0,"2021-12-10 05:47:55.275123","","","","","","",""
12.0,0.10704965889453888,0.0014671938623653554,"train",26200.0,"2021-12-10 05:48:24.763415","","","","","","",""
12.0,0.11268934607505798,0.0014716878395692524,"train",26400.0,"2021-12-10 05:48:54.581333","","","","","","",""
12.0,0.07522954046726227,0.0014758570685768962,"train",26600.0,"2021-12-10 05:49:24.409553","","","","","","",""
12.0,0.061368945986032486,0.0014796995919307133,"train",26800.0,"2021-12-10 05:49:54.029241","","","","","","",""
12.0,0.07675136625766754,0.001483213605561792,"train",27000.0,"2021-12-10 05:50:23.783864","","","","","","",""
12.0,0.05155046284198761,0.0014863974596368936,"train",27200.0,"2021-12-10 05:50:53.336284","","","","","","",""
12.0,0.037874095141887665,0.0014892496593330521,"train",27400.0,"2021-12-10 05:51:22.667096","","","","","","",""
12.0,0.05863278731703758,0.0014917688655393944,"train",27600.0,"2021-12-10 05:51:52.340157","","","","","","",""
12.0,0.07478293031454086,0.0014939538954858549,"train",27800.0,"2021-12-10 05:52:21.405401","","","","","","",""
12.0,"","","val",27924.0,"2021-12-10 05:53:07.574905",0.563319030499826,0.5785419847786482,0.9478993678920398,0.627849995161696,0.493367023537347,0.49766383557366767,0.3248765305369442
13.0,0.06610377877950668,0.0014958037232984868,"train",28000.0,"2021-12-10 05:53:21.706767","","","","","","",""
13.0,0.05575060099363327,0.001497317480481111,"train",28200.0,"2021-12-10 05:53:51.382513","","","","","","",""
13.0,0.05683602765202522,0.0014984944563230774,"train",28400.0,"2021-12-10 05:54:21.546766","","","","","","",""
13.0,0.05370393395423889,0.0014993340982329421,"train",28600.0,"2021-12-10 05:54:51.678975","","","","","","",""
13.0,0.05308078974485397,0.0014998360119979112,"train",28800.0,"2021-12-10 05:55:21.001113","","","","","","",""
13.0,0.06336592882871628,0.001499999992724177,"train",29000.0,"2021-12-10 05:55:51.046918","","","","","","",""
13.0,0.068788081407547,0.0014999666858700911,"train",29200.0,"2021-12-10 05:56:20.682012","","","","","","",""
13.0,0.08560694754123688,0.0014998687083715083,"train",29400.0,"2021-12-10 05:56:50.046797","","","","","","",""
13.0,0.07956588268280029,0.0014997060686771947,"train",29600.0,"2021-12-10 05:57:19.875349","","","","","","",""
13.0,0.0624888613820076,0.0014994787808118484,"train",29800.0,"2021-12-10 05:57:49.720735","","","","","","",""
13.0,0.06199365481734276,0.001499186864374888,"train",30000.0,"2021-12-10 05:58:19.333066","","","","","","",""
13.0,"","","val",30072.0,"2021-12-10 05:58:58.092600",0.573524295488809,0.5812932060592642,0.9480635807708349,0.6368131880361682,0.5249403175993455,0.5312859071136186,0.34614973674610966
14.0,0.05262351408600807,0.0014988303445387652,"train",30200.0,"2021-12-10 05:59:19.897886","","","","","","",""
14.0,0.04559951648116112,0.0014984092520467914,"train",30400.0,"2021-12-10 05:59:49.635594","","","","","","",""
14.0,0.07076149433851242,0.001497923623210489,"train",30600.0,"2021-12-10 06:00:19.448568","","","","","","",""
14.0,0.04713664948940277,0.0014973734999064584,"train",30800.0,"2021-12-10 06:00:49.308969","","","","","","",""
14.0,0.090118907392025,0.0014967589295727683,"train",31000.0,"2021-12-10 06:01:17.647245","","","","","","",""
14.0,0.09458622336387634,0.0014960799652048637,"train",31200.0,"2021-12-10 06:01:47.685262","","","","","","",""
14.0,0.06444556266069412,0.0014953366653509973,"train",31400.0,"2021-12-10 06:02:17.176260","","","","","","",""
14.0,0.060604240745306015,0.0014945290941071802,"train",31600.0,"2021-12-10 06:02:46.671774","","","","","","",""
14.0,0.08043953031301498,0.0014936573211116546,"train",31800.0,"2021-12-10 06:03:16.719498","","","","","","",""
14.0,0.1001141220331192,0.0014927214215388887,"train",32000.0,"2021-12-10 06:03:46.176886","","","","","","",""
14.0,0.060361575335264206,0.001491721476093095,"train",32200.0,"2021-12-10 06:04:15.803121","","","","","","",""
14.0,"","","val",32220.0,"2021-12-10 06:04:47.414452",0.5791487881247825,0.5933134302500493,0.9518306611774887,0.6330989334707516,0.5431572047333421,0.5503473458443618,0.355104377466727
15.0,0.08729421347379684,0.0014906575710012706,"train",32400.0,"2021-12-10 06:05:17.168301","","","","","","",""
15.0,0.07182946801185608,0.0014895297980057616,"train",32600.0,"2021-12-10 06:05:46.972988","","","","","","",""
15.0,0.11390981078147888,0.0014883382543563514,"train",32800.0,"2021-12-10 06:06:16.972858","","","","","","",""
15.0,0.06974874436855316,0.0014870830428018766,"train",33000.0,"2021-12-10 06:06:45.906889","","","","","","",""
15.0,0.09060604870319366,0.0014857642715813645,"train",33200.0,"2021-12-10 06:07:15.548901","","","","","","",""
15.0,0.09718431532382965,0.0014843820544147017,"train",33400.0,"2021-12-10 06:07:45.192629","","","","","","",""
15.0,0.0410403348505497,0.0014829365104928251,"train",33600.0,"2021-12-10 06:08:14.096965","","","","","","",""
15.0,0.11527429521083832,0.0014814277644674468,"train",33800.0,"2021-12-10 06:08:43.854068","","","","","","",""
15.0,0.06805753707885742,0.001479855946440303,"train",34000.0,"2021-12-10 06:09:14.107047","","","","","","",""
15.0,0.07901149988174438,0.0014782211919519364,"train",34200.0,"2021-12-10 06:09:44.047785","","","","","","",""
15.0,"","","val",34368.0,"2021-12-10 06:10:37.000788",0.5760756117360547,0.5903777305202901,0.9511896778530885,0.6288267513837903,0.5276525134434411,0.5379876606663131,0.3467422230435996
16.0,0.04982278123497963,0.0014765236419700077,"train",34400.0,"2021-12-10 06:10:44.323692","","","","","","",""
16.0,0.0720306858420372,0.0014747634428771397,"train",34600.0,"2021-12-10 06:11:14.020147","","","","","","",""
16.0,0.0727168545126915,0.001472940746458295,"train",34800.0,"2021-12-10 06:11:44.123526","","","","","","",""
16.0,0.05026758462190628,0.0014710557098876857,"train",35000.0,"2021-12-10 06:12:13.440627","","","","","","",""
16.0,0.04857156053185463,0.0014691084957152232,"train",35200.0,"2021-12-10 06:12:43.526589","","","","","","",""
16.0,0.04741058126091957,0.0014670992718524975,"train",35400.0,"2021-12-10 06:13:13.094243","","","","","","",""
16.0,0.06622867286205292,0.0014650282115583012,"train",35600.0,"2021-12-10 06:13:43.499043","","","","","","",""
16.0,0.07821939140558243,0.0014628954934236863,"train",35800.0,"2021-12-10 06:14:13.338577","","","","","","",""
16.0,0.07362816482782364,0.0014607013013565658,"train",36000.0,"2021-12-10 06:14:43.174285","","","","","","",""
16.0,0.047558411955833435,0.0014584458245658547,"train",36200.0,"2021-12-10 06:15:13.252834","","","","","","",""
16.0,0.05741465464234352,0.0014561292575451532,"train",36400.0,"2021-12-10 06:15:42.922645","","","","","","",""
16.0,"","","val",36516.0,"2021-12-10 06:16:28.446581",0.5780470833816537,0.6002010467738457,0.9507202595318768,0.651144101404966,0.552886282738529,0.5599003899096584,0.3632953360901045
17.0,0.07555647939443588,0.0014537518000559777,"train",36600.0,"2021-12-10 06:16:43.746145","","","","","","",""
17.0,0.052285902202129364,0.0014513136571105308,"train",36800.0,"2021-12-10 06:17:13.423197","","","","","","",""
17.0,0.1047595888376236,0.0014488150389540275,"train",37000.0,"2021-12-10 06:17:43.726617","","","","","","",""
17.0,0.03772757947444916,0.0014462561610465619,"train",37200.0,"2021-12-10 06:18:13.787871","","","","","","",""
17.0,0.07555313408374786,0.0014436372440445287,"train",37400.0,"2021-12-10 06:18:44.125009","","","","","","",""
17.0,0.05642752721905708,0.001440958513781597,"train",37600.0,"2021-12-10 06:19:13.640757","","","","","","",""
17.0,0.09792754054069519,0.0014382202012492343,"train",37800.0,"2021-12-10 06:19:43.449416","","","","","","",""
17.0,0.06352142989635468,0.0014354225425767886,"train",38000.0,"2021-12-10 06:20:13.944450","","","","","","",""
17.0,0.04013494402170181,0.001432565779011127,"train",38200.0,"2021-12-10 06:20:44.067699","","","","","","",""
17.0,0.05473863333463669,0.0014296501568958318,"train",38400.0,"2021-12-10 06:21:13.905973","","","","","","",""
17.0,0.06143631786108017,0.001426675927649958,"train",38600.0,"2021-12-10 06:21:43.584775","","","","","","",""
17.0,"","","val",38664.0,"2021-12-10 06:22:21.326540",0.5805404151687348,0.5988929511480738,0.9520809870254265,0.640780353340773,0.5388647697427529,0.5475759266827172,0.3526837585656598
18.0,0.06930337101221085,0.0014236433477463535,"train",38800.0,"2021-12-10 06:22:44.107384","","","","","","",""
18.0,0.12587139010429382,0.0014205526786895421,"train",39000.0,"2021-12-10 06:23:13.925893","","","","","","",""
18.0,0.0540119931101799,0.0014174041869931752,"train",39200.0,"2021-12-10 06:23:44.051420","","","","","","",""
18.0,0.041462045162916183,0.0014141981441570474,"train",39400.0,"2021-12-10 06:24:14.241422","","","","","","",""
18.0,0.08295411616563797,0.001410934826643687,"train",39600.0,"2021-12-10 06:24:44.441300","","","","","","",""
18.0,0.0665259137749672,0.001407614515854515,"train",39800.0,"2021-12-10 06:25:14.827230","","","","","","",""
18.0,0.05795932188630104,0.0014042374981055792,"train",40000.0,"2021-12-10 06:25:45.193353","","","","","","",""
18.0,0.061990704387426376,0.001400804064602865,"train",40200.0,"2021-12-10 06:26:15.934223","","","","","","",""
18.0,0.07485146820545197,0.001397314511417185,"train",40400.0,"2021-12-10 06:26:45.544779","","","","","","",""
18.0,0.07341154664754868,0.0013937691394586465,"train",40600.0,"2021-12-10 06:27:15.249306","","","","","","",""
18.0,0.04577631503343582,0.0013901682544507049,"train",40800.0,"2021-12-10 06:27:45.043567","","","","","","",""
18.0,"","","val",40812.0,"2021-12-10 06:28:15.495216",0.5914414936796939,0.6085917850187352,0.9512702355523346,0.6473716033562992,0.5549475213041158,0.5676081214722873,0.36612534787587836
19.0,0.0828232541680336,0.0013865121669038008,"train",41000.0,"2021-12-10 06:28:46.819537","","","","","","",""
19.0,0.04397543892264366,0.0013828011920885828,"train",41200.0,"2021-12-10 06:29:17.251594","","","","","","",""
19.0,0.07510354369878769,0.0013790356500087227,"train",41400.0,"2021-12-10 06:29:47.153823","","","","","","",""
19.0,0.042113859206438065,0.00137521586537332,"train",41600.0,"2021-12-10 06:30:17.126017","","","","","","",""
19.0,0.08570238947868347,0.0013713421675689026,"train",41800.0,"2021-12-10 06:30:47.705742","","","","","","",""
19.0,0.05359597131609917,0.0013674148906310216,"train",42000.0,"2021-12-10 06:31:17.689737","","","","","","",""
19.0,0.037775736302137375,0.001363434373215449,"train",42200.0,"2021-12-10 06:31:47.953539","","","","","","",""
19.0,0.07693322747945786,0.001359400958568973,"train",42400.0,"2021-12-10 06:32:18.268155","","","","","","",""
19.0,0.08176548033952713,0.0013553149944998007,"train",42600.0,"2021-12-10 06:32:47.729419","","","","","","",""
19.0,0.07233092188835144,0.0013511768333475647,"train",42800.0,"2021-12-10 06:33:18.119138","","","","","","",""
19.0,"","","val",42960.0,"2021-12-10 06:34:10.994960",0.5917314159805173,0.6041226624876835,0.9528403387509777,0.6452437151914051,0.5530124294752067,0.5613565365398032,0.36210360729305263
20.0,0.04838702455163002,0.0013469868319529413,"train",43000.0,"2021-12-10 06:34:20.107012","","","","","","",""
20.0,0.06887925416231155,0.001342745351626879,"train",43200.0,"2021-12-10 06:34:49.812011","","","","","","",""
20.0,0.04187065362930298,0.001338452758119442,"train",43400.0,"2021-12-10 06:35:20.628777","","","","","","",""
20.0,0.03517458587884903,0.001334109421588271,"train",43600.0,"2021-12-10 06:35:51.192559","","","","","","",""
20.0,0.03414853289723396,0.0013297157165666643,"train",43800.0,"2021-12-10 06:36:20.688824","","","","","","",""
20.0,0.07611949741840363,0.0013252720219312805,"train",44000.0,"2021-12-10 06:36:51.079312","","","","","","",""
20.0,0.06886158883571625,0.001320778720869468,"train",44200.0,"2021-12-10 06:37:21.964939","","","","","","",""
20.0,0.05746835097670555,0.001316236200846221,"train",44400.0,"2021-12-10 06:37:52.182917","","","","","","",""
20.0,0.04638618975877762,0.0013116448535707697,"train",44600.0,"2021-12-10 06:38:22.674972","","","","","","",""
20.0,0.0943552553653717,0.0013070050749628003,"train",44800.0,"2021-12-10 06:38:52.965930","","","","","","",""
20.0,0.10879729688167572,0.0013023172651183154,"train",45000.0,"2021-12-10 06:39:23.030073","","","","","","",""
20.0,"","","val",45108.0,"2021-12-10 06:40:07.050720",0.592485213962658,0.6109841281396934,0.952406254945869,0.6451989702374409,0.5476061144906652,0.5615245286472182,0.36121826692735703
21.0,0.037954170256853104,0.001297581828275133,"train",45200.0,"2021-12-10 06:40:23.644434","","","","","","",""
21.0,0.04606248438358307,0.0012927991727780285,"train",45400.0,"2021-12-10 06:40:53.755738","","","","","","",""
21.0,0.0646052360534668,0.0012879697110435215,"train",45600.0,"2021-12-10 06:41:23.970337","","","","","","",""
21.0,0.043231964111328125,0.0012830938595243134,"train",45800.0,"2021-12-10 06:41:54.199109","","","","","","",""
21.0,0.04416999593377113,0.0012781720386733759,"train",46000.0,"2021-12-10 06:42:23.996395","","","","","","",""
21.0,0.06224839761853218,0.001273204672907694,"train",46200.0,"2021-12-10 06:42:54.060398","","","","","","",""
21.0,0.06326693296432495,0.001268192190571668,"train",46400.0,"2021-12-10 06:43:24.186257","","","","","","",""
21.0,0.05884077772498131,0.001263135023900178,"train",46600.0,"2021-12-10 06:43:53.666893","","","","","","",""
21.0,0.11610708385705948,0.0012580336089813087,"train",46800.0,"2021-12-10 06:44:24.184009","","","","","","",""
21.0,0.04572442173957825,0.0012528883857187477,"train",47000.0,"2021-12-10 06:44:54.353126","","","","","","",""
21.0,0.03494161367416382,0.00124769979779385,"train",47200.0,"2021-12-10 06:45:24.097446","","","","","","",""
21.0,"","","val",47256.0,"2021-12-10 06:46:01.265510",0.5910356024585411,0.608681610183934,0.9526169902245768,0.6493595411289976,0.5561851197736937,0.5680056040733633,0.367153625041682
22.0,0.057595785707235336,0.0012424682926273792,"train",47400.0,"2021-12-10 06:46:25.155306","","","","","","",""
22.0,0.06792404502630234,0.0012371943213409264,"train",47600.0,"2021-12-10 06:46:54.478794","","","","","","",""
22.0,0.08046624809503555,0.0012318783387180073,"train",47800.0,"2021-12-10 06:47:24.578574","","","","","","",""
22.0,0.05143798515200615,0.0012265208031648474,"train",48000.0,"2021-12-10 06:47:54.145016","","","","","","",""
22.0,0.07534783333539963,0.0012211221766708518,"train",48200.0,"2021-12-10 06:48:24.478528","","","","","","",""
22.0,0.04317867383360863,0.0012156829247687675,"train",48400.0,"2021-12-10 06:48:55.122172","","","","","","",""
22.0,0.07946362346410751,0.0012102035164945398,"train",48600.0,"2021-12-10 06:49:25.488168","","","","","","",""
22.0,0.06151778995990753,0.0012046844243468653,"train",48800.0,"2021-12-10 06:49:55.055781","","","","","","",""
22.0,0.07780631631612778,0.0011991261242464495,"train",49000.0,"2021-12-10 06:50:24.678672","","","","","","",""
22.0,0.07251206785440445,0.0011935290954949661,"train",49200.0,"2021-12-10 06:50:54.282803","","","","","","",""
22.0,0.0660683661699295,0.0011878938207337262,"train",49400.0,"2021-12-10 06:51:24.732577","","","","","","",""
22.0,"","","val",49404.0,"2021-12-10 06:51:53.564067",0.5832077003363099,0.6160478110938608,0.9549936106168626,0.6758651475182839,0.5898041840354239,0.5970711877563768,0.3832454309579576
23.0,0.06385810673236847,0.0011822207859020592,"train",49600.0,"2021-12-10 06:52:26.447168","","","","","","",""
23.0,0.057065095752477646,0.00117651048019541,"train",49800.0,"2021-12-10 06:52:56.713169","","","","","","",""
23.0,0.037288423627614975,0.0011707633960231542,"train",50000.0,"2021-12-10 06:53:26.589742","","","","","","",""
23.0,0.06703637540340424,0.001164980028966137,"train",50200.0,"2021-12-10 06:53:56.481983","","","","","","",""
23.0,0.05214493349194527,0.0011591608777339385,"train",50400.0,"2021-12-10 06:54:26.417113","","","","","","",""
23.0,0.05418337881565094,0.0011533064441218695,"train",50600.0,"2021-12-10 06:54:56.236604","","","","","","",""
23.0,0.07956153899431229,0.0011474172329677,"train",50800.0,"2021-12-10 06:55:26.304383","","","","","","",""
23.0,0.10278179496526718,0.0011414937521081266,"train",51000.0,"2021-12-10 06:55:56.032779","","","","","","",""
23.0,0.1053047701716423,0.0011355365123349814,"train",51200.0,"2021-12-10 06:56:25.805704","","","","","","",""
23.0,0.055572427809238434,0.0011295460273511846,"train",51400.0,"2021-12-10 06:56:55.562273","","","","","","",""
23.0,"","","val",51552.0,"2021-12-10 06:57:46.122437",0.588020410529978,0.6156360264563326,0.9527986724778325,0.6676432708092943,0.5784304145111128,0.5906773733819614,0.3793780524136296
24.0,0.08251984417438507,0.001123522813726447,"train",51600.0,"2021-12-10 06:57:56.142519","","","","","","",""
24.0,0.07480510324239731,0.0011174673908527274,"train",51800.0,"2021-12-10 06:58:26.591470","","","","","","",""
24.0,0.032469362020492554,0.0011113802808994412,"train",52000.0,"2021-12-10 06:58:56.565135","","","","","","",""
24.0,0.04771804064512253,0.0011052620087684353,"train",52200.0,"2021-12-10 06:59:26.698788","","","","","","",""
24.0,0.043088868260383606,0.0010991131020487242,"train",52400.0,"2021-12-10 06:59:56.890589","","","","","","",""
24.0,0.08031632751226425,0.0010929340909709953,"train",52600.0,"2021-12-10 07:00:27.242268","","","","","","",""
24.0,0.058627065271139145,0.0010867255083618853,"train",52800.0,"2021-12-10 07:00:57.517029","","","","","","",""
24.0,0.08030002564191818,0.0010804878895980356,"train",53000.0,"2021-12-10 07:01:27.450836","","","","","","",""
24.0,0.11659269034862518,0.0010742217725599236,"train",53200.0,"2021-12-10 07:01:57.793365","","","","","","",""
24.0,0.03190196305513382,0.0010679276975854811,"train",53400.0,"2021-12-10 07:02:28.217368","","","","","","",""
24.0,0.04717949777841568,0.0010616062074235014,"train",53600.0,"2021-12-10 07:02:58.318125","","","","","","",""
24.0,"","","val",53700.0,"2021-12-10 07:03:41.470098",0.5963701727936913,0.6183176262394144,0.952528307992244,0.656387023716037,0.5626860640989081,0.5780206877154277,0.370372858803767
25.0,0.05749540776014328,0.0010552578471868354,"train",53800.0,"2021-12-10 07:03:58.995409","","","","","","",""
25.0,0.025768809020519257,0.0010488831643053862,"train",54000.0,"2021-12-10 07:04:28.623165","","","","","","",""
25.0,0.064246766269207,0.0010424827084789035,"train",54200.0,"2021-12-10 07:04:58.490040","","","","","","",""
25.0,0.06682901084423065,0.0010360570316295822,"train",54400.0,"2021-12-10 07:05:28.666389","","","","","","",""
25.0,0.05648825317621231,0.0010296066878544682,"train",54600.0,"2021-12-10 07:05:59.158879","","","","","","",""
25.0,0.03500792011618614,0.0010231322333776791,"train",54800.0,"2021-12-10 07:06:29.339673","","","","","","",""
25.0,0.05255232751369476,0.0010166342265024388,"train",55000.0,"2021-12-10 07:06:59.221139","","","","","","",""
25.0,0.04969627410173416,0.0010101132275629348,"train",55200.0,"2021-12-10 07:07:29.211356","","","","","","",""
25.0,0.0731382966041565,0.0010035697988759994,"train",55400.0,"2021-12-10 07:07:58.608969","","","","","","",""
25.0,0.029081638902425766,0.0009970045046926203,"train",55600.0,"2021-12-10 07:08:28.906387","","","","","","",""
25.0,0.06454823166131973,0.0009904179111492842,"train",55800.0,"2021-12-10 07:08:59.291500","","","","","","",""
25.0,"","","val",55848.0,"2021-12-10 07:09:34.674287",0.5955004058912211,0.6195196153126437,0.9532676637168289,0.6561097780472154,0.5707877411019109,0.5851697940076428,0.37553516201392273
26.0,0.03083430975675583,0.0009838105862191573,"train",56000.0,"2021-12-10 07:10:00.531893","","","","","","",""
26.0,0.05301794782280922,0.000977183099663109,"train",56200.0,"2021-12-10 07:10:30.446925","","","","","","",""
26.0,0.04439500719308853,0.0009705360229805803,"train",56400.0,"2021-12-10 07:11:01.265549","","","","","","",""
26.0,0.07359836995601654,0.0009638699293603013,"train",56600.0,"2021-12-10 07:11:31.402994","","","","","","",""
26.0,0.05990588292479515,0.0009571853936308659,"train",56800.0,"2021-12-10 07:12:01.781969","","","","","","",""
26.0,0.03853338211774826,0.0009504829922111616,"train",57000.0,"2021-12-10 07:12:31.900395","","","","","","",""
26.0,0.034977272152900696,0.0009437633030606656,"train",57200.0,"2021-12-10 07:13:02.012057","","","","","","",""
26.0,0.08433318138122559,0.0009370269056296047,"train",57400.0,"2021-12-10 07:13:32.608054","","","","","","",""
26.0,0.11384996771812439,0.00093027438080899,"train",57600.0,"2021-12-10 07:14:02.558403","","","","","","",""
26.0,0.04968719929456711,0.0009235063108805238,"train",57800.0,"2021-12-10 07:14:32.397181","","","","","","",""
26.0,"","","val",57996.0,"2021-12-10 07:15:30.905329",0.5938768410066102,0.6209217330762539,0.953556143762653,0.6698479779309071,0.5861391905151462,0.597117445867254,0.3826829561550673
27.0,0.04657591134309769,0.0009167232794663907,"train",58000.0,"2021-12-10 07:15:34.204368","","","","","","",""
27.0,0.06994687020778656,0.000909925871478929,"train",58200.0,"2021-12-10 07:16:04.652875","","","","","","",""
27.0,0.04048654064536095,0.0009031146730701932,"train",58400.0,"2021-12-10 07:16:35.037239","","","","","","",""
27.0,0.06118054687976837,0.0008962902715814096,"train",58600.0,"2021-12-10 07:17:05.417614","","","","","","",""
27.0,0.03488043695688248,0.0008894532554923286,"train",58800.0,"2021-12-10 07:17:35.941998","","","","","","",""
27.0,0.07237465679645538,0.0008826042143704788,"train",59000.0,"2021-12-10 07:18:06.413927","","","","","","",""
27.0,0.05608302727341652,0.0008757437388203278,"train",59200.0,"2021-12-10 07:18:36.471539","","","","","","",""
27.0,0.04437575116753578,0.0008688724204323542,"train",59400.0,"2021-12-10 07:19:05.993667","","","","","","",""
27.0,0.07458653301000595,0.0008619908517320317,"train",59600.0,"2021-12-10 07:19:36.238223","","","","","","",""
27.0,0.05500125139951706,0.0008550996261287366,"train",59800.0,"2021-12-10 07:20:06.324191","","","","","","",""
27.0,0.051509588956832886,0.0008481993378645766,"train",60000.0,"2021-12-10 07:20:36.329972","","","","","","",""
27.0,"","","val",60144.0,"2021-12-10 07:21:26.156726",0.596428157253856,0.6220602475000615,0.9540396231185615,0.6637091742991094,0.5797238759908272,0.5954011439118735,0.38063852030766065
28.0,0.042994070798158646,0.0008412905819631476,"train",60200.0,"2021-12-10 07:21:37.674814","","","","","","",""
28.0,0.08643336594104767,0.0008343739541782242,"train",60400.0,"2021-12-10 07:22:07.633528","","","","","","",""
28.0,0.03568018600344658,0.000827450050942387,"train",60600.0,"2021-12-10 07:22:37.395016","","","","","","",""
28.0,0.028920495882630348,0.0008205194693155917,"train",60800.0,"2021-12-10 07:23:07.939168","","","","","","",""
28.0,0.055850837379693985,0.0008135828069336821,"train",61000.0,"2021-12-10 07:23:38.314082","","","","","","",""
28.0,0.06723783165216446,0.0008066406619568564,"train",61200.0,"2021-12-10 07:24:09.079935","","","","","","",""
28.0,0.09350708872079849,0.0007996936330180862,"train",61400.0,"2021-12-10 07:24:39.751688","","","","","","",""
28.0,0.06510640680789948,0.0007927423191714956,"train",61600.0,"2021-12-10 07:25:09.871721","","","","","","",""
28.0,0.07497652620077133,0.0007857873198407029,"train",61800.0,"2021-12-10 07:25:39.922323","","","","","","",""
28.0,0.053888991475105286,0.0007788292347671331,"train",62000.0,"2021-12-10 07:26:09.951346","","","","","","",""
28.0,0.03152201324701309,0.0007718686639582989,"train",62200.0,"2021-12-10 07:26:40.430590","","","","","","",""
28.0,"","","val",62292.0,"2021-12-10 07:27:22.321858",0.5891800997332715,0.6252452749414719,0.953559197277478,0.6765780395882417,0.588628825624843,0.597614489086965,0.3818049553762747
29.0,0.05811910703778267,0.0007649062076360631,"train",62400.0,"2021-12-10 07:27:41.613700","","","","","","",""
29.0,0.0900259017944336,0.0007579424661848788,"train",62600.0,"2021-12-10 07:28:11.473466","","","","","","",""
29.0,0.0644674301147461,0.0007509780401000188,"train",62800.0,"2021-12-10 07:28:41.368771","","","","","","",""
29.0,0.03306181728839874,0.0007440135299357919,"train",63000.0,"2021-12-10 07:29:11.574428","","","","","","",""
29.0,0.07046008110046387,0.0007370495362537586,"train",63200.0,"2021-12-10 07:29:41.751610","","","","","","",""
29.0,0.0465262308716774,0.0007300866595709404,"train",63400.0,"2021-12-10 07:30:11.175866","","","","","","",""
29.0,0.05940927192568779,0.0007231255003080401,"train",63600.0,"2021-12-10 07:30:41.190833","","","","","","",""
29.0,0.051010195165872574,0.000716166658737663,"train",63800.0,"2021-12-10 07:31:10.949348","","","","","","",""
29.0,0.055695004761219025,0.0007092107349325569,"train",64000.0,"2021-12-10 07:31:41.082690","","","","","","",""
29.0,0.06965114176273346,0.0007022583287138643,"train",64200.0,"2021-12-10 07:32:11.616858","","","","","","",""
29.0,0.05820431932806969,0.000695310039599402,"train",64400.0,"2021-12-10 07:32:41.414957","","","","","","",""
29.0,"","","val",64440.0,"2021-12-10 07:33:15.977631",0.5978197842978081,0.6225190855026658,0.9517387049304147,0.6670113045799427,0.5781552915595489,0.5868819121708252,0.37616251841247383
30.0,0.07528113573789597,0.0006883664667519604,"train",64600.0,"2021-12-10 07:33:42.951962","","","","","","",""
30.0,0.03688518702983856,0.0006814282089276391,"train",64800.0,"2021-12-10 07:34:12.892723","","","","","","",""
30.0,0.07132790237665176,0.0006744958644242136,"train",65000.0,"2021-12-10 07:34:42.942256","","","","","","",""
30.0,0.04205244034528732,0.0006675700310295445,"train",65200.0,"2021-12-10 07:35:13.225548","","","","","","",""
30.0,0.03877977281808853,0.0006606513059700273,"train",65400.0,"2021-12-10 07:35:43.562322","","","","","","",""
30.0,0.07790827751159668,0.0006537402858590946,"train",65600.0,"2021-12-10 07:36:13.208901","","","","","","",""
30.0,0.046575821936130524,0.0006468375666457677,"train",65800.0,"2021-12-10 07:36:43.414149","","","","","","",""
30.0,0.04048563539981842,0.0006399437435632676,"train",66000.0,"2021-12-10 07:37:13.634961","","","","","","",""
30.0,0.039045851677656174,0.0006330594110776866,"train",66200.0,"2021-12-10 07:37:44.257130","","","","","","",""
30.0,0.05329832807183266,0.0006261851628367272,"train",66400.0,"2021-12-10 07:38:14.949270","","","","","","",""
30.0,"","","val",66588.0,"2021-12-10 07:39:11.554452",0.5946886234489157,0.6279859234185106,0.9542759326050193,0.666576087471091,0.5913277914925825,0.6018005472560468,0.3861281892146989
31.0,0.0812167227268219,0.0006193215916185092,"train",66600.0,"2021-12-10 07:39:16.137843","","","","","","",""
31.0,0.0612543523311615,0.000612469289280456,"train",66800.0,"2021-12-10 07:39:46.013146","","","","","","",""
31.0,0.05377115681767464,0.000605628846708255,"train",67000.0,"2021-12-10 07:40:16.098415","","","","","","",""
31.0,0.03777953237295151,0.000598800853764907,"train",67200.0,"2021-12-10 07:40:45.504859","","","","","","",""
31.0,0.06816378980875015,0.000591985899239859,"train",67400.0,"2021-12-10 07:41:15.554856","","","","","","",""
31.0,0.06634904444217682,0.0005851845707982341,"train",67600.0,"2021-12-10 07:41:45.833163","","","","","","",""
31.0,0.041624780744314194,0.0005783974549301537,"train",67800.0,"2021-12-10 07:42:15.641490","","","","","","",""
31.0,0.030174637213349342,0.0005716251369001661,"train",68000.0,"2021-12-10 07:42:45.979442","","","","","","",""
31.0,0.02550431527197361,0.0005648682006967763,"train",68200.0,"2021-12-10 07:43:16.477914","","","","","","",""
31.0,0.027229933068156242,0.0005581272289820883,"train",68400.0,"2021-12-10 07:43:46.358634","","","","","","",""
31.0,0.02777271717786789,0.0005514028030415606,"train",68600.0,"2021-12-10 07:44:16.925790","","","","","","",""
31.0,"","","val",68736.0,"2021-12-10 07:45:06.210820",0.6037341992346051,0.6314811468654609,0.9539612440112758,0.6779086072161833,0.5989055420022724,0.6113530259676925,0.3942492062468762
32.0,0.029108615592122078,0.0005446955027338826,"train",68800.0,"2021-12-10 07:45:18.726280","","","","","","",""
32.0,0.05750412493944168,0.0005380059064409697,"train",69000.0,"2021-12-10 07:45:49.317240","","","","","","",""
32.0,0.058797456324100494,0.0005313345910180916,"train",69200.0,"2021-12-10 07:46:18.729882","","","","","","",""
32.0,0.06896871328353882,0.0005246821317441262,"train",69400.0,"2021-12-10 07:46:48.978388","","","","","","",""
32.0,0.03624599054455757,0.0005180491022719544,"train",69600.0,"2021-12-10 07:47:19.567913","","","","","","",""
32.0,0.07507159560918808,0.0005114360745789915,"train",69800.0,"2021-12-10 07:47:49.738649","","","","","","",""
32.0,0.07882362604141235,0.0005048436189178661,"train",70000.0,"2021-12-10 07:48:19.555591","","","","","","",""
32.0,0.054919417947530746,0.000498272303767245,"train",70200.0,"2021-12-10 07:48:49.550754","","","","","","",""
32.0,0.021926669403910637,0.0004917226957828132,"train",70400.0,"2021-12-10 07:49:19.761445","","","","","","",""
32.0,0.034920912235975266,0.0004851953597484094,"train",70600.0,"2021-12-10 07:49:49.614721","","","","","","",""
32.0,0.04075675085186958,0.00047869085852732447,"train",70800.0,"2021-12-10 07:50:20.145609","","","","","","",""
32.0,"","","val",70884.0,"2021-12-10 07:51:01.561020",0.5961382349530326,0.6275975148723213,0.9502988541362901,0.6775170118141574,0.5956360833359168,0.6053294210930215,0.38971413194922333
33.0,0.06090972200036049,0.0004722097530137647,"train",71000.0,"2021-12-10 07:51:22.338213","","","","","","",""
33.0,0.07986868917942047,0.0004657526020844836,"train",71200.0,"2021-12-10 07:51:51.804823","","","","","","",""
33.0,0.03198493272066116,0.00045931996255059205,"train",71400.0,"2021-12-10 07:52:21.867165","","","","","","",""
33.0,0.03807472065091133,0.00045291238910953943,"train",71600.0,"2021-12-10 07:52:51.848681","","","","","","",""
33.0,0.052533477544784546,0.000446530434297285,"train",71800.0,"2021-12-10 07:53:22.344027","","","","","","",""
33.0,0.058677081018686295,0.000440174648440649,"train",72000.0,"2021-12-10 07:53:52.502726","","","","","","",""
33.0,0.030206961557269096,0.000433845579609859,"train",72200.0,"2021-12-10 07:54:22.039430","","","","","","",""
33.0,0.0442463718354702,0.0004275437735712872,"train",72400.0,"2021-12-10 07:54:52.581838","","","","","","",""
33.0,0.04653181508183479,0.0004212697737403893,"train",72600.0,"2021-12-10 07:55:22.669740","","","","","","",""
33.0,0.0227829497307539,0.0004150241211348438,"train",72800.0,"2021-12-10 07:55:52.046083","","","","","","",""
33.0,0.027627797797322273,0.00040880735432790124,"train",73000.0,"2021-12-10 07:56:22.317322","","","","","","",""
33.0,"","","val",73032.0,"2021-12-10 07:56:55.382788",0.5999072248637365,0.6331634603210653,0.9516324306442977,0.6796049130453347,0.6042853062366993,0.6134272898011275,0.3962279421823143
34.0,0.046586599200963974,0.0004026200094019383,"train",73200.0,"2021-12-10 07:57:23.840352","","","","","","",""
34.0,0.026835009455680847,0.00039646261990223494,"train",73400.0,"2021-12-10 07:57:53.250955","","","","","","",""
34.0,0.06991340219974518,0.00039033571679096264,"train",73600.0,"2021-12-10 07:58:23.188480","","","","","","",""
34.0,0.06104917824268341,0.0003842398284014,"train",73800.0,"2021-12-10 07:58:53.476879","","","","","","",""
34.0,0.08629947900772095,0.00037817548039237336,"train",74000.0,"2021-12-10 07:59:23.713194","","","","","","",""
34.0,0.07524136453866959,0.00037214319570292844,"train",74200.0,"2021-12-10 07:59:54.150789","","","","","","",""
34.0,0.0640961080789566,0.000366143494507236,"train",74400.0,"2021-12-10 08:00:24.146700","","","","","","",""
34.0,0.03575221821665764,0.00036017689416973774,"train",74600.0,"2021-12-10 08:00:54.741171","","","","","","",""
34.0,0.04606608301401138,0.0003542439092005309,"train",74800.0,"2021-12-10 08:01:24.755071","","","","","","",""
34.0,0.026645377278327942,0.0003483450512110029,"train",75000.0,"2021-12-10 08:01:54.443593","","","","","","",""
34.0,"","","val",75180.0,"2021-12-10 08:02:49.884418",0.5991534268815958,0.6313751643876735,0.9498324729616535,0.6783524625864678,0.603225758507667,0.6116289872978918,0.39536134174457127
35.0,0.024583373218774796,0.00034248082886971336,"train",75200.0,"2021-12-10 08:02:55.725995","","","","","","",""
35.0,0.029724668711423874,0.00033665174785853144,"train",75400.0,"2021-12-10 08:03:26.274822","","","","","","",""
35.0,0.03020773082971573,0.000330858310829029,"train",75600.0,"2021-12-10 08:03:56.020648","","","","","","",""
35.0,0.08558807522058487,0.00032510101735913746,"train",75800.0,"2021-12-10 08:04:25.966785","","","","","","",""
35.0,0.03989298641681671,0.00031938036391006714,"train",76000.0,"2021-12-10 08:04:55.730260","","","","","","",""
35.0,0.1062488928437233,0.00031369684378349715,"train",76200.0,"2021-12-10 08:05:25.669477","","","","","","",""
35.0,0.08746719360351562,0.0003080509470790369,"train",76400.0,"2021-12-10 08:05:55.578015","","","","","","",""
35.0,0.02544449083507061,0.00030244316065196434,"train",76600.0,"2021-12-10 08:06:25.433081","","","","","","",""
35.0,0.04821769893169403,0.0002968739680712428,"train",76800.0,"2021-12-10 08:06:55.794247","","","","","","",""
35.0,0.05441776290535927,0.00029134384957782395,"train",77000.0,"2021-12-10 08:07:26.370281","","","","","","",""
35.0,0.03294249624013901,0.0002858532820432324,"train",77200.0,"2021-12-10 08:07:56.781958","","","","","","",""
35.0,"","","val",77328.0,"2021-12-10 08:08:44.660898",0.5956163748115505,0.6309379681643479,0.9499803722984299,0.6769060303366434,0.6025785045939142,0.611300545917429,0.3933373970108563
36.0,0.07250859588384628,0.0002804027389284482,"train",77400.0,"2021-12-10 08:08:58.285096","","","","","","",""
36.0,0.07115466892719269,0.0002749926902430765,"train",77600.0,"2021-12-10 08:09:28.777519","","","","","","",""
36.0,0.056504253298044205,0.0002696236025048193,"train",77800.0,"2021-12-10 08:09:58.580166","","","","","","",""
36.0,0.022281769663095474,0.00026429593869924605,"train",78000.0,"2021-12-10 08:10:28.518721","","","","","","",""
36.0,0.042215920984745026,0.00025901015823987097,"train",78200.0,"2021-12-10 08:10:58.855211","","","","","","",""
36.0,0.029740165919065475,0.00025376671692853455,"train",78400.0,"2021-12-10 08:11:29.120509","","","","","","",""
36.0,0.03516031801700592,0.00024856606691610203,"train",78600.0,"2021-12-10 08:11:59.577101","","","","","","",""
36.0,0.04012138396501541,0.00024340865666347145,"train",78800.0,"2021-12-10 08:12:29.514336","","","","","","",""
36.0,0.042541034519672394,0.00023829493090290262,"train",79000.0,"2021-12-10 08:13:00.012373","","","","","","",""
36.0,0.034385453909635544,0.00023322533059966742,"train",79200.0,"2021-12-10 08:13:29.688745","","","","","","",""
36.0,0.03502567484974861,0.00022820029291402527,"train",79400.0,"2021-12-10 08:13:59.360702","","","","","","",""
36.0,"","","val",79476.0,"2021-12-10 08:14:39.319509",0.5930070741041401,0.6327165556877937,0.9496729509297224,0.6827610518354941,0.6117196655121335,0.6164384670478966,0.39950381925681133
37.0,0.02951185777783394,0.00022322025116352362,"train",79600.0,"2021-12-10 08:15:00.975945","","","","","","",""
37.0,0.025711115449666977,0.0002182856347856356,"train",79800.0,"2021-12-10 08:15:31.158783","","","","","","",""
37.0,0.06364698708057404,0.0002133968693007261,"train",80000.0,"2021-12-10 08:16:01.796556","","","","","","",""
37.0,0.028685763478279114,0.0002085543762753598,"train",80200.0,"2021-12-10 08:16:32.415949","","","","","","",""
37.0,0.06829291582107544,0.0002037585732859484,"train",80400.0,"2021-12-10 08:17:03.073133","","","","","","",""
37.0,0.029767192900180817,0.00019900987388274302,"train",80600.0,"2021-12-10 08:17:33.305898","","","","","","",""
37.0,0.06335198134183884,0.000194308687554171,"train",80800.0,"2021-12-10 08:18:03.200250","","","","","","",""
37.0,0.027726756408810616,0.0001896554196915279,"train",81000.0,"2021-12-10 08:18:33.172709","","","","","","",""
37.0,0.024761302396655083,0.0001850504715540177,"train",81200.0,"2021-12-10 08:19:03.286055","","","","","","",""
37.0,0.06810293346643448,0.00018049424023415227,"train",81400.0,"2021-12-10 08:19:32.797965","","","","","","",""
37.0,0.032116904854774475,0.00017598711862350946,"train",81600.0,"2021-12-10 08:20:02.823915","","","","","","",""
37.0,"","","val",81624.0,"2021-12-10 08:20:35.316433",0.5979937376783022,0.6335359363971124,0.9495105449746013,0.6855519208439658,0.6131092206293802,0.6207479459605665,0.40063441499429664
38.0,0.02345832623541355,0.00017152949537885395,"train",81800.0,"2021-12-10 08:21:05.133415","","","","","","",""
38.0,0.02144695818424225,0.00016712175488862077,"train",82000.0,"2021-12-10 08:21:35.826370","","","","","","",""
38.0,0.02694583870470524,0.00016276427723977164,"train",82200.0,"2021-12-10 08:22:06.050887","","","","","","",""
38.0,0.03375689685344696,0.00015845743818501717,"train",82400.0,"2021-12-10 08:22:36.089929","","","","","","",""
38.0,0.027787866070866585,0.0001542016091104159,"train",82600.0,"2021-12-10 08:23:06.463841","","","","","","",""
38.0,0.030429858714342117,0.00014999715700334887,"train",82800.0,"2021-12-10 08:23:36.907468","","","","","","",""
38.0,0.10163703560829163,0.00014584444442087484,"train",83000.0,"2021-12-10 08:24:07.829551","","","","","","",""
38.0,0.06567507237195969,0.0001417438294584635,"train",83200.0,"2021-12-10 08:24:38.289819","","","","","","",""
38.0,0.06505652517080307,0.0001376956657191198,"train",83400.0,"2021-12-10 08:25:07.906558","","","","","","",""
38.0,0.04722965508699417,0.0001337003022828898,"train",83600.0,"2021-12-10 08:25:37.969993","","","","","","",""
38.0,"","","val",83772.0,"2021-12-10 08:26:32.156598",0.5949205612895744,0.6331693054534084,0.9502794818251451,0.6861649627767975,0.6138916170627202,0.61798650217647,0.39880750861590986
39.0,0.03337317332625389,0.00012975808367675959,"train",83800.0,"2021-12-10 08:26:39.567867","","","","","","",""
39.0,0.03714102506637573,0.00012586934984494611,"train",84000.0,"2021-12-10 08:27:09.367339","","","","","","",""
39.0,0.06663550436496735,0.0001220344361195835,"train",84200.0,"2021-12-10 08:27:39.539418","","","","","","",""
39.0,0.05344666913151741,0.00011825367319180611,"train",84400.0,"2021-12-10 08:28:09.462612","","","","","","",""
39.0,0.06943833827972412,0.00011452738708323355,"train",84600.0,"2021-12-10 08:28:39.586957","","","","","","",""
39.0,0.06910248845815659,0.00011085589911785601,"train",84800.0,"2021-12-10 08:29:09.707611","","","","","","",""
39.0,0.017043447121977806,0.00010723952589432693,"train",85000.0,"2021-12-10 08:29:39.481703","","","","","","",""
39.0,0.05391346663236618,0.00010367857925866156,"train",85200.0,"2021-12-10 08:30:09.811881","","","","","","",""
39.0,0.04601188004016876,0.0001001733662773464,"train",85400.0,"2021-12-10 08:30:40.398317","","","","","","",""
39.0,0.08175578713417053,9.672418921085975e-05,"train",85600.0,"2021-12-10 08:31:10.436249","","","","","","",""
39.0,0.02835956960916519,9.333134548760835e-05,"train",85800.0,"2021-12-10 08:31:40.523478","","","","","","",""
39.0,"","","val",85920.0,"2021-12-10 08:32:26.816916",0.598921489040937,0.635458251888828,0.951332972241443,0.6845330227368591,0.6134637727721368,0.6198333987402852,0.4017398149916746
40.0,0.025085264816880226,8.999512767827822e-05,"train",86000.0,"2021-12-10 08:32:41.935591","","","","","","",""
40.0,0.040123097598552704,8.671582347060675e-05,"train",86200.0,"2021-12-10 08:33:12.114839","","","","","","",""
40.0,0.033909011632204056,8.349371564457475e-05,"train",86400.0,"2021-12-10 08:33:42.322178","","","","","","",""
40.0,0.07410001754760742,8.03290820480215e-05,"train",86600.0,"2021-12-10 08:34:11.776236","","","","","","",""
40.0,0.01718144677579403,7.722219557268577e-05,"train",86800.0,"2021-12-10 08:34:41.465448","","","","","","",""
40.0,0.03791636601090431,7.417332413067423e-05,"train",87000.0,"2021-12-10 08:35:11.307317","","","","","","",""
40.0,0.06660106778144836,7.118273063135756e-05,"train",87200.0,"2021-12-10 08:35:41.463761","","","","","","",""
40.0,0.029687972739338875,6.825067295870142e-05,"train",87400.0,"2021-12-10 08:36:11.488635","","","","","","",""
40.0,0.031875669956207275,6.537740394902688e-05,"train",87600.0,"2021-12-10 08:36:41.148353","","","","","","",""
40.0,0.04436158388853073,6.256317136920873e-05,"train",87800.0,"2021-12-10 08:37:10.973915","","","","","","",""
40.0,0.033339906483888626,5.980821789530992e-05,"train",88000.0,"2021-12-10 08:37:40.644628","","","","","","",""
40.0,"","","val",88068.0,"2021-12-10 08:38:19.390816",0.6006610228458773,0.6347046170294777,0.9497798599387031,0.6841950685685542,0.6123650974453114,0.6181878502906127,0.4010047737040831
41.0,0.026129988953471184,5.711278109165564e-05,"train",88200.0,"2021-12-10 08:38:42.682902","","","","","","",""
41.0,0.040072377771139145,5.447709339034655e-05,"train",88400.0,"2021-12-10 08:39:12.616859","","","","","","",""
41.0,0.0773407518863678,5.1901382071217515e-05,"train",88600.0,"2021-12-10 08:39:43.079376","","","","","","",""
41.0,0.023068323731422424,4.938586924223723e-05,"train",88800.0,"2021-12-10 08:40:13.733593","","","","","","",""
41.0,0.04146754741668701,4.693077182035649e-05,"train",89000.0,"2021-12-10 08:40:43.946776","","","","","","",""
41.0,0.07115573436021805,4.453630151280253e-05,"train",89200.0,"2021-12-10 08:41:13.630294","","","","","","",""
41.0,0.04142696410417557,4.2202664798823874e-05,"train",89400.0,"2021-12-10 08:41:43.322021","","","","","","",""
41.0,0.056156620383262634,3.993006291188402e-05,"train",89600.0,"2021-12-10 08:42:13.587585","","","","","","",""
41.0,0.060307200998067856,3.771869182231016e-05,"train",89800.0,"2021-12-10 08:42:43.904660","","","","","","",""
41.0,0.06628376245498657,3.55687422203934e-05,"train",90000.0,"2021-12-10 08:43:13.955264","","","","","","",""
41.0,0.0497090108692646,3.348039949994545e-05,"train",90200.0,"2021-12-10 08:43:44.159590","","","","","","",""
41.0,"","","val",90216.0,"2021-12-10 08:44:15.272246",0.600719007306042,0.6337730288297235,0.9497917406479683,0.6845447036950285,0.6147671515364433,0.621454251181437,0.4022974868532008
42.0,0.028490250930190086,3.145384374231174e-05,"train",90400.0,"2021-12-10 08:44:46.116974","","","","","","",""
42.0,0.08330917358398438,2.9489249700843158e-05,"train",90600.0,"2021-12-10 08:45:16.465849","","","","","","",""
42.0,0.03787151351571083,2.7586786785825808e-05,"train",90800.0,"2021-12-10 08:45:46.977508","","","","","","",""
42.0,0.021423963829874992,2.5746619049873622e-05,"train",91000.0,"2021-12-10 08:46:17.023675","","","","","","",""
42.0,0.04175608977675438,2.396890517378103e-05,"train",91200.0,"2021-12-10 08:46:47.390286","","","","","","",""
42.0,0.0827387124300003,2.225379845283974e-05,"train",91400.0,"2021-12-10 08:47:17.901442","","","","","","",""
42.0,0.027857011184096336,2.060144678362018e-05,"train",91600.0,"2021-12-10 08:47:48.365520","","","","","","",""
42.0,0.01701916940510273,1.901199265121792e-05,"train",91800.0,"2021-12-10 08:48:19.001733","","","","","","",""
42.0,0.02569003775715828,1.7485573116966556e-05,"train",92000.0,"2021-12-10 08:48:49.782553","","","","","","",""
42.0,0.044148821383714676,1.6022319806619548e-05,"train",92200.0,"2021-12-10 08:49:19.724688","","","","","","",""
42.0,"","","val",92364.0,"2021-12-10 08:50:12.941484",0.603560245854111,0.635592007966294,0.9498196443132886,0.6829915917587632,0.609548055570294,0.6186799630413307,0.39776695144959906
43.0,0.05925954505801201,1.4622358898999161e-05,"train",92400.0,"2021-12-10 08:50:21.181227","","","","","","",""
43.0,0.05176173150539398,1.3285811115116146e-05,"train",92600.0,"2021-12-10 08:50:51.612356","","","","","","",""
43.0,0.026383355259895325,1.2012791707759599e-05,"train",92800.0,"2021-12-10 08:51:21.703720","","","","","","",""
43.0,0.06740403175354004,1.0803410451558707e-05,"train",93000.0,"2021-12-10 08:51:52.312002","","","","","","",""
43.0,0.02876373752951622,9.657771633516683e-06,"train",93200.0,"2021-12-10 08:52:22.678628","","","","","","",""
43.0,0.044724710285663605,8.57597404401784e-06,"train",93400.0,"2021-12-10 08:52:52.809106","","","","","","",""
43.0,0.03389329835772514,7.558110968308681e-06,"train",93600.0,"2021-12-10 08:53:22.994832","","","","","","",""
43.0,0.03752630949020386,6.604270178453785e-06,"train",93800.0,"2021-12-10 08:53:52.828556","","","","","","",""
43.0,0.035019244998693466,5.714533925767308e-06,"train",94000.0,"2021-12-10 08:54:23.021990","","","","","","",""
43.0,0.08594504743814468,4.888978933719937e-06,"train",94200.0,"2021-12-10 08:54:53.266337","","","","","","",""
43.0,0.03545600548386574,4.127676391322956e-06,"train",94400.0,"2021-12-10 08:55:23.394769","","","","","","",""
43.0,"","","val",94512.0,"2021-12-10 08:56:09.194403",0.5988635045807723,0.6298815199767904,0.9488912695276424,0.6716756837425524,0.5987305430602498,0.6086786905104351,0.3913271525700658
44.0,0.03988301381468773,3.430691946989848e-06,"train",94600.0,"2021-12-10 08:56:25.693245","","","","","","",""
44.0,0.017701443284749985,2.7980857028750155e-06,"train",94800.0,"2021-12-10 08:56:56.417528","","","","","","",""
44.0,0.06417341530323029,2.22991220969111e-06,"train",95000.0,"2021-12-10 08:57:26.131887","","","","","","",""
44.0,0.032882846891880035,1.7262204620049827e-06,"train",95200.0,"2021-12-10 08:57:56.336758","","","","","","",""
44.0,0.08300132304430008,1.2870538940129136e-06,"train",95400.0,"2021-12-10 08:58:26.392026","","","","","","",""
44.0,0.06746526062488556,9.124503757952057e-07,"train",95600.0,"2021-12-10 08:58:56.003468","","","","","","",""
44.0,0.05755820870399475,6.024422100506432e-07,"train",95800.0,"2021-12-10 08:59:26.131409","","","","","","",""
44.0,0.04889119789004326,3.5705612931056535e-07,"train",96000.0,"2021-12-10 08:59:56.134510","","","","","","",""
44.0,0.04472699761390686,1.7631329363430205e-07,"train",96200.0,"2021-12-10 09:00:25.941964","","","","","","",""
44.0,0.009553504176437855,6.022928878405748e-08,"train",96400.0,"2021-12-10 09:00:56.265052","","","","","","",""
44.0,0.029836898669600487,8.814124880991011e-09,"train",96600.0,"2021-12-10 09:01:26.573240","","","","","","",""
44.0,"","","val",96660.0,"2021-12-10 09:02:03.902998",0.6001391627043953,0.6351295830031632,0.9501358111545666,0.6862874860431566,0.6178348122283077,0.6238826094296432,0.4035092730540517
