"epoch","loss","lr","part","step","time","accuracy","auprc","auroc","challenge_metric","f_beta_measure","f_measure","g_beta_measure"
0.0,0.18814590573310852,6.0129391249690326e-05,"train",200.0,"2021-12-10 00:07:46.990529","","","","","","",""
0.0,0.12226508557796478,6.0517518492940806e-05,"train",400.0,"2021-12-10 00:08:12.526403","","","","","","",""
0.0,0.11734169721603394,6.116424222900405e-05,"train",600.0,"2021-12-10 00:08:38.487419","","","","","","",""
0.0,0.12992841005325317,6.206933001234546e-05,"train",800.0,"2021-12-10 00:09:04.927687","","","","","","",""
0.0,0.12429917603731155,6.323245653618893e-05,"train",1000.0,"2021-12-10 00:09:30.931702","","","","","","",""
0.0,0.1179814413189888,6.465320374943921e-05,"train",1200.0,"2021-12-10 00:09:57.743948","","","","","","",""
0.0,0.12724348902702332,6.633106100693625e-05,"train",1400.0,"2021-12-10 00:10:24.122236","","","","","","",""
0.0,0.12899444997310638,6.826542525299305e-05,"train",1600.0,"2021-12-10 00:10:50.556896","","","","","","",""
0.0,0.11706660687923431,7.045560123814573e-05,"train",1800.0,"2021-12-10 00:11:16.606028","","","","","","",""
0.0,0.09402529150247574,7.290080176903884e-05,"train",2000.0,"2021-12-10 00:11:43.116938","","","","","","",""
0.0,0.10081806033849716,7.560014799136037e-05,"train",2200.0,"2021-12-10 00:12:09.434551","","","","","","",""
0.0,0.12245659530162811,7.855266970571858e-05,"train",2400.0,"2021-12-10 00:12:35.868489","","","","","","",""
0.0,"","","val",2455.0,"2021-12-10 00:13:11.392123",0.3942363446596312,0.2960115116028582,0.832715274978307,0.36279054122554355,0.24347268928688712,0.23043444757660717,0.1412767411332547
1.0,0.12724438309669495,8.175730571635133e-05,"train",2600.0,"2021-12-10 00:13:34.196396","","","","","","",""
1.0,0.08723680675029755,8.521290421254087e-05,"train",2800.0,"2021-12-10 00:14:01.561090","","","","","","",""
1.0,0.09857633709907532,8.891822318259925e-05,"train",3000.0,"2021-12-10 00:14:28.113180","","","","","","",""
1.0,0.09144353866577148,9.28719308602706e-05,"train",3200.0,"2021-12-10 00:14:54.577165","","","","","","",""
1.0,0.08889228105545044,9.707260620339577e-05,"train",3400.0,"2021-12-10 00:15:21.151027","","","","","","",""
1.0,0.08527485281229019,0.00010151873940466324,"train",3600.0,"2021-12-10 00:15:48.661594","","","","","","",""
1.0,0.10496501624584198,0.00010620873243426384,"train",3800.0,"2021-12-10 00:16:14.301244","","","","","","",""
1.0,0.1239660307765007,0.00011114089961425551,"train",4000.0,"2021-12-10 00:16:41.273948","","","","","","",""
1.0,0.12145385146141052,0.0001163134682244302,"train",4200.0,"2021-12-10 00:17:08.029497","","","","","","",""
1.0,0.09901342540979385,0.0001217245791394633,"train",4400.0,"2021-12-10 00:17:34.696709","","","","","","",""
1.0,0.08687230199575424,0.00012737228749712328,"train",4600.0,"2021-12-10 00:18:00.756904","","","","","","",""
1.0,0.11381293833255768,0.00013325456339729255,"train",4800.0,"2021-12-10 00:18:27.202625","","","","","","",""
1.0,"","","val",4910.0,"2021-12-10 00:19:10.484536",0.4031659515249913,0.36502201723304456,0.8775680493997312,0.4541528873717382,0.30869374993629584,0.29010055211072966,0.18456726829560668
2.0,0.1326456218957901,0.00013936929263155514,"train",5000.0,"2021-12-10 00:19:25.023135","","","","","","",""
2.0,0.12688125669956207,0.000145714277443086,"train",5200.0,"2021-12-10 00:19:52.693722","","","","","","",""
2.0,0.09109354019165039,0.00015228723731656774,"train",5400.0,"2021-12-10 00:20:19.356511","","","","","","",""
2.0,0.10844801366329193,0.00015908580979785594,"train",5600.0,"2021-12-10 00:20:46.014157","","","","","","",""
2.0,0.11821013689041138,0.0001661075513430905,"train",5800.0,"2021-12-10 00:21:12.516989","","","","","","",""
2.0,0.0863749235868454,0.00017334993819695648,"train",6000.0,"2021-12-10 00:21:38.880879","","","","","","",""
2.0,0.06900246441364288,0.0001808103672997709,"train",6200.0,"2021-12-10 00:22:05.641997","","","","","","",""
2.0,0.10261934995651245,0.000188486157223076,"train",6400.0,"2021-12-10 00:22:32.286085","","","","","","",""
2.0,0.06501425057649612,0.00019637454913339807,"train",6600.0,"2021-12-10 00:22:58.487320","","","","","","",""
2.0,0.10270173102617264,0.0002044727077838279,"train",6800.0,"2021-12-10 00:23:25.807038","","","","","","",""
2.0,0.10008247196674347,0.00021277772253306543,"train",7000.0,"2021-12-10 00:23:53.253907","","","","","","",""
2.0,0.13029052317142487,0.00022128660839156327,"train",7200.0,"2021-12-10 00:24:20.486111","","","","","","",""
2.0,"","","val",7365.0,"2021-12-10 00:25:10.513271",0.4418415864548301,0.4070156679059307,0.8997873079570327,0.48812978705423316,0.33915867160370045,0.3248709270183714,0.21014150067172022
3.0,0.07483937591314316,0.0002299963070943917,"train",7400.0,"2021-12-10 00:25:18.049785","","","","","","",""
3.0,0.09665746986865997,0.0002389036882004406,"train",7600.0,"2021-12-10 00:25:44.937830","","","","","","",""
3.0,0.06824357807636261,0.0002480055502175635,"train",7800.0,"2021-12-10 00:26:11.320250","","","","","","",""
3.0,0.09605468064546585,0.000257298621753258,"train",8000.0,"2021-12-10 00:26:37.730807","","","","","","",""
3.0,0.08231054991483688,0.00026677956269046993,"train",8200.0,"2021-12-10 00:27:03.786468","","","","","","",""
3.0,0.07546721398830414,0.0002764449653880985,"train",8400.0,"2021-12-10 00:27:29.879778","","","","","","",""
3.0,0.10403221845626831,0.0002862913559057729,"train",8600.0,"2021-12-10 00:27:57.340011","","","","","","",""
3.0,0.1019124686717987,0.00029631519525245365,"train",8800.0,"2021-12-10 00:28:24.326613","","","","","","",""
3.0,0.10238345712423325,0.00030651288065841934,"train",9000.0,"2021-12-10 00:28:51.588107","","","","","","",""
3.0,0.08807890862226486,0.00031688074687017363,"train",9200.0,"2021-12-10 00:29:17.930749","","","","","","",""
3.0,0.08422256261110306,0.0003274150674678119,"train",9400.0,"2021-12-10 00:29:44.441545","","","","","","",""
3.0,0.11369902640581131,0.00033811205620437037,"train",9600.0,"2021-12-10 00:30:11.243744","","","","","","",""
3.0,0.11278911679983139,0.00034896786836668145,"train",9800.0,"2021-12-10 00:30:37.948563","","","","","","",""
3.0,"","","val",9820.0,"2021-12-10 00:31:09.152370",0.47031195639568596,0.4493977020831931,0.9133287670956098,0.5332740238173083,0.40094748680117553,0.3950500827852795,0.24674918239232502
4.0,0.0724824070930481,0.00035997860215723917,"train",10000.0,"2021-12-10 00:31:35.826524","","","","","","",""
4.0,0.14967550337314606,0.0003711403000965846,"train",10200.0,"2021-12-10 00:32:02.364054","","","","","","",""
4.0,0.09955946356058121,0.000382448950445704,"train",10400.0,"2021-12-10 00:32:29.390474","","","","","","",""
4.0,0.11608373373746872,0.0003939004886479272,"train",10600.0,"2021-12-10 00:32:55.655973","","","","","","",""
4.0,0.07693692296743393,0.0004054907987898139,"train",10800.0,"2021-12-10 00:33:23.055904","","","","","","",""
4.0,0.11380297690629959,0.0004172157150804927,"train",11000.0,"2021-12-10 00:33:49.868401","","","","","","",""
4.0,0.10559588670730591,0.000429071023348932,"train",11200.0,"2021-12-10 00:34:17.030704","","","","","","",""
4.0,0.10757827758789062,0.0004410524625585975,"train",11400.0,"2021-12-10 00:34:43.662492","","","","","","",""
4.0,0.12735815346240997,0.0004531557263389549,"train",11600.0,"2021-12-10 00:35:10.143162","","","","","","",""
4.0,0.11484026908874512,0.00046537646453326557,"train",11800.0,"2021-12-10 00:35:35.982446","","","","","","",""
4.0,0.07751807570457458,0.0004777102847621207,"train",12000.0,"2021-12-10 00:36:02.383084","","","","","","",""
4.0,0.076804019510746,0.0004901527540021513,"train",12200.0,"2021-12-10 00:36:28.803091","","","","","","",""
4.0,"","","val",12275.0,"2021-12-10 00:37:07.277589",0.4855618694189957,0.46849107858263817,0.9203608904441247,0.5103354391356476,0.38061436986680786,0.37256059219622006,0.23720900393942904
5.0,0.10086921602487564,0.0005026994001793462,"train",12400.0,"2021-12-10 00:37:26.119655","","","","","","",""
5.0,0.07149378210306168,0.0005153457137764038,"train",12600.0,"2021-12-10 00:37:52.315099","","","","","","",""
5.0,0.07959716022014618,0.0005280871494535458,"train",12800.0,"2021-12-10 00:38:19.140396","","","","","","",""
5.0,0.0987657830119133,0.0005409191276822026,"train",13000.0,"2021-12-10 00:38:45.640547","","","","","","",""
5.0,0.06025062873959541,0.0005538370363909879,"train",13200.0,"2021-12-10 00:39:12.463036","","","","","","",""
5.0,0.08346811681985855,0.0005668362326233708,"train",13400.0,"2021-12-10 00:39:39.456164","","","","","","",""
5.0,0.06386254727840424,0.0005799120442064468,"train",13600.0,"2021-12-10 00:40:05.647617","","","","","","",""
5.0,0.08188106119632721,0.000593059771430212,"train",13800.0,"2021-12-10 00:40:32.270489","","","","","","",""
5.0,0.09005997329950333,0.0006062746887367332,"train",14000.0,"2021-12-10 00:40:58.858215","","","","","","",""
5.0,0.09370646625757217,0.0006195520464186073,"train",14200.0,"2021-12-10 00:41:25.349053","","","","","","",""
5.0,0.1230766624212265,0.0006328870723261045,"train",14400.0,"2021-12-10 00:41:52.282688","","","","","","",""
5.0,0.08801637589931488,0.000646274973582372,"train",14600.0,"2021-12-10 00:42:18.580831","","","","","","",""
5.0,"","","val",14730.0,"2021-12-10 00:43:04.272446",0.5063203061579497,0.49832418138505685,0.9277740463318932,0.5618678758313231,0.4224079489897602,0.43023332953771753,0.2713255853003323
6.0,0.10335598886013031,0.0006597109383060926,"train",14800.0,"2021-12-10 00:43:16.248087","","","","","","",""
6.0,0.07404840737581253,0.0006731901373409705,"train",15000.0,"2021-12-10 00:43:42.563654","","","","","","",""
6.0,0.08948227763175964,0.0006867077259914278,"train",15200.0,"2021-12-10 00:44:09.241868","","","","","","",""
6.0,0.05369533970952034,0.0007002588457638866,"train",15400.0,"2021-12-10 00:44:35.725422","","","","","","",""
6.0,0.07825253158807755,0.0007138386261130076,"train",15600.0,"2021-12-10 00:45:01.842525","","","","","","",""
6.0,0.068226657807827,0.0007274421861922632,"train",15800.0,"2021-12-10 00:45:28.960332","","","","","","",""
6.0,0.06227235496044159,0.0007410646366082122,"train",16000.0,"2021-12-10 00:45:56.225334","","","","","","",""
6.0,0.0689278319478035,0.0007547010811778456,"train",16200.0,"2021-12-10 00:46:23.410374","","","","","","",""
6.0,0.053402677178382874,0.0007683466186883739,"train",16400.0,"2021-12-10 00:46:49.403783","","","","","","",""
6.0,0.07980342954397202,0.0007819963446588217,"train",16600.0,"2021-12-10 00:47:15.912724","","","","","","",""
6.0,0.05245222523808479,0.0007956453531027971,"train",16800.0,"2021-12-10 00:47:41.928606","","","","","","",""
6.0,0.09049290418624878,0.0008092887382918001,"train",17000.0,"2021-12-10 00:48:08.660337","","","","","","",""
6.0,"","","val",17185.0,"2021-12-10 00:49:01.399561",0.48979473501101706,0.5251436569410347,0.9352083949727584,0.5935727304091167,0.4491889903511085,0.44243368684819323,0.28562610168914476
7.0,0.0521121621131897,0.0008229215965184442,"train",17200.0,"2021-12-10 00:49:05.989423","","","","","","",""
7.0,0.07751378417015076,0.000836539027858943,"train",17400.0,"2021-12-10 00:49:33.018620","","","","","","",""
7.0,0.0998598039150238,0.0008501361379342445,"train",17600.0,"2021-12-10 00:50:00.140188","","","","","","",""
7.0,0.08397563546895981,0.0008637080396691691,"train",17800.0,"2021-12-10 00:50:26.909529","","","","","","",""
7.0,0.08087668567895889,0.0008772498550489216,"train",18000.0,"2021-12-10 00:50:53.276342","","","","","","",""
7.0,0.0880044624209404,0.000890756716872349,"train",18200.0,"2021-12-10 00:51:19.880152","","","","","","",""
7.0,0.06713177263736725,0.0009042237705013108,"train",18400.0,"2021-12-10 00:51:46.653143","","","","","","",""
7.0,0.08673971146345139,0.0009176461756055323,"train",18600.0,"2021-12-10 00:52:12.931320","","","","","","",""
7.0,0.05302274599671364,0.0009310191079023186,"train",18800.0,"2021-12-10 00:52:39.908924","","","","","","",""
7.0,0.06839331239461899,0.0009443377608904975,"train",19000.0,"2021-12-10 00:53:06.442766","","","","","","",""
7.0,0.06975524872541428,0.0009575973475779739,"train",19200.0,"2021-12-10 00:53:32.994246","","","","","","",""
7.0,0.060365982353687286,0.0009707931022022703,"train",19400.0,"2021-12-10 00:53:59.603274","","","","","","",""
7.0,0.07556591182947159,0.0009839202819434379,"train",19600.0,"2021-12-10 00:54:26.263050","","","","","","",""
7.0,"","","val",19640.0,"2021-12-10 00:55:00.226962",0.5285863388611852,0.5320863209742435,0.9370890827730077,0.5880580214177007,0.46017244985703726,0.46835867089009536,0.296674955949468
8.0,0.08493613451719284,0.0009969741686287228,"train",19800.0,"2021-12-10 00:55:24.209952","","","","","","",""
8.0,0.06984539330005646,0.0010099500704283703,"train",20000.0,"2021-12-10 00:55:51.204568","","","","","","",""
8.0,0.06835877150297165,0.0010228433235419645,"train",20200.0,"2021-12-10 00:56:17.984095","","","","","","",""
8.0,0.06308141350746155,0.001035649293874692,"train",20400.0,"2021-12-10 00:56:45.292577","","","","","","",""
8.0,0.04265453293919563,0.001048363378702928,"train",20600.0,"2021-12-10 00:57:12.103724","","","","","","",""
8.0,0.07173555344343185,0.001060981008328549,"train",20800.0,"2021-12-10 00:57:38.057015","","","","","","",""
8.0,0.06403687596321106,0.0010734976477213725,"train",21000.0,"2021-12-10 00:58:04.500459","","","","","","",""
8.0,0.058596063405275345,0.001085908798149141,"train",21200.0,"2021-12-10 00:58:31.756846","","","","","","",""
8.0,0.06612682342529297,0.0010982099987944544,"train",21400.0,"2021-12-10 00:58:58.684745","","","","","","",""
8.0,0.053339727222919464,0.001110396828358079,"train",21600.0,"2021-12-10 00:59:24.842902","","","","","","",""
8.0,0.07231824100017548,0.0011224649066480508,"train",21800.0,"2021-12-10 00:59:51.360395","","","","","","",""
8.0,0.08579838275909424,0.001134409896154005,"train",22000.0,"2021-12-10 01:00:17.087103","","","","","","",""
8.0,"","","val",22095.0,"2021-12-10 01:00:57.795564",0.5367621477444044,0.548666542115297,0.9385156850655209,0.5765771256349352,0.4657583884788918,0.47279590774909724,0.30417475985502307
9.0,0.08878397196531296,0.0011462275036061647,"train",22200.0,"2021-12-10 01:01:15.132297","","","","","","",""
9.0,0.08631198108196259,0.0011579134815184284,"train",22400.0,"2021-12-10 01:01:42.319080","","","","","","",""
9.0,0.07515650987625122,0.0011694636297150019,"train",22600.0,"2021-12-10 01:02:09.289163","","","","","","",""
9.0,0.08585047721862793,0.0011808737968400254,"train",22800.0,"2021-12-10 01:02:36.505011","","","","","","",""
9.0,0.11273486167192459,0.0011921398818496567,"train",23000.0,"2021-12-10 01:03:02.841814","","","","","","",""
9.0,0.06386138498783112,0.0012032578354860663,"train",23200.0,"2021-12-10 01:03:29.154663","","","","","","",""
9.0,0.12543468177318573,0.0012142236617328239,"train",23400.0,"2021-12-10 01:03:55.664153","","","","","","",""
9.0,0.0753469243645668,0.0012250334192511457,"train",23600.0,"2021-12-10 01:04:21.588015","","","","","","",""
9.0,0.05140648037195206,0.0012356832227964929,"train",23800.0,"2021-12-10 01:04:48.181888","","","","","","",""
9.0,0.0871632993221283,0.0012461692446150052,"train",24000.0,"2021-12-10 01:05:15.217012","","","","","","",""
9.0,0.07852652668952942,0.001256487715819273,"train",24200.0,"2021-12-10 01:05:41.955466","","","","","","",""
9.0,0.07903160154819489,0.001266634927742952,"train",24400.0,"2021-12-10 01:06:08.534192","","","","","","",""
9.0,"","","val",24550.0,"2021-12-10 01:06:57.112517",0.5557810506784182,0.5549736067578759,0.9408973006913581,0.6126139981878564,0.4906414876031101,0.49144860512797883,0.31780068905726
10.0,0.0528971403837204,0.0012766072332737318,"train",24600.0,"2021-12-10 01:07:06.425557","","","","","","",""
10.0,0.09118067473173141,0.0012864010481641822,"train",24800.0,"2021-12-10 01:07:33.592731","","","","","","",""
10.0,0.05101028084754944,0.0012960128523200032,"train",25000.0,"2021-12-10 01:08:00.260013","","","","","","",""
10.0,0.07743627578020096,0.001305439191065219,"train",25200.0,"2021-12-10 01:08:26.854824","","","","","","",""
10.0,0.09601329267024994,0.0013146766763838561,"train",25400.0,"2021-12-10 01:08:53.740193","","","","","","",""
10.0,0.1046781912446022,0.0013237219881376662,"train",25600.0,"2021-12-10 01:09:20.777268","","","","","","",""
10.0,0.07513877749443054,0.0013325718752594507,"train",25800.0,"2021-12-10 01:09:47.151640","","","","","","",""
10.0,0.04754602164030075,0.0013412231569215585,"train",26000.0,"2021-12-10 01:10:13.520839","","","","","","",""
10.0,0.08300839364528656,0.0013496727236791406,"train",26200.0,"2021-12-10 01:10:40.219181","","","","","","",""
10.0,0.05836590752005577,0.0013579175385877464,"train",26400.0,"2021-12-10 01:11:07.381365","","","","","","",""
10.0,0.09070895612239838,0.0013659546382948637,"train",26600.0,"2021-12-10 01:11:34.230063","","","","","","",""
10.0,0.0805497094988823,0.0013737811341050065,"train",26800.0,"2021-12-10 01:12:00.312551","","","","","","",""
10.0,0.04942691698670387,0.00138139421301797,"train",27000.0,"2021-12-10 01:12:26.621274","","","","","","",""
10.0,"","","val",27005.0,"2021-12-10 01:12:55.739406",0.5635509683404848,0.566408671226991,0.944048799517366,0.5968653232402036,0.48481980429451865,0.49957585785979586,0.31370220607978017
11.0,0.08991995453834534,0.0013887911387398808,"train",27200.0,"2021-12-10 01:13:25.138341","","","","","","",""
11.0,0.06643003970384598,0.001395969252666675,"train",27400.0,"2021-12-10 01:13:52.296722","","","","","","",""
11.0,0.08947106450796127,0.001402925974839654,"train",27600.0,"2021-12-10 01:14:18.695709","","","","","","",""
11.0,0.07322460412979126,0.0014096588048727746,"train",27800.0,"2021-12-10 01:14:44.279871","","","","","","",""
11.0,0.08262033760547638,0.0014161653228513364,"train",28000.0,"2021-12-10 01:15:10.300431","","","","","","",""
11.0,0.0403146855533123,0.0014224431902017495,"train",28200.0,"2021-12-10 01:15:36.935354","","","","","","",""
11.0,0.08616244047880173,0.0014284901505320648,"train",28400.0,"2021-12-10 01:16:03.969896","","","","","","",""
11.0,0.07344510406255722,0.0014343040304429654,"train",28600.0,"2021-12-10 01:16:31.461223","","","","","","",""
11.0,0.11134105175733566,0.001439882740308931,"train",28800.0,"2021-12-10 01:16:58.625032","","","","","","",""
11.0,0.056661322712898254,0.0014452242750292923,"train",29000.0,"2021-12-10 01:17:25.265272","","","","","","",""
11.0,0.09876616299152374,0.001450326714748902,"train",29200.0,"2021-12-10 01:17:52.347512","","","","","","",""
11.0,0.07533504068851471,0.0014551882255481722,"train",29400.0,"2021-12-10 01:18:19.173037","","","","","","",""
11.0,"","","val",29460.0,"2021-12-10 01:18:55.554289",0.5655224399860838,0.5743855668697392,0.9460330001708299,0.6188508786806544,0.5082153498893675,0.5160295682103395,0.3305223276423599
12.0,0.05609319731593132,0.0014598070601022203,"train",29600.0,"2021-12-10 01:19:17.044346","","","","","","",""
12.0,0.0911029502749443,0.0014641815583088934,"train",29800.0,"2021-12-10 01:19:43.952118","","","","","","",""
12.0,0.04194212704896927,0.0014683101478854424,"train",30000.0,"2021-12-10 01:20:10.647563","","","","","","",""
12.0,0.06583108752965927,0.0014721913449336314,"train",30200.0,"2021-12-10 01:20:37.309485","","","","","","",""
12.0,0.04129839688539505,0.001475823754473082,"train",30400.0,"2021-12-10 01:21:04.357520","","","","","","",""
12.0,0.04875282943248749,0.001479206070942656,"train",30600.0,"2021-12-10 01:21:31.154352","","","","","","",""
12.0,0.04144590348005295,0.0014823370786697012,"train",30800.0,"2021-12-10 01:21:57.413715","","","","","","",""
12.0,0.07757207006216049,0.001485215652306988,"train",31000.0,"2021-12-10 01:22:23.642094","","","","","","",""
12.0,0.052879396826028824,0.0014878407572371823,"train",31200.0,"2021-12-10 01:22:50.021727","","","","","","",""
12.0,0.0415501669049263,0.001490211449944708,"train",31400.0,"2021-12-10 01:23:16.628654","","","","","","",""
12.0,0.056671589612960815,0.0014923268783548647,"train",31600.0,"2021-12-10 01:23:42.935579","","","","","","",""
12.0,0.08300133049488068,0.0014941862821400815,"train",31800.0,"2021-12-10 01:24:09.896441","","","","","","",""
12.0,"","","val",31915.0,"2021-12-10 01:24:53.592271",0.5596660095094514,0.5835233388813041,0.9479656558069739,0.6330227763550171,0.5198855664607325,0.529185654982168,0.342297479970589
13.0,0.0564768947660923,0.001495788992993193,"train",32000.0,"2021-12-10 01:25:07.797275","","","","","","",""
13.0,0.12363035976886749,0.0014971344348676432,"train",32200.0,"2021-12-10 01:25:34.501625","","","","","","",""
13.0,0.055539898574352264,0.001498222124184528,"train",32400.0,"2021-12-10 01:26:02.040489","","","","","","",""
13.0,0.05278508737683296,0.0014990516700064027,"train",32600.0,"2021-12-10 01:26:28.678765","","","","","","",""
13.0,0.08502067625522614,0.001499622774177794,"train",32800.0,"2021-12-10 01:26:55.829251","","","","","","",""
13.0,0.05502548813819885,0.0014999352314323615,"train",33000.0,"2021-12-10 01:27:22.547134","","","","","","",""
13.0,0.04499689117074013,0.0014999978820451232,"train",33200.0,"2021-12-10 01:27:49.716463","","","","","","",""
13.0,0.09238993376493454,0.0014999586455471533,"train",33400.0,"2021-12-10 01:28:16.327282","","","","","","",""
13.0,0.04652365669608116,0.001499869901796584,"train",33600.0,"2021-12-10 01:28:42.621742","","","","","","",""
13.0,0.07224526256322861,0.0014997316566517074,"train",33800.0,"2021-12-10 01:29:09.363237","","","","","","",""
13.0,0.10330171138048172,0.0014995439192385795,"train",34000.0,"2021-12-10 01:29:36.223118","","","","","","",""
13.0,0.06474722176790237,0.001499306701950418,"train",34200.0,"2021-12-10 01:30:02.966286","","","","","","",""
13.0,"","","val",34370.0,"2021-12-10 01:30:54.097276",0.5805404151687348,0.5920194439078781,0.9491710720039193,0.6220563373590662,0.5166733560719696,0.5386271376820863,0.33602282916819604
14.0,0.11290916055440903,0.001499020020446784,"train",34400.0,"2021-12-10 01:31:00.859900","","","","","","",""
14.0,0.04534080997109413,0.0014986838936525482,"train",34600.0,"2021-12-10 01:31:27.777629","","","","","","",""
14.0,0.08253823965787888,0.0014982983437566418,"train",34800.0,"2021-12-10 01:31:55.143658","","","","","","",""
14.0,0.07230986654758453,0.001497863396210591,"train",35000.0,"2021-12-10 01:32:22.426346","","","","","","",""
14.0,0.1259063333272934,0.001497379079726838,"train",35200.0,"2021-12-10 01:32:49.172060","","","","","","",""
14.0,0.06307361274957657,0.0014968454262768453,"train",35400.0,"2021-12-10 01:33:15.561325","","","","","","",""
14.0,0.09796025604009628,0.0014962624710889842,"train",35600.0,"2021-12-10 01:33:42.682288","","","","","","",""
14.0,0.06843750178813934,0.00149563025264621,"train",35800.0,"2021-12-10 01:34:09.415155","","","","","","",""
14.0,0.0480988584458828,0.001494948812683522,"train",36000.0,"2021-12-10 01:34:35.991094","","","","","","",""
14.0,0.06494375318288803,0.0014942181961852077,"train",36200.0,"2021-12-10 01:35:02.716755","","","","","","",""
14.0,0.094047412276268,0.0014934384513818732,"train",36400.0,"2021-12-10 01:35:29.035230","","","","","","",""
14.0,0.09992451220750809,0.0014926096297472604,"train",36600.0,"2021-12-10 01:35:55.716773","","","","","","",""
14.0,0.05832955241203308,0.0014917317859948472,"train",36800.0,"2021-12-10 01:36:22.626984","","","","","","",""
14.0,"","","val",36825.0,"2021-12-10 01:36:54.179488",0.5873825814681666,0.5888056138398283,0.9476677843592026,0.6049208087696852,0.49911245727554526,0.5156625274213591,0.3337049348048462
15.0,0.0734836757183075,0.0014908049780742376,"train",37000.0,"2021-12-10 01:37:20.133919","","","","","","",""
15.0,0.06643534451723099,0.0014898292671673345,"train",37200.0,"2021-12-10 01:37:47.037793","","","","","","",""
15.0,0.07058519870042801,0.0014888047176843024,"train",37400.0,"2021-12-10 01:38:13.570535","","","","","","",""
15.0,0.06835604459047318,0.001487731397259315,"train",37600.0,"2021-12-10 01:38:40.254795","","","","","","",""
15.0,0.07159288972616196,0.001486609376746089,"train",37800.0,"2021-12-10 01:39:06.715310","","","","","","",""
15.0,0.050629355013370514,0.0014854387302132093,"train",38000.0,"2021-12-10 01:39:34.014361","","","","","","",""
15.0,0.0568033903837204,0.0014842195349392372,"train",38200.0,"2021-12-10 01:40:01.201200","","","","","","",""
15.0,0.08478222787380219,0.0014829518714076105,"train",38400.0,"2021-12-10 01:40:27.813764","","","","","","",""
15.0,0.07846491038799286,0.0014816358233013295,"train",38600.0,"2021-12-10 01:40:54.711856","","","","","","",""
15.0,0.08752571791410446,0.0014802714774974338,"train",38800.0,"2021-12-10 01:41:21.557075","","","","","","",""
15.0,0.05414704605937004,0.001478858924061266,"train",39000.0,"2021-12-10 01:41:48.440311","","","","","","",""
15.0,0.06303781270980835,0.0014773982562405268,"train",39200.0,"2021-12-10 01:42:15.165013","","","","","","",""
15.0,"","","val",39280.0,"2021-12-10 01:42:54.586590",0.577641192160501,0.5926798393799323,0.9474529583741158,0.631946666468817,0.540500981000797,0.5515290397028255,0.3455587243736841
16.0,0.04126466065645218,0.0014758895704591205,"train",39400.0,"2021-12-10 01:43:13.690224","","","","","","",""
16.0,0.06091613695025444,0.0014743329663107867,"train",39600.0,"2021-12-10 01:43:40.963728","","","","","","",""
16.0,0.05956333503127098,0.0014727285465525296,"train",39800.0,"2021-12-10 01:44:07.521776","","","","","","",""
16.0,0.0654531717300415,0.001471076417097831,"train",40000.0,"2021-12-10 01:44:34.545027","","","","","","",""
16.0,0.07148337364196777,0.0014693766870096622,"train",40200.0,"2021-12-10 01:45:01.096866","","","","","","",""
16.0,0.07643184065818787,0.0014676294684932804,"train",40400.0,"2021-12-10 01:45:27.753875","","","","","","",""
16.0,0.030626842752099037,0.0014658348768888253,"train",40600.0,"2021-12-10 01:45:54.423327","","","","","","",""
16.0,0.0656290054321289,0.0014639930306637025,"train",40800.0,"2021-12-10 01:46:21.466731","","","","","","",""
16.0,0.08203934133052826,0.0014621040514047642,"train",41000.0,"2021-12-10 01:46:48.011760","","","","","","",""
16.0,0.058341290801763535,0.001460168063810283,"train",41200.0,"2021-12-10 01:47:14.819740","","","","","","",""
16.0,0.05057560279965401,0.0014581851956817194,"train",41400.0,"2021-12-10 01:47:40.476517","","","","","","",""
16.0,0.06690347194671631,0.0014561555779152855,"train",41600.0,"2021-12-10 01:48:07.153450","","","","","","",""
16.0,"","","val",41735.0,"2021-12-10 01:48:52.987018",0.5832077003363099,0.5970560474739576,0.9511594489060387,0.6398618428166796,0.5435690083707212,0.555537198048476,0.35689465633221407
17.0,0.06741749495267868,0.0014540793444933044,"train",41800.0,"2021-12-10 01:49:04.054772","","","","","","",""
17.0,0.053923796862363815,0.0014519566324753647,"train",42000.0,"2021-12-10 01:49:31.777356","","","","","","",""
17.0,0.06572013348340988,0.0014497875819892737,"train",42200.0,"2021-12-10 01:49:58.251421","","","","","","",""
17.0,0.08401866257190704,0.0014475723362218063,"train",42400.0,"2021-12-10 01:50:24.761535","","","","","","",""
17.0,0.07351735234260559,0.0014453110414092535,"train",42600.0,"2021-12-10 01:50:52.022400","","","","","","",""
17.0,0.0323958620429039,0.001443003846827768,"train",42800.0,"2021-12-10 01:51:19.151956","","","","","","",""
17.0,0.08993233740329742,0.00144065090478351,"train",43000.0,"2021-12-10 01:51:46.186912","","","","","","",""
17.0,0.05634097382426262,0.0014382523706025936,"train",43200.0,"2021-12-10 01:52:13.606608","","","","","","",""
17.0,0.058436278253793716,0.0014358084026208332,"train",43400.0,"2021-12-10 01:52:40.856244","","","","","","",""
17.0,0.06785577535629272,0.0014333191621732897,"train",43600.0,"2021-12-10 01:53:07.496572","","","","","","",""
17.0,0.053145766258239746,0.0014307848135836226,"train",43800.0,"2021-12-10 01:53:33.957144","","","","","","",""
17.0,0.07972323149442673,0.0014282055241532398,"train",44000.0,"2021-12-10 01:54:00.487647","","","","","","",""
17.0,"","","val",44190.0,"2021-12-10 01:54:55.141358",0.5888901774324481,0.6062037990500094,0.9514839475784472,0.636385447921744,0.5469030778334589,0.5626184705538706,0.3571479537315341
18.0,0.08614983409643173,0.0014255814641502555,"train",44200.0,"2021-12-10 01:54:59.465438","","","","","","",""
18.0,0.05462321639060974,0.0014229128067982494,"train",44400.0,"2021-12-10 01:55:26.788155","","","","","","",""
18.0,0.05427335575222969,0.001420199728264831,"train",44600.0,"2021-12-10 01:55:54.098069","","","","","","",""
18.0,0.0709230974316597,0.0014174424076500117,"train",44800.0,"2021-12-10 01:56:21.236017","","","","","","",""
18.0,0.07006414979696274,0.0014146410269743799,"train",45000.0,"2021-12-10 01:56:48.202952","","","","","","",""
18.0,0.048059288412332535,0.0014117957711670868,"train",45200.0,"2021-12-10 01:57:14.852093","","","","","","",""
18.0,0.08192580938339233,0.0014089068280536373,"train",45400.0,"2021-12-10 01:57:42.119549","","","","","","",""
18.0,0.06927759200334549,0.0014059743883434919,"train",45600.0,"2021-12-10 01:58:08.707434","","","","","","",""
18.0,0.07658687978982925,0.0014029986456174765,"train",45800.0,"2021-12-10 01:58:35.476450","","","","","","",""
18.0,0.03715839982032776,0.0013999797963150046,"train",46000.0,"2021-12-10 01:59:02.103219","","","","","","",""
18.0,0.09643147140741348,0.001396918039721108,"train",46200.0,"2021-12-10 01:59:28.819737","","","","","","",""
18.0,0.07128031551837921,0.0013938135779532827,"train",46400.0,"2021-12-10 01:59:55.524441","","","","","","",""
18.0,0.05975683033466339,0.001390666615948146,"train",46600.0,"2021-12-10 02:00:22.103978","","","","","","",""
18.0,"","","val",46645.0,"2021-12-10 02:00:56.532926",0.5798446016467587,0.608388149528814,0.95071012497375,0.6249005043150804,0.5413092686015596,0.5561009091433596,0.3528206964425387
19.0,0.05771126598119736,0.001387477361447907,"train",46800.0,"2021-12-10 02:01:20.177605","","","","","","",""
19.0,0.06765121221542358,0.0013842460249866547,"train",47000.0,"2021-12-10 02:01:46.429923","","","","","","",""
19.0,0.03644053637981415,0.0013809728198764574,"train",47200.0,"2021-12-10 02:02:13.669842","","","","","","",""
19.0,0.0652104914188385,0.0013776579621932838,"train",47400.0,"2021-12-10 02:02:39.517023","","","","","","",""
19.0,0.0715029239654541,0.001374301670762737,"train",47600.0,"2021-12-10 02:03:06.721874","","","","","","",""
19.0,0.07019790261983871,0.0013709041671456105,"train",47800.0,"2021-12-10 02:03:32.861163","","","","","","",""
19.0,0.07970058917999268,0.0013674656756232607,"train",48000.0,"2021-12-10 02:03:59.307465","","","","","","",""
19.0,0.05785388872027397,0.001363986423182803,"train",48200.0,"2021-12-10 02:04:25.479049","","","","","","",""
19.0,0.05982965975999832,0.001360466639502126,"train",48400.0,"2021-12-10 02:04:51.939878","","","","","","",""
19.0,0.06669829785823822,0.001356906556934731,"train",48600.0,"2021-12-10 02:05:18.418913","","","","","","",""
19.0,0.06845984607934952,0.0013533064104943918,"train",48800.0,"2021-12-10 02:05:45.366152","","","","","","",""
19.0,0.08673135936260223,0.0013496664378396428,"train",49000.0,"2021-12-10 02:06:12.352384","","","","","","",""
19.0,"","","val",49100.0,"2021-12-10 02:06:53.675366",0.5982256755189609,0.6086544666546542,0.9503527156865458,0.6527507800117173,0.5540405164363369,0.5732416213213674,0.3670756607580405
20.0,0.06467834115028381,0.0013459868792580886,"train",49200.0,"2021-12-10 02:07:09.465288","","","","","","",""
20.0,0.07250916957855225,0.0013422679776505424,"train",49400.0,"2021-12-10 02:07:36.075195","","","","","","",""
20.0,0.04879064857959747,0.0013385099785149911,"train",49600.0,"2021-12-10 02:08:02.674158","","","","","","",""
20.0,0.058309655636548996,0.001334713129930389,"train",49800.0,"2021-12-10 02:08:29.280341","","","","","","",""
20.0,0.06764163076877594,0.0013308776825402822,"train",50000.0,"2021-12-10 02:08:55.566848","","","","","","",""
20.0,0.04739084467291832,0.0013270038895362604,"train",50200.0,"2021-12-10 02:09:21.380564","","","","","","",""
20.0,0.06613679975271225,0.0013230920066412463,"train",50400.0,"2021-12-10 02:09:48.455054","","","","","","",""
20.0,0.051269982010126114,0.0013191422920926102,"train",50600.0,"2021-12-10 02:10:14.932711","","","","","","",""
20.0,0.04414576292037964,0.001315155006625127,"train",50800.0,"2021-12-10 02:10:41.461838","","","","","","",""
20.0,0.06356649100780487,0.0013111304134537614,"train",51000.0,"2021-12-10 02:11:08.500202","","","","","","",""
20.0,0.03414634242653847,0.001307068778256293,"train",51200.0,"2021-12-10 02:11:35.611959","","","","","","",""
20.0,0.05589891970157623,0.0013029703691557776,"train",51400.0,"2021-12-10 02:12:02.370499","","","","","","",""
20.0,"","","val",51555.0,"2021-12-10 02:12:51.074043",0.592659167343152,0.608927342201998,0.9499805994554915,0.6502072490634798,0.5588854545580086,0.5745596866772723,0.3712331022436714
21.0,0.06638216972351074,0.0012988354567028486,"train",51600.0,"2021-12-10 02:13:00.041397","","","","","","",""
21.0,0.030340759083628654,0.0012946643138578558,"train",51800.0,"2021-12-10 02:13:26.545241","","","","","","",""
21.0,0.06501481682062149,0.0012904572159728462,"train",52000.0,"2021-12-10 02:13:53.007588","","","","","","",""
21.0,0.04923461750149727,0.0012862144407733882,"train",52200.0,"2021-12-10 02:14:19.775387","","","","","","",""
21.0,0.04802350327372551,0.0012819362683402368,"train",52400.0,"2021-12-10 02:14:46.883929","","","","","","",""
21.0,0.04016691446304321,0.0012776229810908452,"train",52600.0,"2021-12-10 02:15:13.094502","","","","","","",""
21.0,0.06560564041137695,0.0012732748637607205,"train",52800.0,"2021-12-10 02:15:39.058278","","","","","","",""
21.0,0.034016456454992294,0.001268892203384629,"train",53000.0,"2021-12-10 02:16:06.776488","","","","","","",""
21.0,0.057466309517621994,0.001264475289277646,"train",53200.0,"2021-12-10 02:16:33.262411","","","","","","",""
21.0,0.03859155252575874,0.0012600244130160582,"train",53400.0,"2021-12-10 02:16:59.347488","","","","","","",""
21.0,0.07033943384885788,0.001255539868418116,"train",53600.0,"2021-12-10 02:17:25.743433","","","","","","",""
21.0,0.05349421873688698,0.0012510219515246362,"train",53800.0,"2021-12-10 02:17:52.092578","","","","","","",""
21.0,0.038679711520671844,0.001246470960579461,"train",54000.0,"2021-12-10 02:18:18.554431","","","","","","",""
21.0,"","","val",54010.0,"2021-12-10 02:18:47.878458",0.5901658355560709,0.6127903571101856,0.9516012177377339,0.6607879026836844,0.5649092450720772,0.580733858959529,0.3689626345936455
22.0,0.040240075439214706,0.0012418871960097682,"train",54200.0,"2021-12-10 02:19:15.895978","","","","","","",""
22.0,0.061451613903045654,0.00123727096040624,"train",54400.0,"2021-12-10 02:19:43.313963","","","","","","",""
22.0,0.0718773752450943,0.0012326225585030878,"train",54600.0,"2021-12-10 02:20:10.207241","","","","","","",""
22.0,0.0445711649954319,0.0012279422971579349,"train",54800.0,"2021-12-10 02:20:36.501486","","","","","","",""
22.0,0.03033348359167576,0.001223230485331561,"train",55000.0,"2021-12-10 02:21:02.800789","","","","","","",""
22.0,0.05119714140892029,0.001218487434067505,"train",55200.0,"2021-12-10 02:21:28.585018","","","","","","",""
22.0,0.06918226927518845,0.0012137134564715333,"train",55400.0,"2021-12-10 02:21:54.753216","","","","","","",""
22.0,0.041940562427043915,0.0012089088676909695,"train",55600.0,"2021-12-10 02:22:21.453493","","","","","","",""
22.0,0.052142586559057236,0.0012040739848938917,"train",55800.0,"2021-12-10 02:22:47.440268","","","","","","",""
22.0,0.05561556667089462,0.0011992091272481932,"train",56000.0,"2021-12-10 02:23:14.397954","","","","","","",""
22.0,0.06349679082632065,0.0011943146159005156,"train",56200.0,"2021-12-10 02:23:40.850686","","","","","","",""
22.0,0.05834010988473892,0.001189390773955046,"train",56400.0,"2021-12-10 02:24:07.974147","","","","","","",""
22.0,"","","val",56465.0,"2021-12-10 02:24:45.189839",0.5884263017511306,0.6149180283800366,0.9539687983227237,0.6574944848583951,0.5698839332983693,0.5795515484248658,0.3735618071549021
23.0,0.04617360606789589,0.00118443792645219,"train",56600.0,"2021-12-10 02:25:06.287277","","","","","","",""
23.0,0.03388127684593201,0.0011794564003471128,"train",56800.0,"2021-12-10 02:25:32.552719","","","","","","",""
23.0,0.043454743921756744,0.0011744465244881575,"train",57000.0,"2021-12-10 02:25:58.997238","","","","","","",""
23.0,0.06785916537046432,0.0011694086295951363,"train",57200.0,"2021-12-10 02:26:25.649677","","","","","","",""
23.0,0.05216911807656288,0.0011643430482374958,"train",57400.0,"2021-12-10 02:26:52.068783","","","","","","",""
23.0,0.07299111038446426,0.0011592501148123672,"train",57600.0,"2021-12-10 02:27:18.988910","","","","","","",""
23.0,0.041432105004787445,0.0011541301655224887,"train",57800.0,"2021-12-10 02:27:45.698474","","","","","","",""
23.0,0.05610602721571922,0.001148983538354012,"train",58000.0,"2021-12-10 02:28:13.152695","","","","","","",""
23.0,0.06494715809822083,0.0011438105730541917,"train",58200.0,"2021-12-10 02:28:40.487310","","","","","","",""
23.0,0.042775075882673264,0.0011386116111089552,"train",58400.0,"2021-12-10 02:29:07.033509","","","","","","",""
23.0,0.0511072613298893,0.001133386995720363,"train",58600.0,"2021-12-10 02:29:33.146780","","","","","","",""
23.0,0.0269357617944479,0.00112813707178395,"train",58800.0,"2021-12-10 02:29:59.348941","","","","","","",""
23.0,"","","val",58920.0,"2021-12-10 02:30:43.166273",0.5964861417140206,0.6177580699830804,0.9536717710036466,0.6628476961593982,0.5765121691731098,0.5902737024187092,0.3783742305296922
24.0,0.03423526883125305,0.0011228621858659596,"train",59000.0,"2021-12-10 02:30:56.708000","","","","","","",""
24.0,0.04937271773815155,0.0011175626861804637,"train",59200.0,"2021-12-10 02:31:23.696226","","","","","","",""
24.0,0.07089520990848541,0.001112238922566378,"train",59400.0,"2021-12-10 02:31:51.150211","","","","","","",""
24.0,0.06579001992940903,0.0011068912464643665,"train",59600.0,"2021-12-10 02:32:17.069340","","","","","","",""
24.0,0.05589728429913521,0.0011015200108936416,"train",59800.0,"2021-12-10 02:32:43.515855","","","","","","",""
24.0,0.022078750655055046,0.0010961255704286614,"train",60000.0,"2021-12-10 02:33:10.248723","","","","","","",""
24.0,0.07359001040458679,0.001090708281175721,"train",60200.0,"2021-12-10 02:33:36.855104","","","","","","",""
24.0,0.06823549419641495,0.0010852685007494462,"train",60400.0,"2021-12-10 02:34:04.167875","","","","","","",""
24.0,0.07805705070495605,0.0010798065882491853,"train",60600.0,"2021-12-10 02:34:30.725709","","","","","","",""
24.0,0.050683483481407166,0.001074322904235304,"train",60800.0,"2021-12-10 02:34:57.691520","","","","","","",""
24.0,0.0827503576874733,0.0010688178107053836,"train",61000.0,"2021-12-10 02:35:24.020041","","","","","","",""
24.0,0.07312143594026566,0.001063291671070324,"train",61200.0,"2021-12-10 02:35:50.249772","","","","","","",""
24.0,"","","val",61375.0,"2021-12-10 02:36:42.065429",0.5923692450423287,0.62034856615339,0.9534929490408299,0.6695169817673888,0.5780752669904666,0.5894280090845381,0.3790467449856584
25.0,0.07824619114398956,0.001057744850130353,"train",61400.0,"2021-12-10 02:36:48.107084","","","","","","",""
25.0,0.08853292465209961,0.001052177714050947,"train",61600.0,"2021-12-10 02:37:15.023991","","","","","","",""
25.0,0.09655964374542236,0.0010465906303386552,"train",61800.0,"2021-12-10 02:37:41.620039","","","","","","",""
25.0,0.07250762730836868,0.0010409839678168428,"train",62000.0,"2021-12-10 02:38:07.636734","","","","","","",""
25.0,0.07138001173734665,0.001035358096601342,"train",62200.0,"2021-12-10 02:38:33.323979","","","","","","",""
25.0,0.07077266275882721,0.0010297133880760188,"train",62400.0,"2021-12-10 02:38:59.387992","","","","","","",""
25.0,0.08207198977470398,0.0010240502148682587,"train",62600.0,"2021-12-10 02:39:25.716598","","","","","","",""
25.0,0.0676591619849205,0.0010183689508243652,"train",62800.0,"2021-12-10 02:39:52.094854","","","","","","",""
25.0,0.04674467444419861,0.0010126699709848838,"train",63000.0,"2021-12-10 02:40:19.128645","","","","","","",""
25.0,0.07176947593688965,0.0010069536515598424,"train",63200.0,"2021-12-10 02:40:45.619186","","","","","","",""
25.0,0.10115765035152435,0.001001220369903917,"train",63400.0,"2021-12-10 02:41:11.721901","","","","","","",""
25.0,0.0349978432059288,0.0009954705044915222,"train",63600.0,"2021-12-10 02:41:38.108647","","","","","","",""
25.0,0.09160401672124863,0.000989704434891823,"train",63800.0,"2021-12-10 02:42:04.931252","","","","","","",""
25.0,"","","val",63830.0,"2021-12-10 02:42:37.126235",0.5979937376783022,0.6216439633595479,0.9536642099931452,0.6675523763810337,0.5780087011003335,0.5902533071681731,0.38000448517690233
26.0,0.047453105449676514,0.0009839225417436835,"train",64000.0,"2021-12-10 02:43:02.239866","","","","","","",""
26.0,0.052637550979852676,0.0009781252067305353,"train",64200.0,"2021-12-10 02:43:29.416158","","","","","","",""
26.0,0.0721118152141571,0.0009723128125551829,"train",64400.0,"2021-12-10 02:43:55.809166","","","","","","",""
26.0,0.03222513198852539,0.0009664857429145402,"train",64600.0,"2021-12-10 02:44:22.366591","","","","","","",""
26.0,0.033198755234479904,0.0009606443824743008,"train",64800.0,"2021-12-10 02:44:48.631412","","","","","","",""
26.0,0.05645352229475975,0.0009547891168435451,"train",65000.0,"2021-12-10 02:45:15.895954","","","","","","",""
26.0,0.05533858761191368,0.0009489203325492852,"train",65200.0,"2021-12-10 02:45:42.495353","","","","","","",""
26.0,0.06903024762868881,0.0009430384170109477,"train",65400.0,"2021-12-10 02:46:09.681109","","","","","","",""
26.0,0.04587722569704056,0.0009371437585148002,"train",65600.0,"2021-12-10 02:46:36.193004","","","","","","",""
26.0,0.08334152400493622,0.0009312367461883181,"train",65800.0,"2021-12-10 02:47:02.875386","","","","","","",""
26.0,0.051093295216560364,0.000925317769974498,"train",66000.0,"2021-12-10 02:47:28.923495","","","","","","",""
26.0,0.06899937987327576,0.0009193872206061142,"train",66200.0,"2021-12-10 02:47:54.917132","","","","","","",""
26.0,"","","val",66285.0,"2021-12-10 02:48:34.559022",0.595152499130233,0.6216732488197039,0.9525321708842956,0.6696594510680536,0.5734176156924554,0.5862194341456752,0.37986224338549585
27.0,0.039782725274562836,0.0009134454895799276,"train",66400.0,"2021-12-10 02:48:53.427905","","","","","","",""
27.0,0.03424025699496269,0.0009074929691308395,"train",66600.0,"2021-12-10 02:49:20.886503","","","","","","",""
27.0,0.03524289280176163,0.0009015300522060002,"train",66800.0,"2021-12-10 02:49:48.556821","","","","","","",""
27.0,0.049748972058296204,0.0008955571324388675,"train",67000.0,"2021-12-10 02:50:16.095555","","","","","","",""
27.0,0.0332956425845623,0.0008895746041232234,"train",67200.0,"2021-12-10 02:50:42.687428","","","","","","",""
27.0,0.09728431701660156,0.0008835828621871448,"train",67400.0,"2021-12-10 02:51:08.882784","","","","","","",""
27.0,0.04262436553835869,0.0008775823021669315,"train",67600.0,"2021-12-10 02:51:35.231392","","","","","","",""
27.0,0.06621985882520676,0.0008715733201809978,"train",67800.0,"2021-12-10 02:52:02.081384","","","","","","",""
27.0,0.07100571691989899,0.0008655563129037208,"train",68000.0,"2021-12-10 02:52:29.553174","","","","","","",""
27.0,0.07152225822210312,0.000859531677539257,"train",68200.0,"2021-12-10 02:52:56.306429","","","","","","",""
27.0,0.06253865361213684,0.0008534998117953193,"train",68400.0,"2021-12-10 02:53:22.770507","","","","","","",""
27.0,0.04983160272240639,0.0008474611138569245,"train",68600.0,"2021-12-10 02:53:49.363468","","","","","","",""
27.0,"","","val",68740.0,"2021-12-10 02:54:36.656847",0.5957323437318799,0.6246830542749708,0.9519998510975894,0.676064401151383,0.5935777033872525,0.6011226931849664,0.39252326846451513
28.0,0.036558933556079865,0.000841415982360106,"train",68800.0,"2021-12-10 02:54:47.631907","","","","","","",""
28.0,0.11573231965303421,0.0008353648163656005,"train",69000.0,"2021-12-10 02:55:14.782826","","","","","","",""
28.0,0.03951899707317352,0.0008293080153325024,"train",69200.0,"2021-12-10 02:55:41.585947","","","","","","",""
28.0,0.03538292646408081,0.0008232459790918962,"train",69400.0,"2021-12-10 02:56:08.326909","","","","","","",""
28.0,0.06087952107191086,0.0008171791078204605,"train",69600.0,"2021-12-10 02:56:35.551515","","","","","","",""
28.0,0.0600692480802536,0.0008111078020140515,"train",69800.0,"2021-12-10 02:57:01.906648","","","","","","",""
28.0,0.06789229810237885,0.0008050324624612652,"train",70000.0,"2021-12-10 02:57:28.662592","","","","","","",""
28.0,0.058006979525089264,0.0007989534902169797,"train",70200.0,"2021-12-10 02:57:55.153942","","","","","","",""
28.0,0.050988953560590744,0.0007928712865758792,"train",70400.0,"2021-12-10 02:58:22.351717","","","","","","",""
28.0,0.050677280873060226,0.0007867862530459654,"train",70600.0,"2021-12-10 02:58:48.754154","","","","","","",""
28.0,0.044863712042570114,0.0007806987913220501,"train",70800.0,"2021-12-10 02:59:14.835058","","","","","","",""
28.0,0.04126574099063873,0.0007746093032592391,"train",71000.0,"2021-12-10 02:59:40.665378","","","","","","",""
28.0,"","","val",71195.0,"2021-12-10 03:00:35.221421",0.5837295604777919,0.6236681921158191,0.9528006911168074,0.6736895100916833,0.585919578420534,0.5963301598250601,0.3816590904736209
29.0,0.04264453426003456,0.0007685181908464037,"train",71200.0,"2021-12-10 03:00:38.472578","","","","","","",""
29.0,0.05120454728603363,0.000762425856179645,"train",71400.0,"2021-12-10 03:01:06.319593","","","","","","",""
29.0,0.017926368862390518,0.000756332701435749,"train",71600.0,"2021-12-10 03:01:33.285525","","","","","","",""
29.0,0.06303136795759201,0.0007502391288456378,"train",71800.0,"2021-12-10 03:02:00.057947","","","","","","",""
29.0,0.08001887053251266,0.0007441455406678179,"train",72000.0,"2021-12-10 03:02:26.422849","","","","","","",""
29.0,0.04373767599463463,0.0007380523391618236,"train",72200.0,"2021-12-10 03:02:53.009225","","","","","","",""
29.0,0.03691386058926582,0.0007319599265616642,"train",72400.0,"2021-12-10 03:03:19.486737","","","","","","",""
29.0,0.045830875635147095,0.0007258687050492711,"train",72600.0,"2021-12-10 03:03:45.822526","","","","","","",""
29.0,0.0294093806296587,0.0007197790767279466,"train",72800.0,"2021-12-10 03:04:12.394086","","","","","","",""
29.0,0.03452370688319206,0.0007136914435958214,"train",73000.0,"2021-12-10 03:04:38.640467","","","","","","",""
29.0,0.06137137487530708,0.0007076062075193167,"train",73200.0,"2021-12-10 03:05:04.981822","","","","","","",""
29.0,0.04389391466975212,0.0007015237702066151,"train",73400.0,"2021-12-10 03:05:31.766147","","","","","","",""
29.0,0.03872734680771828,0.0006954445331811431,"train",73600.0,"2021-12-10 03:05:58.264508","","","","","","",""
29.0,"","","val",73650.0,"2021-12-10 03:06:33.289015",0.5924272295024934,0.623682343257075,0.9531479050913509,0.6707912024759285,0.5901808581425111,0.5991681490660464,0.38187996533939833
30.0,0.02697901986539364,0.0006893688977550647,"train",73800.0,"2021-12-10 03:06:56.808797","","","","","","",""
30.0,0.030218109488487244,0.0006832972650027895,"train",74000.0,"2021-12-10 03:07:22.953041","","","","","","",""
30.0,0.03667491301894188,0.0006772300357344963,"train",74200.0,"2021-12-10 03:07:49.837075","","","","","","",""
30.0,0.045089732855558395,0.0006711676104696741,"train",74400.0,"2021-12-10 03:08:15.908703","","","","","","",""
30.0,0.040016353130340576,0.0006651103894106824,"train",74600.0,"2021-12-10 03:08:43.040327","","","","","","",""
30.0,0.04356948658823967,0.0006590587724163328,"train",74800.0,"2021-12-10 03:09:09.394677","","","","","","",""
30.0,0.10298511385917664,0.0006530131589754922,"train",75000.0,"2021-12-10 03:09:36.452650","","","","","","",""
30.0,0.0489933118224144,0.0006469739481807115,"train",75200.0,"2021-12-10 03:10:03.689202","","","","","","",""
30.0,0.044933341443538666,0.0006409415387018804,"train",75400.0,"2021-12-10 03:10:30.942177","","","","","","",""
30.0,0.07017599046230316,0.0006349163287599092,"train",75600.0,"2021-12-10 03:10:57.474956","","","","","","",""
30.0,0.05987975373864174,0.000628898716100441,"train",75800.0,"2021-12-10 03:11:23.571712","","","","","","",""
30.0,0.04118740186095238,0.0006228890979675953,"train",76000.0,"2021-12-10 03:11:50.038452","","","","","","",""
30.0,"","","val",76105.0,"2021-12-10 03:12:32.363161",0.5953264525107271,0.6269634026913918,0.9519040750525266,0.6716823268837803,0.5947135817169841,0.6009041275978124,0.38653751083532134
31.0,0.049432117491960526,0.0006168878710777437,"train",76200.0,"2021-12-10 03:12:48.262217","","","","","","",""
31.0,0.06565230339765549,0.0006108954315933229,"train",76400.0,"2021-12-10 03:13:15.417796","","","","","","",""
31.0,0.03328738361597061,0.0006049121750966806,"train",76600.0,"2021-12-10 03:13:42.088609","","","","","","",""
31.0,0.06977701187133789,0.0005989384965639633,"train",76800.0,"2021-12-10 03:14:08.590507","","","","","","",""
31.0,0.0631655603647232,0.0005929747903390418,"train",77000.0,"2021-12-10 03:14:35.054131","","","","","","",""
31.0,0.027506671845912933,0.0005870214501074786,"train",77200.0,"2021-12-10 03:15:02.146534","","","","","","",""
31.0,0.048927612602710724,0.0005810788688705405,"train",77400.0,"2021-12-10 03:15:29.467531","","","","","","",""
31.0,0.04845128208398819,0.0005751474389192547,"train",77600.0,"2021-12-10 03:15:57.032712","","","","","","",""
31.0,0.0860212966799736,0.0005692275518085118,"train",77800.0,"2021-12-10 03:16:23.786769","","","","","","",""
31.0,0.04608934745192528,0.0005633195983312185,"train",78000.0,"2021-12-10 03:16:50.400996","","","","","","",""
31.0,0.10969893634319305,0.0005574239684924996,"train",78200.0,"2021-12-10 03:17:17.146789","","","","","","",""
31.0,0.05004119873046875,0.0005515410514839526,"train",78400.0,"2021-12-10 03:17:44.170224","","","","","","",""
31.0,"","","val",78560.0,"2021-12-10 03:18:33.802325",0.5945726545285863,0.6214811397735283,0.9505998906781559,0.6659891710928907,0.5866044458964284,0.5962772391472643,0.38074703220169825
32.0,0.0378115177154541,0.0005456712356579555,"train",78600.0,"2021-12-10 03:18:41.953332","","","","","","",""
32.0,0.04253954067826271,0.0005398149085020301,"train",78800.0,"2021-12-10 03:19:08.301694","","","","","","",""
32.0,0.03358890488743782,0.0005339724566132634,"train",79000.0,"2021-12-10 03:19:34.769923","","","","","","",""
32.0,0.06145636737346649,0.0005281442656727864,"train",79200.0,"2021-12-10 03:20:01.888856","","","","","","",""
32.0,0.04719606414437294,0.000522330720420314,"train",79400.0,"2021-12-10 03:20:28.375447","","","","","","",""
32.0,0.04827427119016647,0.000516532204628746,"train",79600.0,"2021-12-10 03:20:55.539886","","","","","","",""
32.0,0.03622215986251831,0.0005107491010788349,"train",79800.0,"2021-12-10 03:21:22.984504","","","","","","",""
32.0,0.08536731451749802,0.0005049817915339154,"train",80000.0,"2021-12-10 03:21:49.688114","","","","","","",""
32.0,0.0668267160654068,0.0004992306567147037,"train",80200.0,"2021-12-10 03:22:15.675485","","","","","","",""
32.0,0.04875824600458145,0.0004934960762741645,"train",80400.0,"2021-12-10 03:22:42.747848","","","","","","",""
32.0,0.030221600085496902,0.0004877784287724489,"train",80600.0,"2021-12-10 03:23:09.576480","","","","","","",""
32.0,0.03203713148832321,0.000482078091651904,"train",80800.0,"2021-12-10 03:23:36.701717","","","","","","",""
32.0,0.03830774128437042,0.0004763954412121571,"train",81000.0,"2021-12-10 03:24:04.030981","","","","","","",""
32.0,"","","val",81015.0,"2021-12-10 03:24:33.810837",0.5937608720862809,0.6299633399294203,0.9533810608500648,0.6727482319423774,0.5936448688209593,0.6026356597290019,0.38696861448894804
33.0,0.03190610185265541,0.00047073085258527374,"train",81200.0,"2021-12-10 03:25:01.302065","","","","","","",""
33.0,0.05241070315241814,0.0004650846997109956,"train",81400.0,"2021-12-10 03:25:28.195403","","","","","","",""
33.0,0.062074363231658936,0.0004594573553120536,"train",81600.0,"2021-12-10 03:25:54.934725","","","","","","",""
33.0,0.03174067661166191,0.00045384919086956466,"train",81800.0,"2021-12-10 03:26:22.489818","","","","","","",""
33.0,0.02653878927230835,0.000448260576598508,"train",82000.0,"2021-12-10 03:26:49.837943","","","","","","",""
33.0,0.037806447595357895,0.0004426918814232857,"train",82200.0,"2021-12-10 03:27:16.577239","","","","","","",""
33.0,0.02995217591524124,0.00043714347295336985,"train",82400.0,"2021-12-10 03:27:43.213205","","","","","","",""
33.0,0.03169136121869087,0.00043161571745903375,"train",82600.0,"2021-12-10 03:28:10.666138","","","","","","",""
33.0,0.05385321006178856,0.00042610897984717526,"train",82800.0,"2021-12-10 03:28:38.335496","","","","","","",""
33.0,0.07689037919044495,0.0004206236236372251,"train",83000.0,"2021-12-10 03:29:04.742849","","","","","","",""
33.0,0.03327714651823044,0.00041516001093715247,"train",83200.0,"2021-12-10 03:29:31.496769","","","","","","",""
33.0,0.03610270097851753,0.0004097185024195596,"train",83400.0,"2021-12-10 03:29:58.339155","","","","","","",""
33.0,"","","val",83470.0,"2021-12-10 03:30:36.098972",0.5937028876261162,0.6287181710306441,0.9511344828214126,0.6722658753661885,0.5930810404192117,0.6023449225036956,0.38676595978125194
34.0,0.02165907807648182,0.00040429945729787193,"train",83600.0,"2021-12-10 03:30:56.739686","","","","","","",""
34.0,0.03821078687906265,0.00039890323330262677,"train",83800.0,"2021-12-10 03:31:23.546453","","","","","","",""
34.0,0.044710222631692886,0.0003935301866578565,"train",84000.0,"2021-12-10 03:31:50.086004","","","","","","",""
34.0,0.037038929760456085,0.0003881806720575737,"train",84200.0,"2021-12-10 03:32:16.838689","","","","","","",""
34.0,0.030716799199581146,0.0003828550426423579,"train",84400.0,"2021-12-10 03:32:43.410325","","","","","","",""
34.0,0.09200083464384079,0.0003775536499760405,"train",84600.0,"2021-12-10 03:33:10.502001","","","","","","",""
34.0,0.028607210144400597,0.0003722768440224998,"train",84800.0,"2021-12-10 03:33:36.237540","","","","","","",""
34.0,0.0320187471807003,0.0003670249731225566,"train",85000.0,"2021-12-10 03:34:03.280567","","","","","","",""
34.0,0.04549334570765495,0.0003617983839709794,"train",85200.0,"2021-12-10 03:34:30.574552","","","","","","",""
34.0,0.04364588484168053,0.0003565974215935992,"train",85400.0,"2021-12-10 03:34:57.381073","","","","","","",""
34.0,0.040258195251226425,0.000351422429324531,"train",85600.0,"2021-12-10 03:35:24.753507","","","","","","",""
34.0,0.061568733304739,0.0003462737487835108,"train",85800.0,"2021-12-10 03:35:50.870767","","","","","","",""
34.0,"","","val",85925.0,"2021-12-10 03:36:35.611203",0.5935869187057868,0.6329973579554399,0.9513962694276528,0.679817944266161,0.5996020382378402,0.6081051344210855,0.3916018639290788
35.0,0.03821662440896034,0.0003411517198533434,"train",86000.0,"2021-12-10 03:36:48.418370","","","","","","",""
35.0,0.04574890062212944,0.00033605668065746463,"train",86200.0,"2021-12-10 03:37:15.310883","","","","","","",""
35.0,0.0713680312037468,0.0003309889675376228,"train",86400.0,"2021-12-10 03:37:41.906330","","","","","","",""
35.0,0.03378735110163689,0.0003259489150316733,"train",86600.0,"2021-12-10 03:38:08.736155","","","","","","",""
35.0,0.022413823753595352,0.00032093685585149554,"train",86800.0,"2021-12-10 03:38:35.505789","","","","","","",""
35.0,0.03698568418622017,0.0003159531208610303,"train",87000.0,"2021-12-10 03:39:03.006219","","","","","","",""
35.0,0.030400266870856285,0.0003109980390544362,"train",87200.0,"2021-12-10 03:39:30.458347","","","","","","",""
35.0,0.05520731583237648,0.00030607193753437407,"train",87400.0,"2021-12-10 03:39:57.623061","","","","","","",""
35.0,0.031635455787181854,0.0003011751414904114,"train",87600.0,"2021-12-10 03:40:24.413105","","","","","","",""
35.0,0.04353500157594681,0.0002963079741775565,"train",87800.0,"2021-12-10 03:40:51.381979","","","","","","",""
35.0,0.07579504698514938,0.0002914707568949201,"train",88000.0,"2021-12-10 03:41:18.152269","","","","","","",""
35.0,0.020566625520586967,0.00028666380896450345,"train",88200.0,"2021-12-10 03:41:44.852619","","","","","","",""
35.0,"","","val",88380.0,"2021-12-10 03:42:37.528728",0.5964861417140206,0.6298664555507845,0.949513168138769,0.6758811202919259,0.6053055753976255,0.6118900238493216,0.39316311348172955
36.0,0.055321820080280304,0.00028188744771012064,"train",88400.0,"2021-12-10 03:42:43.104557","","","","","","",""
36.0,0.02331051230430603,0.00027714198843644864,"train",88600.0,"2021-12-10 03:43:09.503391","","","","","","",""
36.0,0.04155581817030907,0.00027242774440821546,"train",88800.0,"2021-12-10 03:43:35.671371","","","","","","",""
36.0,0.022384021431207657,0.0002677450268295188,"train",89000.0,"2021-12-10 03:44:01.918685","","","","","","",""
36.0,0.07818128168582916,0.00026309414482328256,"train",89200.0,"2021-12-10 03:44:29.105677","","","","","","",""
36.0,0.027011418715119362,0.0002584754054108505,"train",89400.0,"2021-12-10 03:44:56.153707","","","","","","",""
36.0,0.052094005048274994,0.00025388911349171975,"train",89600.0,"2021-12-10 03:45:22.661487","","","","","","",""
36.0,0.04308997839689255,0.0002493355718234114,"train",89800.0,"2021-12-10 03:45:49.743866","","","","","","",""
36.0,0.03733879700303078,0.00024481508100148596,"train",90000.0,"2021-12-10 03:46:17.123853","","","","","","",""
36.0,0.04005865752696991,0.00024032793943969978,"train",90200.0,"2021-12-10 03:46:43.585026","","","","","","",""
36.0,0.028979338705539703,0.00023587444335030442,"train",90400.0,"2021-12-10 03:47:09.994860","","","","","","",""
36.0,0.0339285247027874,0.00023145488672449464,"train",90600.0,"2021-12-10 03:47:36.261790","","","","","","",""
36.0,0.04835209622979164,0.00022706956131299908,"train",90800.0,"2021-12-10 03:48:03.065377","","","","","","",""
36.0,"","","val",90835.0,"2021-12-10 03:48:35.917689",0.5952104835903977,0.6337099401350947,0.9504065569132797,0.6765337084233157,0.6062378345978732,0.6123926783890081,0.39648078166030853
37.0,0.08483119308948517,0.00022271875660682174,"train",91000.0,"2021-12-10 03:49:00.990522","","","","","","",""
37.0,0.07810211181640625,0.00021840275981813173,"train",91200.0,"2021-12-10 03:49:27.934538","","","","","","",""
37.0,0.04291936010122299,0.0002141218558613033,"train",91400.0,"2021-12-10 03:49:54.978829","","","","","","",""
37.0,0.043945904821157455,0.00020987632733410658,"train",91600.0,"2021-12-10 03:50:21.818525","","","","","","",""
37.0,0.04935215413570404,0.00020566645449905424,"train",91800.0,"2021-12-10 03:50:48.606511","","","","","","",""
37.0,0.05460353568196297,0.0002014925152648983,"train",92000.0,"2021-12-10 03:51:14.907421","","","","","","",""
37.0,0.03716449812054634,0.00019735478516828616,"train",92200.0,"2021-12-10 03:51:41.467064","","","","","","",""
37.0,0.07830158621072769,0.00019325353735557017,"train",92400.0,"2021-12-10 03:52:07.717626","","","","","","",""
37.0,0.05332360044121742,0.00018918904256477653,"train",92600.0,"2021-12-10 03:52:33.811613","","","","","","",""
37.0,0.09205715358257294,0.00018516156910773377,"train",92800.0,"2021-12-10 03:53:01.051249","","","","","","",""
37.0,0.05393784120678902,0.00018117138285235926,"train",93000.0,"2021-12-10 03:53:27.737791","","","","","","",""
37.0,0.026357734575867653,0.00017721874720510943,"train",93200.0,"2021-12-10 03:53:54.069058","","","","","","",""
37.0,"","","val",93290.0,"2021-12-10 03:54:34.488659",0.6008349762263714,0.6330463110522712,0.9499756518330529,0.6791996651889315,0.6069748752831925,0.6170220541616444,0.39654871178342876
38.0,0.0452893041074276,0.0001733039230935904,"train",93400.0,"2021-12-10 03:54:51.770477","","","","","","",""
38.0,0.02473323978483677,0.00016942716894933362,"train",93600.0,"2021-12-10 03:55:18.543428","","","","","","",""
38.0,0.06166977062821388,0.0001655887406907366,"train",93800.0,"2021-12-10 03:55:44.878272","","","","","","",""
38.0,0.09242405742406845,0.0001617888917061673,"train",94000.0,"2021-12-10 03:56:10.871142","","","","","","",""
38.0,0.04034717008471489,0.00015802787283723856,"train",94200.0,"2021-12-10 03:56:37.309513","","","","","","",""
38.0,0.019540533423423767,0.00015430593236224853,"train",94400.0,"2021-12-10 03:57:03.443442","","","","","","",""
38.0,0.05356864258646965,0.00015062331597979011,"train",94600.0,"2021-12-10 03:57:30.176723","","","","","","",""
38.0,0.03204801306128502,0.00014698026679253336,"train",94800.0,"2021-12-10 03:57:57.211018","","","","","","",""
38.0,0.08929424732923508,0.00014337702529117565,"train",95000.0,"2021-12-10 03:58:24.052579","","","","","","",""
38.0,0.03961578756570816,0.00013981382933856665,"train",95200.0,"2021-12-10 03:58:50.110371","","","","","","",""
38.0,0.039216298609972,0.00013629091415400698,"train",95400.0,"2021-12-10 03:59:15.637314","","","","","","",""
38.0,0.04293912276625633,0.00013280851229771886,"train",95600.0,"2021-12-10 03:59:42.520599","","","","","","",""
38.0,"","","val",95745.0,"2021-12-10 04:00:29.763932",0.5995013336425837,0.6321977234382449,0.9504156176736708,0.6718253033620885,0.5995413804215874,0.6082943437881887,0.391764901078818
39.0,0.08341241627931595,0.00012936685365549583,"train",95800.0,"2021-12-10 04:00:39.908567","","","","","","",""
39.0,0.0293257012963295,0.00012596616542352558,"train",96000.0,"2021-12-10 04:01:06.385371","","","","","","",""
39.0,0.0174573827534914,0.0001226066720933926,"train",96200.0,"2021-12-10 04:01:33.668982","","","","","","",""
39.0,0.026096438989043236,0.00011928859543725914,"train",96400.0,"2021-12-10 04:02:00.352910","","","","","","",""
39.0,0.042234718799591064,0.00011601215449322434,"train",96600.0,"2021-12-10 04:02:27.105492","","","","","","",""
39.0,0.04887586086988449,0.00011277756555086532,"train",96800.0,"2021-12-10 04:02:54.527452","","","","","","",""
39.0,0.029425522312521935,0.00010958504213695929,"train",97000.0,"2021-12-10 04:03:21.634064","","","","","","",""
39.0,0.04090580716729164,0.00010643479500138695,"train",97200.0,"2021-12-10 04:03:49.051695","","","","","","",""
39.0,0.046878837049007416,0.00010332703210322134,"train",97400.0,"2021-12-10 04:04:16.614565","","","","","","",""
39.0,0.04814599081873894,0.0001002619585969988,"train",97600.0,"2021-12-10 04:04:43.973568","","","","","","",""
39.0,0.04736476019024849,9.723977681917624e-05,"train",97800.0,"2021-12-10 04:05:10.110806","","","","","","",""
39.0,0.03124263882637024,9.426068627477493e-05,"train",98000.0,"2021-12-10 04:05:36.588717","","","","","","",""
39.0,0.043843824416399,9.132488362420897e-05,"train",98200.0,"2021-12-10 04:06:02.545716","","","","","","",""
39.0,"","","val",98200.0,"2021-12-10 04:06:31.074751",0.5990374579612664,0.6320586039225742,0.9489913388944416,0.6784320514566055,0.6040688053188712,0.6107931912314422,0.3926197822139515
40.0,0.019450217485427856,8.84325626703043e-05,"train",98400.0,"2021-12-10 04:07:00.901347","","","","","","",""
40.0,0.047755442559719086,8.558391434550487e-05,"train",98600.0,"2021-12-10 04:07:26.700317","","","","","","",""
40.0,0.026551252231001854,8.27791266992676e-05,"train",98800.0,"2021-12-10 04:07:53.379319","","","","","","",""
40.0,0.030341437086462975,8.001838488565023e-05,"train",99000.0,"2021-12-10 04:08:19.515707","","","","","","",""
40.0,0.038124531507492065,7.730187115108661e-05,"train",99200.0,"2021-12-10 04:08:46.039864","","","","","","",""
40.0,0.07843326777219772,7.462976482235772e-05,"train",99400.0,"2021-12-10 04:09:12.785898","","","","","","",""
40.0,0.07235950976610184,7.200224229475293e-05,"train",99600.0,"2021-12-10 04:09:39.571194","","","","","","",""
40.0,0.09480985999107361,6.941947702042527e-05,"train",99800.0,"2021-12-10 04:10:06.857844","","","","","","",""
40.0,0.04665476456284523,6.688163949694152e-05,"train",100000.0,"2021-12-10 04:10:33.275997","","","","","","",""
40.0,0.015596948564052582,6.438889725602735e-05,"train",100200.0,"2021-12-10 04:10:59.334280","","","","","","",""
40.0,0.05963275954127312,6.194141485250719e-05,"train",100400.0,"2021-12-10 04:11:25.719387","","","","","","",""
40.0,0.0437239445745945,5.953935385344246e-05,"train",100600.0,"2021-12-10 04:11:51.601316","","","","","","",""
40.0,"","","val",100655.0,"2021-12-10 04:12:27.397552",0.5993853647222545,0.6334817847631468,0.9494621034406749,0.6763095395962073,0.6034465415935458,0.6118737931335188,0.3944307633547437
41.0,0.03036225400865078,5.718287282746471e-05,"train",100800.0,"2021-12-10 04:12:50.240916","","","","","","",""
41.0,0.02054598741233349,5.487212733430887e-05,"train",101000.0,"2021-12-10 04:13:17.495158","","","","","","",""
41.0,0.08335743844509125,5.2607269914544044e-05,"train",101200.0,"2021-12-10 04:13:44.627475","","","","","","",""
41.0,0.07862208783626556,5.038845007950302e-05,"train",101400.0,"2021-12-10 04:14:10.778173","","","","","","",""
41.0,0.07987171411514282,4.8215814301413874e-05,"train",101600.0,"2021-12-10 04:14:37.305925","","","","","","",""
41.0,0.04951026663184166,4.608950600372939e-05,"train",101800.0,"2021-12-10 04:15:03.709008","","","","","","",""
41.0,0.05433211475610733,4.40096655516597e-05,"train",102000.0,"2021-12-10 04:15:30.059484","","","","","","",""
41.0,0.0275004543364048,4.197643024290729e-05,"train",102200.0,"2021-12-10 04:15:56.891915","","","","","","",""
41.0,0.06697186082601547,3.9989934298601565e-05,"train",102400.0,"2021-12-10 04:16:24.172560","","","","","","",""
41.0,0.020866001024842262,3.805030885443969e-05,"train",102600.0,"2021-12-10 04:16:50.889592","","","","","","",""
41.0,0.045016657561063766,3.6157681952029975e-05,"train",102800.0,"2021-12-10 04:17:17.474937","","","","","","",""
41.0,0.06329208612442017,3.431217853043853e-05,"train",103000.0,"2021-12-10 04:17:43.801303","","","","","","",""
41.0,"","","val",103110.0,"2021-12-10 04:18:26.887987",0.5984576133596197,0.6312746029681495,0.9485436652833413,0.6733582090309782,0.6023433035126359,0.6097456325192352,0.3935072866624659
42.0,0.030533332377672195,3.2513920417942463e-05,"train",103200.0,"2021-12-10 04:18:41.845239","","","","","","",""
42.0,0.027654634788632393,3.076302632398681e-05,"train",103400.0,"2021-12-10 04:19:08.606307","","","","","","",""
42.0,0.08179379999637604,2.9059611831348644e-05,"train",103600.0,"2021-12-10 04:19:35.270229","","","","","","",""
42.0,0.02976914867758751,2.740378938850708e-05,"train",103800.0,"2021-12-10 04:20:01.623992","","","","","","",""
42.0,0.0372992679476738,2.5795668302219275e-05,"train",104000.0,"2021-12-10 04:20:28.403331","","","","","","",""
42.0,0.04554445669054985,2.4235354730306206e-05,"train",104200.0,"2021-12-10 04:20:54.796900","","","","","","",""
42.0,0.04587291553616524,2.2722951674643225e-05,"train",104400.0,"2021-12-10 04:21:20.984847","","","","","","",""
42.0,0.017133427783846855,2.125855897436154e-05,"train",104600.0,"2021-12-10 04:21:47.820368","","","","","","",""
42.0,0.03996672108769417,1.984227329925749e-05,"train",104800.0,"2021-12-10 04:22:14.052561","","","","","","",""
42.0,0.051865022629499435,1.847418814341028e-05,"train",105000.0,"2021-12-10 04:22:40.657550","","","","","","",""
42.0,0.07368968427181244,1.715439381901068e-05,"train",105200.0,"2021-12-10 04:23:07.068822","","","","","","",""
42.0,0.08536314964294434,1.5882977450399403e-05,"train",105400.0,"2021-12-10 04:23:33.893005","","","","","","",""
42.0,"","","val",105565.0,"2021-12-10 04:24:23.628634",0.5961382349530326,0.63395324671654,0.9495641772916381,0.6832357003450535,0.6129830381007993,0.6203220813008874,0.3988132121421349
43.0,0.029693737626075745,1.4660022968314898e-05,"train",105600.0,"2021-12-10 04:24:31.137836","","","","","","",""
43.0,0.03719506040215492,1.348561110435364e-05,"train",105800.0,"2021-12-10 04:24:59.142137","","","","","","",""
43.0,0.040594492107629776,1.235981938564032e-05,"train",106000.0,"2021-12-10 04:25:25.859131","","","","","","",""
43.0,0.018873952329158783,1.1282722129709892e-05,"train",106200.0,"2021-12-10 04:25:52.290774","","","","","","",""
43.0,0.06966432183980942,1.0254390439602003e-05,"train",106400.0,"2021-12-10 04:26:19.337506","","","","","","",""
43.0,0.05278625711798668,9.274892199166858e-06,"train",106600.0,"2021-12-10 04:26:46.462268","","","","","","",""
43.0,0.02608896978199482,8.344292068584069e-06,"train",106800.0,"2021-12-10 04:27:13.178317","","","","","","",""
43.0,0.0444929338991642,7.462651480094501e-06,"train",107000.0,"2021-12-10 04:27:40.470486","","","","","","",""
43.0,0.026387015357613564,6.630028633944459e-06,"train",107200.0,"2021-12-10 04:28:07.621371","","","","","","",""
43.0,0.0477856807410717,5.846478494543762e-06,"train",107400.0,"2021-12-10 04:28:34.576686","","","","","","",""
43.0,0.02778727561235428,5.11205278683784e-06,"train",107600.0,"2021-12-10 04:29:01.651236","","","","","","",""
43.0,0.06265261024236679,4.426799992892469e-06,"train",107800.0,"2021-12-10 04:29:28.307199","","","","","","",""
43.0,0.04895699769258499,3.7907653486938516e-06,"train",108000.0,"2021-12-10 04:29:55.268947","","","","","","",""
43.0,"","","val",108020.0,"2021-12-10 04:30:26.369442",0.5988055201206077,0.6323466378907145,0.949440080804869,0.6801916323108275,0.6100838766733622,0.616985166644903,0.3972491965176426
44.0,0.0341038852930069,3.203990841162011e-06,"train",108200.0,"2021-12-10 04:30:53.753276","","","","","","",""
44.0,0.02178098075091839,2.6665152053793575e-06,"train",108400.0,"2021-12-10 04:31:20.505704","","","","","","",""
44.0,0.029470963403582573,2.1783739220338257e-06,"train",108600.0,"2021-12-10 04:31:46.946487","","","","","","",""
44.0,0.050951674580574036,1.7395992150760069e-06,"train",108800.0,"2021-12-10 04:32:13.160395","","","","","","",""
44.0,0.011987038888037205,1.3502200495926105e-06,"train",109000.0,"2021-12-10 04:32:39.550313","","","","","","",""
44.0,0.016091158613562584,1.010262129894e-06,"train",109200.0,"2021-12-10 04:33:05.847853","","","","","","",""
44.0,0.026837345212697983,7.197478978176409e-07,"train",109400.0,"2021-12-10 04:33:31.890273","","","","","","",""
44.0,0.039036739617586136,4.786965312462084e-07,"train",109600.0,"2021-12-10 04:33:58.237145","","","","","","",""
44.0,0.06647048145532608,2.8712394284193894e-07,"train",109800.0,"2021-12-10 04:34:24.376634","","","","","","",""
44.0,0.023083878681063652,1.4504277899614018e-07,"train",110000.0,"2021-12-10 04:34:51.780346","","","","","","",""
44.0,0.06606052815914154,5.24624189943631e-08,"train",110200.0,"2021-12-10 04:35:18.157222","","","","","","",""
44.0,0.032558340579271317,9.388974396899663e-09,"train",110400.0,"2021-12-10 04:35:45.293191","","","","","","",""
44.0,"","","val",110475.0,"2021-12-10 04:36:23.522166",0.605009857358228,0.6322069725827112,0.9487413233233359,0.6780628357294995,0.6052391260441404,0.6155081084803898,0.3957215341047743
