"epoch","loss","lr","part","step","time","accuracy","auprc","auroc","challenge_metric","f_beta_measure","f_measure","g_beta_measure"
0.0,0.14782027900218964,6.026421609467902e-05,"train",200.0,"2021-12-10 09:03:23.998458","","","","","","",""
0.0,0.1186026930809021,6.105667046164788e-05,"train",400.0,"2021-12-10 09:03:53.727170","","","","","","",""
0.0,0.11734382808208466,6.237678149202284e-05,"train",600.0,"2021-12-10 09:04:23.382958","","","","","","",""
0.0,0.12796786427497864,6.422358031196794e-05,"train",800.0,"2021-12-10 09:04:53.754641","","","","","","",""
0.0,0.11337079852819443,6.65957114937834e-05,"train",1000.0,"2021-12-10 09:05:23.669143","","","","","","",""
0.0,0.1075030043721199,6.94914340507002e-05,"train",1200.0,"2021-12-10 09:05:53.777737","","","","","","",""
0.0,0.10926572233438492,7.290862271464808e-05,"train",1400.0,"2021-12-10 09:06:23.841606","","","","","","",""
0.0,0.0890628844499588,7.684476949606166e-05,"train",1600.0,"2021-12-10 09:06:53.460512","","","","","","",""
0.0,"","","val",1718.0,"2021-12-10 09:07:38.874449",0.3707526382929375,0.2756960379566529,0.8226105149891093,0.33488182349000484,0.22044031789925786,0.21300468193146266,0.12486002464054252
1.0,0.1139707937836647,8.129698552457776e-05,"train",1800.0,"2021-12-10 09:07:53.736940","","","","","","",""
1.0,0.1274348348379135,8.626200316927488e-05,"train",2000.0,"2021-12-10 09:08:23.409401","","","","","","",""
1.0,0.11056070774793625,9.173617843689767e-05,"train",2200.0,"2021-12-10 09:08:53.374584","","","","","","",""
1.0,0.1342117041349411,9.771549364630434e-05,"train",2400.0,"2021-12-10 09:09:23.429323","","","","","","",""
1.0,0.10015890002250671,0.00010419556037718027,"train",2600.0,"2021-12-10 09:09:53.389393","","","","","","",""
1.0,0.08392627537250519,0.00011117162269084504,"train",2800.0,"2021-12-10 09:10:22.502253","","","","","","",""
1.0,0.13698263466358185,0.00011863856062079622,"train",3000.0,"2021-12-10 09:10:52.262431","","","","","","",""
1.0,0.10378848761320114,0.00012659089393042577,"train",3200.0,"2021-12-10 09:11:21.839158","","","","","","",""
1.0,0.07121088355779648,0.00013502278613514813,"train",3400.0,"2021-12-10 09:11:51.741276","","","","","","",""
1.0,"","","val",3436.0,"2021-12-10 09:12:25.104183",0.4225907456801577,0.350792101535504,0.8684318300136582,0.4210988365385482,0.29022699152935805,0.28113944950045294,0.17530291261850967
2.0,0.0930599793791771,0.0001439280487859939,"train",3600.0,"2021-12-10 09:12:51.945897","","","","","","",""
2.0,0.08605524152517319,0.00015330014601151938,"train",3800.0,"2021-12-10 09:13:21.409663","","","","","","",""
2.0,0.11555168777704239,0.00016313219931470262,"train",4000.0,"2021-12-10 09:13:51.281318","","","","","","",""
2.0,0.09937635809183121,0.00017341699262130353,"train",4200.0,"2021-12-10 09:14:20.864754","","","","","","",""
2.0,0.09715775400400162,0.0001841469775759831,"train",4400.0,"2021-12-10 09:14:50.512741","","","","","","",""
2.0,0.07250835746526718,0.00019531427908229507,"train",4600.0,"2021-12-10 09:15:19.631192","","","","","","",""
2.0,0.13410162925720215,0.00020691070108248334,"train",4800.0,"2021-12-10 09:15:49.558068","","","","","","",""
2.0,0.08656874299049377,0.0002189277325728451,"train",5000.0,"2021-12-10 09:16:18.426458","","","","","","",""
2.0,"","","val",5154.0,"2021-12-10 09:17:08.837852",0.4349414356952337,0.4084021696717735,0.8949401656525277,0.49982754520539213,0.358335949380164,0.35303840779570095,0.21960638944476246
3.0,0.061214569956064224,0.0002313565538502409,"train",5200.0,"2021-12-10 09:17:18.659937","","","","","","",""
3.0,0.09478328377008438,0.00024418804298517315,"train",5400.0,"2021-12-10 09:17:48.959100","","","","","","",""
3.0,0.10412012040615082,0.0002574127825166741,"train",5600.0,"2021-12-10 09:18:18.993137","","","","","","",""
3.0,0.0633770003914833,0.0002710210663640991,"train",5800.0,"2021-12-10 09:18:48.889216","","","","","","",""
3.0,0.08510814607143402,0.00028500290695074424,"train",6000.0,"2021-12-10 09:19:18.463784","","","","","","",""
3.0,0.10424120724201202,0.0002993480425340642,"train",6200.0,"2021-12-10 09:19:48.433962","","","","","","",""
3.0,0.06925562024116516,0.0003140459447371108,"train",6400.0,"2021-12-10 09:20:18.252896","","","","","","",""
3.0,0.09268923103809357,0.0003290858262756614,"train",6600.0,"2021-12-10 09:20:47.985874","","","","","","",""
3.0,0.07954984903335571,0.00034445664887537003,"train",6800.0,"2021-12-10 09:21:17.549612","","","","","","",""
3.0,"","","val",6872.0,"2021-12-10 09:21:56.135217",0.4888089991882176,0.4363135780725513,0.9083013158750817,0.5096143860827819,0.3645657183327736,0.3632855964702027,0.2332415008573639
4.0,0.07096938043832779,0.00036014713137312777,"train",7000.0,"2021-12-10 09:22:18.461927","","","","","","",""
4.0,0.09302346408367157,0.0003761457579966865,"train",7200.0,"2021-12-10 09:22:48.556451","","","","","","",""
4.0,0.0964261144399643,0.0003924407868164722,"train",7400.0,"2021-12-10 09:23:18.180309","","","","","","",""
4.0,0.08731184899806976,0.000409020258363381,"train",7600.0,"2021-12-10 09:23:48.290790","","","","","","",""
4.0,0.06309320032596588,0.000425872004406235,"train",7800.0,"2021-12-10 09:24:18.283717","","","","","","",""
4.0,0.07302127033472061,0.0004429836568824565,"train",8000.0,"2021-12-10 09:24:47.908976","","","","","","",""
4.0,0.07617336511611938,0.0004603426569754047,"train",8200.0,"2021-12-10 09:25:17.970523","","","","","","",""
4.0,0.0893096923828125,0.0004779362643317123,"train",8400.0,"2021-12-10 09:25:48.104000","","","","","","",""
4.0,"","","val",8590.0,"2021-12-10 09:26:44.098745",0.49843441957555373,0.4672516958899219,0.9172370590132476,0.5433663262725833,0.39746582184124457,0.39853921230474754,0.2530391278824525
5.0,0.07091811299324036,0.0004957515664118601,"train",8600.0,"2021-12-10 09:26:48.246307","","","","","","",""
5.0,0.07841446250677109,0.0005137754879671226,"train",8800.0,"2021-12-10 09:27:18.364439","","","","","","",""
5.0,0.09165443480014801,0.0005319948006359329,"train",9000.0,"2021-12-10 09:27:48.150482","","","","","","",""
5.0,0.08490403741598129,0.0005503961326526214,"train",9200.0,"2021-12-10 09:28:17.473094","","","","","","",""
5.0,0.12033404409885406,0.0005689659786614035,"train",9400.0,"2021-12-10 09:28:47.192180","","","","","","",""
5.0,0.06294938921928406,0.0005876907096284148,"train",9600.0,"2021-12-10 09:29:17.207927","","","","","","",""
5.0,0.07694779336452484,0.0006065565828445164,"train",9800.0,"2021-12-10 09:29:46.735869","","","","","","",""
5.0,0.09504672139883041,0.0006255497520115308,"train",10000.0,"2021-12-10 09:30:16.105869","","","","","","",""
5.0,0.11304771900177002,0.0006446562774045057,"train",10200.0,"2021-12-10 09:30:45.401829","","","","","","",""
5.0,"","","val",10308.0,"2021-12-10 09:31:29.414810",0.5091035602458541,0.4922041060028419,0.9231433902946166,0.5488682258909429,0.423101341919255,0.4322372961344291,0.2691510683478799
6.0,0.0724068284034729,0.0006638621361025459,"train",10400.0,"2021-12-10 09:31:45.644302","","","","","","",""
6.0,0.07263556122779846,0.0006831532322807064,"train",10600.0,"2021-12-10 09:32:15.296719","","","","","","",""
6.0,0.0689622163772583,0.0007025154075553922,"train",10800.0,"2021-12-10 09:32:45.369138","","","","","","",""
6.0,0.08126558363437653,0.0007219344513756711,"train",11000.0,"2021-12-10 09:33:15.351423","","","","","","",""
6.0,0.07497847080230713,0.0007413961114528749,"train",11200.0,"2021-12-10 09:33:45.197160","","","","","","",""
6.0,0.09010343998670578,0.0007608861042208324,"train",11400.0,"2021-12-10 09:34:14.821688","","","","","","",""
6.0,0.0993669182062149,0.0007803901253190589,"train",11600.0,"2021-12-10 09:34:44.320042","","","","","","",""
6.0,0.09344187378883362,0.0007998938600912068,"train",11800.0,"2021-12-10 09:35:14.131427","","","","","","",""
6.0,0.1082228273153305,0.0008193829940910735,"train",12000.0,"2021-12-10 09:35:43.905803","","","","","","",""
6.0,"","","val",12026.0,"2021-12-10 09:36:15.830319",0.5309057172677722,0.5166642422301616,0.929898188444224,0.5625550491223149,0.4401434629679822,0.44827021531199657,0.28732580505338556
7.0,0.05532534793019295,0.0008388432235884521,"train",12200.0,"2021-12-10 09:36:44.967264","","","","","","",""
7.0,0.08573146164417267,0.0008582602660671233,"train",12400.0,"2021-12-10 09:37:15.242427","","","","","","",""
7.0,0.0755520612001419,0.0008776198707072697,"train",12600.0,"2021-12-10 09:37:45.516497","","","","","","",""
7.0,0.09227017313241959,0.0008969078288446347,"train",12800.0,"2021-12-10 09:38:15.786990","","","","","","",""
7.0,0.07060705870389938,0.0009161099843987365,"train",13000.0,"2021-12-10 09:38:46.099334","","","","","","",""
7.0,0.09496574103832245,0.0009352122442624919,"train",13200.0,"2021-12-10 09:39:15.895356","","","","","","",""
7.0,0.08081939071416855,0.0009542005886456214,"train",13400.0,"2021-12-10 09:39:45.155484","","","","","","",""
7.0,0.07923633605241776,0.0009730610813642429,"train",13600.0,"2021-12-10 09:40:15.133402","","","","","","",""
7.0,"","","val",13744.0,"2021-12-10 09:41:04.325178",0.5499826046619506,0.522332249979332,0.9330195183035362,0.5749131806186024,0.4313964800176792,0.44088953155203536,0.2861393724253098
8.0,0.10603749006986618,0.0009917798800691076,"train",13800.0,"2021-12-10 09:41:15.350897","","","","","","",""
8.0,0.09461803734302521,0.0010103432464049623,"train",14000.0,"2021-12-10 09:41:45.547383","","","","","","",""
8.0,0.0759865865111351,0.0010287375560935927,"train",14200.0,"2021-12-10 09:42:15.476173","","","","","","",""
8.0,0.07370653003454208,0.0010469493089331364,"train",14400.0,"2021-12-10 09:42:44.628906","","","","","","",""
8.0,0.07441689074039459,0.0010649651387063372,"train",14600.0,"2021-12-10 09:43:14.745174","","","","","","",""
8.0,0.07880011200904846,0.001082771822990458,"train",14800.0,"2021-12-10 09:43:45.065255","","","","","","",""
8.0,0.11357272416353226,0.001100356292861664,"train",15000.0,"2021-12-10 09:44:15.043370","","","","","","",""
8.0,0.07636105269193649,0.0011177056424867425,"train",15200.0,"2021-12-10 09:44:45.043942","","","","","","",""
8.0,0.06598736345767975,0.00113480713859513,"train",15400.0,"2021-12-10 09:45:14.543109","","","","","","",""
8.0,"","","val",15462.0,"2021-12-10 09:45:51.180389",0.537921836947698,0.5404727531323639,0.9350421068902547,0.5882247455478893,0.4624300453277529,0.46928788385862685,0.30019170928868205
9.0,0.0869186669588089,0.0011516482298242843,"train",15600.0,"2021-12-10 09:46:14.811192","","","","","","",""
9.0,0.051300495862960815,0.0011682165559315535,"train",15800.0,"2021-12-10 09:46:45.388827","","","","","","",""
9.0,0.09896770119667053,0.0011844999568657727,"train",16000.0,"2021-12-10 09:47:15.783207","","","","","","",""
9.0,0.07042081654071808,0.001200486481691934,"train",16200.0,"2021-12-10 09:47:45.789146","","","","","","",""
9.0,0.048770103603601456,0.0012161643973623783,"train",16400.0,"2021-12-10 09:48:16.029200","","","","","","",""
9.0,0.052224114537239075,0.0012315221973280745,"train",16600.0,"2021-12-10 09:48:46.368715","","","","","","",""
9.0,0.07961270213127136,0.0012465486099836635,"train",16800.0,"2021-12-10 09:49:16.551464","","","","","","",""
9.0,0.09543536603450775,0.0012612326069400632,"train",17000.0,"2021-12-10 09:49:46.728979","","","","","","",""
9.0,"","","val",17180.0,"2021-12-10 09:50:41.228138",0.5586222892264873,0.5501862954744673,0.936545374435274,0.5951347356721357,0.47103026200131176,0.48314112811352666,0.304792354503928
10.0,0.07379349321126938,0.0012755634111185801,"train",17200.0,"2021-12-10 09:50:46.815038","","","","","","",""
10.0,0.05643909052014351,0.0012895305046605645,"train",17400.0,"2021-12-10 09:51:17.703171","","","","","","",""
10.0,0.061552926898002625,0.0013031236366468231,"train",17600.0,"2021-12-10 09:51:47.857346","","","","","","",""
10.0,0.06496372818946838,0.0013163328306211122,"train",17800.0,"2021-12-10 09:52:17.847916","","","","","","",""
10.0,0.06571952998638153,0.0013291483919121929,"train",18000.0,"2021-12-10 09:52:48.437208","","","","","","",""
10.0,0.06271074712276459,0.0013415609147490782,"train",18200.0,"2021-12-10 09:53:19.057358","","","","","","",""
10.0,0.08206379413604736,0.0013535612891642428,"train",18400.0,"2021-12-10 09:53:48.837116","","","","","","",""
10.0,0.0660233125090599,0.001365140707679735,"train",18600.0,"2021-12-10 09:54:18.885672","","","","","","",""
10.0,0.04304493963718414,0.0013762906717712802,"train",18800.0,"2021-12-10 09:54:49.221344","","","","","","",""
10.0,"","","val",18898.0,"2021-12-10 09:55:32.062631",0.5632610460396613,0.5615445547163459,0.9408661468158191,0.6032621145553745,0.48508563123433357,0.4901684463132176,0.3172562472301491
11.0,0.06264771521091461,0.0013870029981056335,"train",19000.0,"2021-12-10 09:55:50.407399","","","","","","",""
11.0,0.06492289155721664,0.0013972698245466038,"train",19200.0,"2021-12-10 09:56:20.580186","","","","","","",""
11.0,0.07387159764766693,0.001407083615925338,"train",19400.0,"2021-12-10 09:56:51.039422","","","","","","",""
11.0,0.07607456296682358,0.001416437169570636,"train",19600.0,"2021-12-10 09:57:21.961219","","","","","","",""
11.0,0.08804723620414734,0.0014253236205952324,"train",19800.0,"2021-12-10 09:57:51.976950","","","","","","",""
11.0,0.10148393362760544,0.0014337364469341678,"train",20000.0,"2021-12-10 09:58:21.985948","","","","","","",""
11.0,0.08575098216533661,0.0014416694741315524,"train",20200.0,"2021-12-10 09:58:52.172703","","","","","","",""
11.0,0.07426811009645462,0.0014491168798722053,"train",20400.0,"2021-12-10 09:59:22.919605","","","","","","",""
11.0,0.03968479856848717,0.0014560731982548479,"train",20600.0,"2021-12-10 09:59:52.516951","","","","","","",""
11.0,"","","val",20616.0,"2021-12-10 10:00:22.557627",0.5614055433143917,0.5570997258709289,0.9392069648839456,0.5812971042389782,0.4619084203519544,0.4767403099044524,0.3010887379658659
12.0,0.07177572697401047,0.0014625333238037124,"train",20800.0,"2021-12-10 10:00:53.098740","","","","","","",""
12.0,0.03787245228886604,0.001468492515215622,"train",21000.0,"2021-12-10 10:01:23.400533","","","","","","",""
12.0,0.04508386179804802,0.0014739463988397922,"train",21200.0,"2021-12-10 10:01:53.268954","","","","","","",""
12.0,0.054221563041210175,0.0014788909718878012,"train",21400.0,"2021-12-10 10:02:23.687769","","","","","","",""
12.0,0.07695328444242477,0.0014833226053713696,"train",21600.0,"2021-12-10 10:02:53.985058","","","","","","",""
12.0,0.08396992087364197,0.0014872380467657968,"train",21800.0,"2021-12-10 10:03:24.684705","","","","","","",""
12.0,0.10948747396469116,0.0014906344223970993,"train",22000.0,"2021-12-10 10:03:55.088778","","","","","","",""
12.0,0.10777267813682556,0.0014935092395510952,"train",22200.0,"2021-12-10 10:04:25.359331","","","","","","",""
12.0,"","","val",22334.0,"2021-12-10 10:05:12.941473",0.5804244462484054,0.5695391705181791,0.9412901036799176,0.6153051872257908,0.49398413446508116,0.504184985201076,0.33057022624732796
13.0,0.06220299005508423,0.0014958603883028921,"train",22400.0,"2021-12-10 10:05:26.140881","","","","","","",""
13.0,0.06874164938926697,0.001497686143065431,"train",22600.0,"2021-12-10 10:05:56.834425","","","","","","",""
13.0,0.09482158720493317,0.001498985163855953,"train",22800.0,"2021-12-10 10:06:27.302745","","","","","","",""
13.0,0.06378765404224396,0.001499756497279458,"train",23000.0,"2021-12-10 10:06:58.112467","","","","","","",""
13.0,0.06373605132102966,0.0014999999191198747,"train",23200.0,"2021-12-10 10:07:28.680963","","","","","","",""
13.0,0.07248418033123016,0.0014999453256985958,"train",23400.0,"2021-12-10 10:07:59.237691","","","","","","",""
13.0,0.05968673154711723,0.0014997896406245873,"train",23600.0,"2021-12-10 10:08:29.768131","","","","","","",""
13.0,0.08355175703763962,0.0014995328848840784,"train",23800.0,"2021-12-10 10:08:59.706135","","","","","","",""
13.0,0.054768167436122894,0.0014991750930875472,"train",24000.0,"2021-12-10 10:09:29.308690","","","","","","",""
13.0,"","","val",24052.0,"2021-12-10 10:10:05.276297",0.5847152963005915,0.5755438225255458,0.9431430704876106,0.6210260270167336,0.5058900368932593,0.5186830376884966,0.33819614897354333
14.0,0.07134125381708145,0.0014987163134650538,"train",24200.0,"2021-12-10 10:10:30.954758","","","","","","",""
14.0,0.052009642124176025,0.0014981566078597415,"train",24400.0,"2021-12-10 10:11:00.210111","","","","","","",""
14.0,0.05862201750278473,0.0014974960517194985,"train",24600.0,"2021-12-10 10:11:29.361730","","","","","","",""
14.0,0.07552735507488251,0.0014967347340867874,"train",24800.0,"2021-12-10 10:11:58.892144","","","","","","",""
14.0,0.06005936488509178,0.0014958727575866441,"train",25000.0,"2021-12-10 10:12:28.592051","","","","","","",""
14.0,0.05686436966061592,0.0014949102384128425,"train",25200.0,"2021-12-10 10:12:58.281485","","","","","","",""
14.0,0.05323211848735809,0.0014938473063122318,"train",25400.0,"2021-12-10 10:13:28.556865","","","","","","",""
14.0,0.04717810079455376,0.0014926841045672479,"train",25600.0,"2021-12-10 10:13:58.548090","","","","","","",""
14.0,"","","val",25770.0,"2021-12-10 10:14:51.471824",0.5770033630986896,0.5847698167359563,0.9435746758823924,0.636692175967242,0.5272642806212334,0.5378851619520532,0.3495571444806029
15.0,0.09026438742876053,0.0014914207899765968,"train",25800.0,"2021-12-10 10:14:58.793931","","","","","","",""
15.0,0.08077995479106903,0.001490057532834121,"train",26000.0,"2021-12-10 10:15:29.538060","","","","","","",""
15.0,0.08449883759021759,0.001488594516905842,"train",26200.0,"2021-12-10 10:15:59.481825","","","","","","",""
15.0,0.08378922194242477,0.0014870319394051893,"train",26400.0,"2021-12-10 10:16:29.486554","","","","","","",""
15.0,0.046591565012931824,0.001485370010966417,"train",26600.0,"2021-12-10 10:16:59.957788","","","","","","",""
15.0,0.05579120293259621,0.0014836089556162092,"train",26800.0,"2021-12-10 10:17:28.790421","","","","","","",""
15.0,0.08251739293336868,0.001481749010743482,"train",27000.0,"2021-12-10 10:17:58.880804","","","","","","",""
15.0,0.038264840841293335,0.0014797904270673836,"train",27200.0,"2021-12-10 10:18:29.460847","","","","","","",""
15.0,0.09455358237028122,0.0014777334686034978,"train",27400.0,"2021-12-10 10:18:59.730018","","","","","","",""
15.0,"","","val",27488.0,"2021-12-10 10:19:40.435107",0.5833236692566393,0.5947289017670747,0.9466006017876503,0.6346207144527317,0.5246429643858066,0.5358218994087109,0.3483818266003799
16.0,0.09669505059719086,0.0014755784126282542,"train",27600.0,"2021-12-10 10:20:00.744897","","","","","","",""
16.0,0.057846128940582275,0.001473325549641553,"train",27800.0,"2021-12-10 10:20:30.493319","","","","","","",""
16.0,0.05874885618686676,0.0014709751833276033,"train",28000.0,"2021-12-10 10:21:01.180225","","","","","","",""
16.0,0.06609128415584564,0.00146852763051399,"train",28200.0,"2021-12-10 10:21:31.779084","","","","","","",""
16.0,0.051112040877342224,0.0014659832211289625,"train",28400.0,"2021-12-10 10:22:01.173300","","","","","","",""
16.0,0.08056436479091644,0.0014633422981569625,"train",28600.0,"2021-12-10 10:22:31.114682","","","","","","",""
16.0,0.09304498136043549,0.0014606052175923899,"train",28800.0,"2021-12-10 10:23:01.286251","","","","","","",""
16.0,0.05150771513581276,0.0014577723483916141,"train",29000.0,"2021-12-10 10:23:31.399021","","","","","","",""
16.0,0.07027159631252289,0.00145484407242324,"train",29200.0,"2021-12-10 10:24:01.633246","","","","","","",""
16.0,"","","val",29206.0,"2021-12-10 10:24:30.018885",0.5805404151687348,0.577746712807379,0.9418111620087669,0.6220390014070875,0.5193333323536743,0.525069904112676,0.3436200356076307
17.0,0.06664526462554932,0.0014518207844166314,"train",29400.0,"2021-12-10 10:25:01.762970","","","","","","",""
17.0,0.060378070920705795,0.0014487028919087028,"train",29600.0,"2021-12-10 10:25:31.789617","","","","","","",""
17.0,0.06545194238424301,0.0014454908151889825,"train",29800.0,"2021-12-10 10:26:01.980192","","","","","","",""
17.0,0.02968084253370762,0.0014421849872429597,"train",30000.0,"2021-12-10 10:26:32.157805","","","","","","",""
17.0,0.07983114570379257,0.001438785853693716,"train",30200.0,"2021-12-10 10:27:02.885051","","","","","","",""
17.0,0.0804872140288353,0.0014352938727418582,"train",30400.0,"2021-12-10 10:27:32.802818","","","","","","",""
17.0,0.08062098920345306,0.0014317095151037513,"train",30600.0,"2021-12-10 10:28:02.747345","","","","","","",""
17.0,0.08352018147706985,0.0014280332639480676,"train",30800.0,"2021-12-10 10:28:32.749628","","","","","","",""
17.0,"","","val",30924.0,"2021-12-10 10:29:19.231821",0.5843673895396034,0.5909674574392916,0.9458691100542196,0.6274131845405543,0.5275167383765508,0.5426258029221043,0.34654133476535515
18.0,0.04158434644341469,0.0014242656148306548,"train",31000.0,"2021-12-10 10:29:33.873544","","","","","","",""
18.0,0.05897742137312889,0.0014204070756277368,"train",31200.0,"2021-12-10 10:30:03.876068","","","","","","",""
18.0,0.09305831044912338,0.0014164581664674505,"train",31400.0,"2021-12-10 10:30:33.948231","","","","","","",""
18.0,0.06056096777319908,0.0014124194196597352,"train",31600.0,"2021-12-10 10:31:03.957358","","","","","","",""
18.0,0.06592540442943573,0.0014082913796245762,"train",31800.0,"2021-12-10 10:31:33.729141","","","","","","",""
18.0,0.0619746632874012,0.0014040746028186166,"train",32000.0,"2021-12-10 10:32:03.526281","","","","","","",""
18.0,0.038015373051166534,0.00139976965766015,"train",32200.0,"2021-12-10 10:32:33.206373","","","","","","",""
18.0,0.08821796625852585,0.0013953771244524953,"train",32400.0,"2021-12-10 10:33:03.840004","","","","","","",""
18.0,0.09277068823575974,0.0013908975953057744,"train",32600.0,"2021-12-10 10:33:34.541429","","","","","","",""
18.0,"","","val",32642.0,"2021-12-10 10:34:08.594770",0.5930650585643048,0.6043453439748763,0.9467173126244666,0.6442287002784819,0.5426779624890193,0.5532582617720044,0.35849499815152736
19.0,0.043417785316705704,0.001386331674057095,"train",32800.0,"2021-12-10 10:34:35.498087","","","","","","",""
19.0,0.0573376789689064,0.0013816799761891538,"train",33000.0,"2021-12-10 10:35:05.495217","","","","","","",""
19.0,0.05030170455574989,0.001376943128747271,"train",33200.0,"2021-12-10 10:35:35.429873","","","","","","",""
19.0,0.04782819747924805,0.0013721217702548636,"train",33400.0,"2021-12-10 10:36:05.047263","","","","","","",""
19.0,0.04503804072737694,0.0013672165506273743,"train",33600.0,"2021-12-10 10:36:35.458016","","","","","","",""
19.0,0.054709549993276596,0.0013622281310846627,"train",33800.0,"2021-12-10 10:37:05.534874","","","","","","",""
19.0,0.08993998914957047,0.0013571571840618728,"train",34000.0,"2021-12-10 10:37:34.786966","","","","","","",""
19.0,0.05767763406038284,0.0013520043931187903,"train",34200.0,"2021-12-10 10:38:05.388529","","","","","","",""
19.0,"","","val",34360.0,"2021-12-10 10:38:57.055425",0.5914994781398585,0.606500754649318,0.9482100402891441,0.6434986719531269,0.5511002536839452,0.5569681164598643,0.36323643078221574
20.0,0.03788580745458603,0.0013467704528476992,"train",34400.0,"2021-12-10 10:39:06.023212","","","","","","",""
20.0,0.055434711277484894,0.0013414560687797503,"train",34600.0,"2021-12-10 10:39:35.592934","","","","","","",""
20.0,0.051054637879133224,0.001336061957289857,"train",34800.0,"2021-12-10 10:40:05.746183","","","","","","",""
20.0,0.06651569902896881,0.0013305888455001282,"train",35000.0,"2021-12-10 10:40:35.988677","","","","","","",""
20.0,0.03978367894887924,0.0013250374711818538,"train",35200.0,"2021-12-10 10:41:06.089370","","","","","","",""
20.0,0.08984147757291794,0.0013194085826560512,"train",35400.0,"2021-12-10 10:41:36.463064","","","","","","",""
20.0,0.07436921447515488,0.0013137029386925947,"train",35600.0,"2021-12-10 10:42:06.754194","","","","","","",""
20.0,0.07228682935237885,0.0013079213084079334,"train",35800.0,"2021-12-10 10:42:36.956860","","","","","","",""
20.0,0.045705489814281464,0.001302064471161413,"train",36000.0,"2021-12-10 10:43:06.743057","","","","","","",""
20.0,"","","val",36078.0,"2021-12-10 10:43:46.035429",0.5894120375739302,0.5961985120888158,0.9467571331438533,0.6466285028409423,0.550444845534043,0.5575460184371884,0.36246036528880116
21.0,0.05164666473865509,0.0012961332164502218,"train",36200.0,"2021-12-10 10:44:07.406912","","","","","","",""
21.0,0.05190383642911911,0.0012901283438029646,"train",36400.0,"2021-12-10 10:44:37.580909","","","","","","",""
21.0,0.03626696392893791,0.0012840506626718878,"train",36600.0,"2021-12-10 10:45:07.394754","","","","","","",""
21.0,0.03784192353487015,0.0012779009923237663,"train",36800.0,"2021-12-10 10:45:36.838255","","","","","","",""
21.0,0.07083398103713989,0.0012716801617294663,"train",37000.0,"2021-12-10 10:46:06.930278","","","","","","",""
21.0,0.06698215007781982,0.0012653890094522003,"train",37200.0,"2021-12-10 10:46:37.113600","","","","","","",""
21.0,0.06935731321573257,0.0012590283835344906,"train",37400.0,"2021-12-10 10:47:07.378810","","","","","","",""
21.0,0.04387708380818367,0.0012525991413838526,"train",37600.0,"2021-12-10 10:47:38.037898","","","","","","",""
21.0,"","","val",37796.0,"2021-12-10 10:48:34.570337",0.5909196335382118,0.6050929339013047,0.9461628246793612,0.6671782357892133,0.5616913911302939,0.5680653218813831,0.3729407115350286
22.0,0.05607466399669647,0.0012461021496572183,"train",37800.0,"2021-12-10 10:48:37.880170","","","","","","",""
22.0,0.07447407394647598,0.0012395382841441098,"train",38000.0,"2021-12-10 10:49:08.853285","","","","","","",""
22.0,0.04221339523792267,0.0012329084296485856,"train",38200.0,"2021-12-10 10:49:39.454684","","","","","","",""
22.0,0.0762142464518547,0.0012262134798699676,"train",38400.0,"2021-12-10 10:50:10.123093","","","","","","",""
22.0,0.0389307476580143,0.001219454337282373,"train",38600.0,"2021-12-10 10:50:40.617462","","","","","","",""
22.0,0.09404749423265457,0.0012126319130130602,"train",38800.0,"2021-12-10 10:51:10.833165","","","","","","",""
22.0,0.07399917393922806,0.0012057471267196097,"train",39000.0,"2021-12-10 10:51:41.023490","","","","","","",""
22.0,0.05876303091645241,0.001198800906465956,"train",39200.0,"2021-12-10 10:52:11.115724","","","","","","",""
22.0,0.06437139958143234,0.0011917941885972838,"train",39400.0,"2021-12-10 10:55:07.920024","","","","","","",""
22.0,"","","val",39514.0,"2021-12-10 10:55:52.671189",0.600719007306042,0.6007523446770221,0.9465716716314497,0.649024315532119,0.5481724468743056,0.5648534070491682,0.36652179902107285
23.0,0.05951233208179474,0.00118472791761381,"train",39600.0,"2021-12-10 10:56:08.859583","","","","","","",""
23.0,0.03876643627882004,0.0011776030460434672,"train",39800.0,"2021-12-10 10:56:39.088947","","","","","","",""
23.0,0.049386121332645416,0.0011704205343135005,"train",40000.0,"2021-12-10 10:57:08.985613","","","","","","",""
23.0,0.052843380719423294,0.0011631813506210059,"train",40200.0,"2021-12-10 10:57:39.446520","","","","","","",""
23.0,0.04619278386235237,0.0011558864708024158,"train",40400.0,"2021-12-10 10:58:10.025102","","","","","","",""
23.0,0.05970187857747078,0.0011485368782019586,"train",40600.0,"2021-12-10 10:58:40.039775","","","","","","",""
23.0,0.035942208021879196,0.0011411335635391033,"train",40800.0,"2021-12-10 10:59:10.211541","","","","","","",""
23.0,0.07134240120649338,0.0011336775247750121,"train",41000.0,"2021-12-10 10:59:40.742353","","","","","","",""
23.0,0.057330526411533356,0.001126169766978016,"train",41200.0,"2021-12-10 11:00:10.530623","","","","","","",""
23.0,"","","val",41232.0,"2021-12-10 11:00:43.265372",0.5963701727936913,0.6055990260068094,0.947732024438558,0.6494111219074007,0.5570556201657667,0.567932073612285,0.36689487397146997
24.0,0.04851603880524635,0.0011186113021881318,"train",41400.0,"2021-12-10 11:01:11.831302","","","","","","",""
24.0,0.048574067652225494,0.0011110031492806399,"train",41600.0,"2021-12-10 11:01:42.120302","","","","","","",""
24.0,0.042654626071453094,0.0011033463338287423,"train",41800.0,"2021-12-10 11:02:11.829206","","","","","","",""
24.0,0.08450404554605484,0.0010956418879653133,"train",42000.0,"2021-12-10 11:02:41.907153","","","","","","",""
24.0,0.07400599122047424,0.0010878908502437712,"train",42200.0,"2021-12-10 11:03:12.560894","","","","","","",""
24.0,0.04996265843510628,0.0010800942654980807,"train",42400.0,"2021-12-10 11:03:42.943828","","","","","","",""
24.0,0.08406666666269302,0.0010722531847019115,"train",42600.0,"2021-12-10 11:04:12.748207","","","","","","",""
24.0,0.03771476820111275,0.0010643686648269654,"train",42800.0,"2021-12-10 11:04:43.226482","","","","","","",""
24.0,"","","val",42950.0,"2021-12-10 11:05:34.042890",0.6039081526150991,0.6179666543320133,0.9481888879894348,0.6597158941444975,0.5663097602612143,0.5772626480352243,0.37900629957434057
25.0,0.07337982207536697,0.0010564417687005001,"train",43000.0,"2021-12-10 11:05:44.863137","","","","","","",""
25.0,0.03720303252339363,0.0010484735648620589,"train",43200.0,"2021-12-10 11:06:15.123076","","","","","","",""
25.0,0.04223894700407982,0.0010404651274194341,"train",43400.0,"2021-12-10 11:06:45.868315","","","","","","",""
25.0,0.08196151256561279,0.001032417535903876,"train",43600.0,"2021-12-10 11:07:16.379534","","","","","","",""
25.0,0.058508630841970444,0.0010243318751245742,"train",43800.0,"2021-12-10 11:07:46.921125","","","","","","",""
25.0,0.09837562590837479,0.0010162092350224268,"train",44000.0,"2021-12-10 11:08:17.017991","","","","","","",""
25.0,0.037272859364748,0.0010080507105231155,"train",44200.0,"2021-12-10 11:08:46.923881","","","","","","",""
25.0,0.05566946044564247,0.000999857401389512,"train",44400.0,"2021-12-10 11:09:17.357576","","","","","","",""
25.0,0.048253383487463,0.0009916304120734293,"train",44600.0,"2021-12-10 11:09:47.599137","","","","","","",""
25.0,"","","val",44668.0,"2021-12-10 11:10:25.705847",0.5968920329351733,0.6127436519074533,0.9472514938981834,0.6644653259643459,0.5646039662577401,0.5740268727122769,0.3759936800106415
26.0,0.06198969483375549,0.000983370851566744,"train",44800.0,"2021-12-10 11:10:49.064603","","","","","","",""
26.0,0.04466385394334793,0.0009750798332519043,"train",45000.0,"2021-12-10 11:11:19.844416","","","","","","",""
26.0,0.09051142632961273,0.0009667584747518465,"train",45200.0,"2021-12-10 11:11:50.117293","","","","","","",""
26.0,0.04613664001226425,0.000958407897779341,"train",45400.0,"2021-12-10 11:12:20.421057","","","","","","",""
26.0,0.047183841466903687,0.0009500292279857859,"train",45600.0,"2021-12-10 11:12:49.944775","","","","","","",""
26.0,0.06732231378555298,0.00094162359480947,"train",45800.0,"2021-12-10 11:13:20.729485","","","","","","",""
26.0,0.06954266130924225,0.0009331921313233256,"train",46000.0,"2021-12-10 11:13:51.451770","","","","","","",""
26.0,0.047233421355485916,0.0009247359740821908,"train",46200.0,"2021-12-10 11:14:21.780959","","","","","","",""
26.0,"","","val",46386.0,"2021-12-10 11:15:17.055002",0.6006610228458773,0.6127534600896264,0.9471178405520472,0.6546198676801588,0.5639729243959909,0.5738165097636017,0.3762062724145591
27.0,0.03948632627725601,0.0009162562629696037,"train",46400.0,"2021-12-10 11:15:22.050468","","","","","","",""
27.0,0.06719158589839935,0.0009077541410441457,"train",46600.0,"2021-12-10 11:15:52.886808","","","","","","",""
27.0,0.03267444297671318,0.0008992307543853584,"train",46800.0,"2021-12-10 11:16:23.134251","","","","","","",""
27.0,0.05619814991950989,0.0008906872519392541,"train",47000.0,"2021-12-10 11:16:53.588537","","","","","","",""
27.0,0.07913972437381744,0.0008821247853634372,"train",47200.0,"2021-12-10 11:17:23.777926","","","","","","",""
27.0,0.05041986331343651,0.0008735445088718624,"train",47400.0,"2021-12-10 11:17:54.050164","","","","","","",""
27.0,0.040402308106422424,0.0008649475790792475,"train",47600.0,"2021-12-10 11:18:24.551669","","","","","","",""
27.0,0.041130900382995605,0.0008563351548451627,"train",47800.0,"2021-12-10 11:18:54.682513","","","","","","",""
27.0,0.04296984151005745,0.0008477083971178166,"train",48000.0,"2021-12-10 11:19:25.221367","","","","","","",""
27.0,"","","val",48104.0,"2021-12-10 11:20:08.758197",0.6017627275890062,0.6155980389308747,0.9471380359163807,0.6622010919121253,0.5703220023341516,0.5773110353736457,0.3766894062391888
28.0,0.07732103765010834,0.0008390684687775627,"train",48200.0,"2021-12-10 11:20:26.470304","","","","","","",""
28.0,0.05915117263793945,0.0008304165344801418,"train",48400.0,"2021-12-10 11:20:56.363236","","","","","","",""
28.0,0.04579074680805206,0.0008217537604996895,"train",48600.0,"2021-12-10 11:21:27.154788","","","","","","",""
28.0,0.030958950519561768,0.0008130813145715222,"train",48800.0,"2021-12-10 11:21:57.928980","","","","","","",""
28.0,0.03818775340914726,0.0008044003657347269,"train",49000.0,"2021-12-10 11:22:28.293521","","","","","","",""
28.0,0.07383915781974792,0.0007957120841745776,"train",49200.0,"2021-12-10 11:22:58.887506","","","","","","",""
28.0,0.069115050137043,0.0007870176410647917,"train",49400.0,"2021-12-10 11:23:29.406946","","","","","","",""
28.0,0.08244721591472626,0.0007783182084096608,"train",49600.0,"2021-12-10 11:23:59.132175","","","","","","",""
28.0,0.0746493861079216,0.0007696149588860624,"train",49800.0,"2021-12-10 11:24:28.918199","","","","","","",""
28.0,"","","val",49822.0,"2021-12-10 11:25:00.098705",0.5977038153774789,0.6164910432017247,0.9472177400943086,0.6629378191165712,0.5737428349508473,0.5794970036040652,0.3787862279825557
29.0,0.04764604568481445,0.0007609090656853846,"train",50000.0,"2021-12-10 11:25:30.221892","","","","","","",""
29.0,0.04472646117210388,0.0007522017023553822,"train",50200.0,"2021-12-10 11:26:00.768312","","","","","","",""
29.0,0.039455682039260864,0.0007434940426419812,"train",50400.0,"2021-12-10 11:26:31.414173","","","","","","",""
29.0,0.029007544741034508,0.0007347872603310615,"train",50600.0,"2021-12-10 11:27:01.150601","","","","","","",""
29.0,0.047011420130729675,0.0007260825290902276,"train",50800.0,"2021-12-10 11:27:31.195726","","","","","","",""
29.0,0.06578332930803299,0.000717381022310603,"train",51000.0,"2021-12-10 11:28:01.518390","","","","","","",""
29.0,0.0484040193259716,0.0007086839129486552,"train",51200.0,"2021-12-10 11:28:31.304543","","","","","","",""
29.0,0.030084725469350815,0.0006999923733680846,"train",51400.0,"2021-12-10 11:29:01.360904","","","","","","",""
29.0,"","","val",51540.0,"2021-12-10 11:29:50.490328",0.5973559086164908,0.6153862288499552,0.9437773076353724,0.662414196219686,0.573786612276069,0.5833313173183181,0.378662709974973
30.0,0.04429749399423599,0.0006913075751817881,"train",51600.0,"2021-12-10 11:30:02.581297","","","","","","",""
30.0,0.07462335377931595,0.0006826306890939277,"train",51800.0,"2021-12-10 11:30:32.488987","","","","","","",""
30.0,0.047862038016319275,0.0006739628847421211,"train",52000.0,"2021-12-10 11:31:02.433311","","","","","","",""
30.0,0.0398048497736454,0.0006653053305397752,"train",52200.0,"2021-12-10 11:31:32.587766","","","","","","",""
30.0,0.033623259514570236,0.0006566591935185838,"train",52400.0,"2021-12-10 11:32:02.795862","","","","","","",""
30.0,0.06407683342695236,0.0006480256391712144,"train",52600.0,"2021-12-10 11:32:32.884267","","","","","","",""
30.0,0.07496532797813416,0.0006394058312941983,"train",52800.0,"2021-12-10 11:33:03.222124","","","","","","",""
30.0,0.03320059925317764,0.0006308009318310542,"train",53000.0,"2021-12-10 11:33:33.421096","","","","","","",""
30.0,0.04456932470202446,0.0006222121007156578,"train",53200.0,"2021-12-10 11:34:03.593656","","","","","","",""
30.0,"","","val",53258.0,"2021-12-10 11:34:39.783668",0.6074452046851444,0.6169885521595895,0.9425586795744342,0.6593483671639107,0.5731394945123909,0.5839637824685594,0.38359543562083415
31.0,0.04506764933466911,0.0006136404957158836,"train",53400.0,"2021-12-10 11:35:03.880415","","","","","","",""
31.0,0.04755505174398422,0.0006050872722775391,"train",53600.0,"2021-12-10 11:35:34.525096","","","","","","",""
31.0,0.025279497727751732,0.0005965535833686107,"train",53800.0,"2021-12-10 11:36:04.540749","","","","","","",""
31.0,0.09079340100288391,0.000588040579323846,"train",54000.0,"2021-12-10 11:36:33.766069","","","","","","",""
31.0,0.036875128746032715,0.0005795494076896883,"train",54200.0,"2021-12-10 11:37:03.302950","","","","","","",""
31.0,0.03825173154473305,0.0005710812130695886,"train",54400.0,"2021-12-10 11:37:33.400610","","","","","","",""
31.0,0.0412384569644928,0.0005626371369697142,"train",54600.0,"2021-12-10 11:38:03.304919","","","","","","",""
31.0,0.02851683832705021,0.0005542183176450742,"train",54800.0,"2021-12-10 11:38:33.603386","","","","","","",""
31.0,"","","val",54976.0,"2021-12-10 11:39:28.176131",0.5979937376783022,0.6148520413089829,0.943167699710812,0.6649470967392825,0.5722845972200148,0.5813469860270704,0.3792872925573285
32.0,0.039518583565950394,0.0005458258899460833,"train",55000.0,"2021-12-10 11:39:34.943996","","","","","","",""
32.0,0.07770119607448578,0.0005374609851655857,"train",55200.0,"2021-12-10 11:40:05.043881","","","","","","",""
32.0,0.06801724433898926,0.000529124730886357,"train",55400.0,"2021-12-10 11:40:35.856746","","","","","","",""
32.0,0.03962458670139313,0.0005208182508291072,"train",55600.0,"2021-12-10 11:41:05.418760","","","","","","",""
32.0,0.029798252508044243,0.000512542664701004,"train",55800.0,"2021-12-10 11:41:35.516364","","","","","","",""
32.0,0.04670453444123268,0.0005042990880447367,"train",56000.0,"2021-12-10 11:42:05.668917","","","","","","",""
32.0,0.04050210863351822,0.0004960886320881426,"train",56200.0,"2021-12-10 11:42:36.042907","","","","","","",""
32.0,0.038535382598638535,0.0004879124035944137,"train",56400.0,"2021-12-10 11:43:06.414818","","","","","","",""
32.0,0.06845473498106003,0.0004797715047129063,"train",56600.0,"2021-12-10 11:43:37.297417","","","","","","",""
32.0,"","","val",56694.0,"2021-12-10 11:44:19.522951",0.594804592369245,0.6125895828712549,0.941799886287468,0.6550444971788631,0.5671873287901821,0.5769324639085764,0.3755662967145333
33.0,0.02150181494653225,0.0004716670328305725,"train",56800.0,"2021-12-10 11:44:38.870262","","","","","","",""
33.0,0.04176541417837143,0.00046360008042403136,"train",57000.0,"2021-12-10 11:45:09.223898","","","","","","",""
33.0,0.04063783213496208,0.0004555717349123065,"train",57200.0,"2021-12-10 11:45:39.298308","","","","","","",""
33.0,0.03524598479270935,0.00044758307851024094,"train",57400.0,"2021-12-10 11:46:09.084692","","","","","","",""
33.0,0.05429266393184662,0.0004396351880826166,"train",57600.0,"2021-12-10 11:46:39.176351","","","","","","",""
33.0,0.05892102047801018,0.00043172913499899294,"train",57800.0,"2021-12-10 11:47:09.300792","","","","","","",""
33.0,0.030132656916975975,0.00042386598498928707,"train",58000.0,"2021-12-10 11:47:38.796098","","","","","","",""
33.0,0.07363028824329376,0.00041604679800011444,"train",58200.0,"2021-12-10 11:48:08.985229","","","","","","",""
33.0,0.04850772023200989,0.0004082726280519098,"train",58400.0,"2021-12-10 11:48:38.926052","","","","","","",""
33.0,"","","val",58412.0,"2021-12-10 11:49:08.159830",0.6022845877304882,0.6192348485795016,0.9418399552665803,0.6718877142657141,0.586059787073414,0.5925520229116009,0.38632949892345764
34.0,0.0505540557205677,0.00040054452309684423,"train",58600.0,"2021-12-10 11:49:39.392425","","","","","","",""
34.0,0.07335546612739563,0.00039286352487756315,"train",58800.0,"2021-12-10 11:50:09.994823","","","","","","",""
34.0,0.02647818624973297,0.00038523066878676113,"train",59000.0,"2021-12-10 11:50:40.026817","","","","","","",""
34.0,0.02432881109416485,0.0003776469837276081,"train",59200.0,"2021-12-10 11:51:10.143256","","","","","","",""
34.0,0.05217984691262245,0.00037011349197505877,"train",59400.0,"2021-12-10 11:51:40.274326","","","","","","",""
34.0,0.04444793984293938,0.00036263120903804716,"train",59600.0,"2021-12-10 11:52:10.495518","","","","","","",""
34.0,0.04637978598475456,0.00035520114352259873,"train",59800.0,"2021-12-10 11:52:41.328458","","","","","","",""
34.0,0.07764801383018494,0.0003478242969958709,"train",60000.0,"2021-12-10 11:53:11.824207","","","","","","",""
34.0,"","","val",60130.0,"2021-12-10 11:53:59.524288",0.6021106343499942,0.6151605287884233,0.9407706244736692,0.6557506855711056,0.5710261248094965,0.5810133852752825,0.37771288425845817
35.0,0.027264349162578583,0.0003405016638511402,"train",60200.0,"2021-12-10 11:54:13.281432","","","","","","",""
35.0,0.03927198424935341,0.0003332342311737622,"train",60400.0,"2021-12-10 11:54:43.683071","","","","","","",""
35.0,0.03650708869099617,0.00032602297860811157,"train",60600.0,"2021-12-10 11:55:13.899800","","","","","","",""
35.0,0.056402500718832016,0.00031886887822552614,"train",60800.0,"2021-12-10 11:55:43.638441","","","","","","",""
35.0,0.04674077033996582,0.00031177289439327416,"train",61000.0,"2021-12-10 11:56:14.149258","","","","","","",""
35.0,0.0532674714922905,0.0003047359836445554,"train",61200.0,"2021-12-10 11:56:44.112058","","","","","","",""
35.0,0.019193042069673538,0.00029775909454956504,"train",61400.0,"2021-12-10 11:57:13.808514","","","","","","",""
35.0,0.056282076984643936,0.0002908431675876246,"train",61600.0,"2021-12-10 11:57:44.275414","","","","","","",""
35.0,0.027576234191656113,0.00028398913502040594,"train",61800.0,"2021-12-10 11:58:14.239898","","","","","","",""
35.0,"","","val",61848.0,"2021-12-10 11:58:48.977936",0.5982256755189609,0.6160507648401011,0.9391277727991629,0.6569033047182168,0.5710298406046074,0.583533136159325,0.3765095628148757
36.0,0.06469516456127167,0.00027719792076626485,"train",62000.0,"2021-12-10 11:59:14.569848","","","","","","",""
36.0,0.07189410924911499,0.00027047044027569565,"train",62200.0,"2021-12-10 11:59:44.881576","","","","","","",""
36.0,0.0634976327419281,0.00026380760040793,"train",62400.0,"2021-12-10 12:00:14.717050","","","","","","",""
36.0,0.08192247152328491,0.0002572102993086938,"train",62600.0,"2021-12-10 12:00:44.959620","","","","","","",""
36.0,0.06978610903024673,0.00025067942628913595,"train",62800.0,"2021-12-10 12:01:15.380060","","","","","","",""
36.0,0.08145508170127869,0.0002442158617059521,"train",63000.0,"2021-12-10 12:01:45.393064","","","","","","",""
36.0,0.0344599150121212,0.00023782047684271123,"train",63200.0,"2021-12-10 12:02:15.908364","","","","","","",""
36.0,0.07516084611415863,0.0002314941337924079,"train",63400.0,"2021-12-10 12:02:45.649775","","","","","","",""
36.0,"","","val",63566.0,"2021-12-10 12:03:38.274482",0.6033862924736171,0.6232173888194915,0.9429230310537856,0.6753679672543385,0.587255663677112,0.5956150498882253,0.3886116947045706
37.0,0.08256503194570541,0.00022523768534125416,"train",63600.0,"2021-12-10 12:03:46.212794","","","","","","",""
37.0,0.057324498891830444,0.0002190519748537223,"train",63800.0,"2021-12-10 12:04:16.523851","","","","","","",""
37.0,0.035706836730241776,0.00021293783615886213,"train",64000.0,"2021-12-10 12:04:46.484392","","","","","","",""
37.0,0.024565506726503372,0.00020689609343789978,"train",64200.0,"2021-12-10 12:05:16.655128","","","","","","",""
37.0,0.0410771518945694,0.00020092756111313927,"train",64400.0,"2021-12-10 12:05:47.132007","","","","","","",""
37.0,0.08414899557828903,0.00019503304373818004,"train",64600.0,"2021-12-10 12:06:16.998932","","","","","","",""
37.0,0.02674970217049122,0.00018921333588946168,"train",64800.0,"2021-12-10 12:06:47.595455","","","","","","",""
37.0,0.041587043553590775,0.0001834692220591577,"train",65000.0,"2021-12-10 12:07:17.812615","","","","","","",""
37.0,0.0850750282406807,0.0001778014765494257,"train",65200.0,"2021-12-10 12:07:47.776212","","","","","","",""
37.0,"","","val",65284.0,"2021-12-10 12:08:28.380560",0.604835903977734,0.6207658690797064,0.9421662995770963,0.6744112319989097,0.5907664349179937,0.5994766404608126,0.39087209983368687
38.0,0.04308144748210907,0.00017221086336803067,"train",65400.0,"2021-12-10 12:08:48.980299","","","","","","",""
38.0,0.02658633515238762,0.00016669813612536023,"train",65600.0,"2021-12-10 12:09:19.353172","","","","","","",""
38.0,0.058154862374067307,0.00016126403793283598,"train",65800.0,"2021-12-10 12:09:49.744577","","","","","","",""
38.0,0.019417593255639076,0.00015590930130274415,"train",66000.0,"2021-12-10 12:10:20.224548","","","","","","",""
38.0,0.026434659957885742,0.000150634648049493,"train",66200.0,"2021-12-10 12:10:50.240024","","","","","","",""
38.0,0.08168542385101318,0.00014544078919231183,"train",66400.0,"2021-12-10 12:11:20.639942","","","","","","",""
38.0,0.039993107318878174,0.0001403284248594081,"train",66600.0,"2021-12-10 12:11:50.215906","","","","","","",""
38.0,0.04318246245384216,0.0001352982441935895,"train",66800.0,"2021-12-10 12:12:19.210421","","","","","","",""
38.0,0.07134296745061874,0.00013035092525936752,"train",67000.0,"2021-12-10 12:12:48.927250","","","","","","",""
38.0,"","","val",67002.0,"2021-12-10 12:13:17.052392",0.604487997216746,0.6190353595143805,0.9401983201570043,0.6679316334134033,0.5853604972477309,0.5938230232219537,0.3874850635033731
39.0,0.026604916900396347,0.00012548713495155633,"train",67200.0,"2021-12-10 12:13:49.636786","","","","","","",""
39.0,0.0260325837880373,0.00012070752890537443,"train",67400.0,"2021-12-10 12:14:19.524282","","","","","","",""
39.0,0.048793308436870575,0.00011601275140806623,"train",67600.0,"2021-12-10 12:14:49.719163","","","","","","",""
39.0,0.03438862785696983,0.0001114034353120531,"train",67800.0,"2021-12-10 12:15:19.936607","","","","","","",""
39.0,0.07894331961870193,0.00010688020194962398,"train",68000.0,"2021-12-10 12:15:50.426979","","","","","","",""
39.0,0.02581697888672352,0.00010244366104918185,"train",68200.0,"2021-12-10 12:16:20.873079","","","","","","",""
39.0,0.04926517233252525,9.809441065305144e-05,"train",68400.0,"2021-12-10 12:16:51.053786","","","","","","",""
39.0,0.02274717576801777,9.383303703686414e-05,"train",68600.0,"2021-12-10 12:17:21.565246","","","","","","",""
39.0,"","","val",68720.0,"2021-12-10 12:18:07.759956",0.603038385712629,0.6213988663789358,0.9405886255700113,0.6725102050583086,0.5875066881436103,0.597143130754216,0.3909952350946314
40.0,0.03261397406458855,8.966011463052921e-05,"train",68800.0,"2021-12-10 12:18:22.744288","","","","","","",""
40.0,0.07169308513402939,8.557620594079947e-05,"train",69000.0,"2021-12-10 12:18:52.638380","","","","","","",""
40.0,0.03434070572257042,8.158186147544766e-05,"train",69200.0,"2021-12-10 12:19:22.547723","","","","","","",""
40.0,0.05856773629784584,7.767761966905665e-05,"train",69400.0,"2021-12-10 12:19:53.133676","","","","","","",""
40.0,0.027048055082559586,7.386400681044003e-05,"train",69600.0,"2021-12-10 12:20:22.753979","","","","","","",""
40.0,0.021808965131640434,7.014153697169866e-05,"train",69800.0,"2021-12-10 12:20:53.303534","","","","","","",""
40.0,0.024721303954720497,6.651071193892356e-05,"train",70000.0,"2021-12-10 12:21:27.118203","","","","","","",""
40.0,0.024223526939749718,6.297202114455623e-05,"train",70200.0,"2021-12-10 12:21:57.297608","","","","","","",""
40.0,0.032111577689647675,5.9525941601413014e-05,"train",70400.0,"2021-12-10 12:22:27.523327","","","","","","",""
40.0,"","","val",70438.0,"2021-12-10 12:23:00.645444",0.6024005566508176,0.6183505495267583,0.9403198526846827,0.6669671254944833,0.5847276121080675,0.5936967110616999,0.3873113271342508
41.0,0.02640197053551674,5.617293783838424e-05,"train",70600.0,"2021-12-10 12:23:28.447622","","","","","","",""
41.0,0.02597673423588276,5.2913461837816396e-05,"train",70800.0,"2021-12-10 13:17:00.472582","","","","","","",""
41.0,0.031856127083301544,4.974795297458473e-05,"train",71000.0,"2021-12-10 13:17:30.986560","","","","","","",""
41.0,0.039987754076719284,4.66768379568665e-05,"train",71200.0,"2021-12-10 13:18:01.046251","","","","","","",""
41.0,0.06689735502004623,4.370053076862062e-05,"train",71400.0,"2021-12-10 13:18:31.226217","","","","","","",""
41.0,0.034467946738004684,4.081943261378266e-05,"train",71600.0,"2021-12-10 13:19:01.535384","","","","","","",""
41.0,0.08159883320331573,3.80339318621835e-05,"train",71800.0,"2021-12-10 13:19:31.404007","","","","","","",""
41.0,0.018554365262389183,3.534440399719691e-05,"train",72000.0,"2021-12-10 13:20:01.978562","","","","","","",""
41.0,"","","val",72156.0,"2021-12-10 13:20:53.261100",0.6020526498898295,0.6204909818187445,0.9402792998557113,0.6748884042155632,0.5891742288037958,0.5969490619246709,0.39021119382588826
42.0,0.042320121079683304,3.2751211565125e-05,"train",72200.0,"2021-12-10 13:21:02.888253","","","","","","",""
42.0,0.04439900442957878,3.0254704126327173e-05,"train",72400.0,"2021-12-10 13:21:32.601472","","","","","","",""
42.0,0.09376927465200424,2.785521820809941e-05,"train",72600.0,"2021-12-10 13:22:02.611615","","","","","","",""
42.0,0.05477651581168175,2.5553077259310658e-05,"train",72800.0,"2021-12-10 13:22:33.383296","","","","","","",""
42.0,0.09749771654605865,2.3348591606802834e-05,"train",73000.0,"2021-12-10 13:23:02.892813","","","","","","",""
42.0,0.04464779421687126,2.1242058413557883e-05,"train",73200.0,"2021-12-10 13:23:32.738932","","","","","","",""
42.0,0.029026897624135017,1.923376163864165e-05,"train",73400.0,"2021-12-10 13:24:03.174942","","","","","","",""
42.0,0.021727027371525764,1.7323971998925405e-05,"train",73600.0,"2021-12-10 13:24:33.527264","","","","","","",""
42.0,0.037635281682014465,1.5512946932594e-05,"train",73800.0,"2021-12-10 13:25:03.877078","","","","","","",""
42.0,"","","val",73874.0,"2021-12-10 13:25:42.406047",0.6033283080134524,0.6227722835603876,0.9408274890480828,0.6739569123062007,0.5918834208913955,0.5996517674206187,0.39231728990704123
43.0,0.044921211898326874,1.3800930564443112e-05,"train",74000.0,"2021-12-10 13:26:04.322101","","","","","","",""
43.0,0.03079698234796524,1.2188153672971698e-05,"train",74200.0,"2021-12-10 13:26:34.828202","","","","","","",""
43.0,0.026857558637857437,1.0674833659272914e-05,"train",74400.0,"2021-12-10 13:27:04.983769","","","","","","",""
43.0,0.020940465852618217,9.261174517728847e-06,"train",74600.0,"2021-12-10 13:27:35.223143","","","","","","",""
43.0,0.06962540000677109,7.947366808511954e-06,"train",74800.0,"2021-12-10 13:28:05.091486","","","","","","",""
43.0,0.0557723343372345,6.733587631898205e-06,"train",75000.0,"2021-12-10 13:28:35.782744","","","","","","",""
43.0,0.08465924113988876,5.620000604393369e-06,"train",75200.0,"2021-12-10 13:29:05.926601","","","","","","",""
43.0,0.04048256576061249,4.606755836678408e-06,"train",75400.0,"2021-12-10 13:29:36.366573","","","","","","",""
43.0,"","","val",75592.0,"2021-12-10 13:30:33.219379",0.6017627275890062,0.6205536976450511,0.9395542615706992,0.673197984083298,0.5881254764614486,0.5972681260752145,0.3890606309115236
44.0,0.030097169801592827,3.6939899133739907e-06,"train",75600.0,"2021-12-10 13:30:37.585043","","","","","","",""
44.0,0.07655990868806839,2.881825874629545e-06,"train",75800.0,"2021-12-10 13:31:07.966573","","","","","","",""
44.0,0.0388115830719471,2.1703731995371784e-06,"train",76000.0,"2021-12-10 13:31:38.499491","","","","","","",""
44.0,0.032856762409210205,1.5597277913741226e-06,"train",76200.0,"2021-12-10 13:32:08.469248","","","","","","",""
44.0,0.03885950520634651,1.04997196467496e-06,"train",76400.0,"2021-12-10 13:32:38.478768","","","","","","",""
44.0,0.051855653524398804,6.41174434135877e-07,"train",76600.0,"2021-12-10 13:33:08.635409","","","","","","",""
44.0,0.06757834553718567,3.333903053516947e-07,"train",76800.0,"2021-12-10 13:33:38.610222","","","","","","",""
44.0,0.02738310769200325,1.2666106738792336e-07,"train",77000.0,"2021-12-10 13:34:08.826710","","","","","","",""
44.0,0.057561032474040985,2.1014587188008304e-08,"train",77200.0,"2021-12-10 13:34:39.384716","","","","","","",""
44.0,"","","val",77310.0,"2021-12-10 13:35:23.326128",0.6011828829873593,0.6186045420780695,0.9388877728777477,0.6701264081216056,0.585140730247641,0.5929316998991206,0.38727167637113175
