"epoch","loss","lr","part","step","time","accuracy","auprc","auroc","challenge_metric","f_beta_measure","f_measure","g_beta_measure"
0.0,0.15086956322193146,6.0095073959347354e-05,"train",200.0,"2021-12-09 15:55:26.745686","","","","","","",""
0.0,0.1732388138771057,6.038027072889575e-05,"train",400.0,"2021-12-09 15:55:56.157063","","","","","","",""
0.0,0.14443525671958923,6.085551498979523e-05,"train",600.0,"2021-12-09 15:56:26.614499","","","","","","",""
0.0,0.12048802524805069,6.152068123272997e-05,"train",800.0,"2021-12-09 15:56:56.825172","","","","","","",""
0.0,0.1167890876531601,6.237559379106616e-05,"train",1000.0,"2021-12-09 15:57:26.935786","","","","","","",""
0.0,0.10039599239826202,6.342002688724288e-05,"train",1200.0,"2021-12-09 15:57:57.087201","","","","","","",""
0.0,0.13127711415290833,6.46537046923995e-05,"train",1400.0,"2021-12-09 15:58:27.072660","","","","","","",""
0.0,0.1132178083062172,6.607630139922153e-05,"train",1600.0,"2021-12-09 15:58:56.390338","","","","","","",""
0.0,0.12209100276231766,6.7687441307982e-05,"train",1800.0,"2021-12-09 15:59:26.422854","","","","","","",""
0.0,0.14555171132087708,6.948669892576395e-05,"train",2000.0,"2021-12-09 15:59:56.760172","","","","","","",""
0.0,0.11097116023302078,7.14735990788298e-05,"train",2200.0,"2021-12-09 16:00:26.785986","","","","","","",""
0.0,0.11336696892976761,7.36476170381114e-05,"train",2400.0,"2021-12-09 16:00:57.153341","","","","","","",""
0.0,0.13530151546001434,7.600817865778954e-05,"train",2600.0,"2021-12-09 16:01:27.007488","","","","","","",""
0.0,0.13896960020065308,7.85546605269207e-05,"train",2800.0,"2021-12-09 16:01:56.829063","","","","","","",""
0.0,"","","val",2864.0,"2021-12-09 16:02:36.641996",0.3574741969152267,0.29035633669096905,0.8324798886091768,0.34617257819307246,0.23266258346856314,0.22252134522543565,0.13124847530533687
1.0,0.08620075136423111,8.128639013407855e-05,"train",3000.0,"2021-12-09 16:03:00.447647","","","","","","",""
1.0,0.12262393534183502,8.4202646044958e-05,"train",3200.0,"2021-12-09 16:03:31.034997","","","","","","",""
1.0,0.08663710951805115,8.7302658092904e-05,"train",3400.0,"2021-12-09 16:04:01.673776","","","","","","",""
1.0,0.13091889023780823,9.058560758230718e-05,"train",3600.0,"2021-12-09 16:04:31.518712","","","","","","",""
1.0,0.09692733734846115,9.405062750481637e-05,"train",3800.0,"2021-12-09 16:05:02.060046","","","","","","",""
1.0,0.09414901584386826,9.769680276831166e-05,"train",4000.0,"2021-12-09 16:05:32.699310","","","","","","",""
1.0,0.13016174733638763,0.00010152317043857434,"train",4200.0,"2021-12-09 16:06:03.120378","","","","","","",""
1.0,0.09183039516210556,0.00010552871999359222,"train",4400.0,"2021-12-09 16:06:33.298450","","","","","","",""
1.0,0.11975950002670288,0.00010971239359043334,"train",4600.0,"2021-12-09 16:07:03.341120","","","","","","",""
1.0,0.0999641939997673,0.00011407308634461561,"train",4800.0,"2021-12-09 16:07:33.165934","","","","","","",""
1.0,0.08774475753307343,0.0001186096466219012,"train",5000.0,"2021-12-09 16:08:03.172454","","","","","","",""
1.0,0.09636285901069641,0.00012332087634243645,"train",5200.0,"2021-12-09 16:08:32.845393","","","","","","",""
1.0,0.11798011511564255,0.00012820553129715747,"train",5400.0,"2021-12-09 16:09:03.398188","","","","","","",""
1.0,0.10863088071346283,0.00013326232147637946,"train",5600.0,"2021-12-09 16:09:33.876702","","","","","","",""
1.0,"","","val",5728.0,"2021-12-09 16:10:22.538871",0.4219529166183463,0.3661753529809845,0.8755291393414464,0.4652306286055334,0.32008644647755874,0.3051594953389763,0.19128002132094316
2.0,0.11551999300718307,0.00013848991141048018,"train",5800.0,"2021-12-09 16:10:36.511208","","","","","","",""
2.0,0.08515889942646027,0.00014388692052259107,"train",6000.0,"2021-12-09 16:11:07.101059","","","","","","",""
2.0,0.08769220113754272,0.0001494519234931976,"train",6200.0,"2021-12-09 16:11:37.622567","","","","","","",""
2.0,0.08380042761564255,0.00015518345063656076,"train",6400.0,"2021-12-09 16:12:07.993714","","","","","","",""
2.0,0.11879964917898178,0.00016107998828885132,"train",6600.0,"2021-12-09 16:12:38.152381","","","","","","",""
2.0,0.0888860821723938,0.0001671399792078992,"train",6800.0,"2021-12-09 16:13:07.852733","","","","","","",""
2.0,0.08571301400661469,0.00017336182298445415,"train",7000.0,"2021-12-09 16:13:38.357975","","","","","","",""
2.0,0.12305108457803726,0.00017974387646484255,"train",7200.0,"2021-12-09 16:14:08.136225","","","","","","",""
2.0,0.1046462208032608,0.0001862844541849172,"train",7400.0,"2021-12-09 16:14:38.592692","","","","","","",""
2.0,0.08600135147571564,0.00019298182881517757,"train",7600.0,"2021-12-09 16:15:08.663387","","","","","","",""
2.0,0.13345591723918915,0.00019983423161694706,"train",7800.0,"2021-12-09 16:15:39.033298","","","","","","",""
2.0,0.06459853798151016,0.00020683985290948902,"train",8000.0,"2021-12-09 16:16:09.229098","","","","","","",""
2.0,0.0828235074877739,0.00021399684254793088,"train",8200.0,"2021-12-09 16:16:39.090802","","","","","","",""
2.0,0.10738589614629745,0.00022130331041187866,"train",8400.0,"2021-12-09 16:17:09.035371","","","","","","",""
2.0,"","","val",8592.0,"2021-12-09 16:18:07.904175",0.47297924156326104,0.4159250150108732,0.8992865934427992,0.5067820994123933,0.3502095778915094,0.3410667971820324,0.21785483911358614
3.0,0.06524302810430527,0.0002287573269045861,"train",8600.0,"2021-12-09 16:18:11.956195","","","","","","",""
3.0,0.08268217742443085,0.0002363569234625502,"train",8800.0,"2021-12-09 16:18:41.717005","","","","","","",""
3.0,0.08153163641691208,0.00024410009307539822,"train",9000.0,"2021-12-09 16:19:10.602129","","","","","","",""
3.0,0.10773654282093048,0.0002519847908159275,"train",9200.0,"2021-12-09 16:19:40.363144","","","","","","",""
3.0,0.08760608732700348,0.0002600089343801587,"train",9400.0,"2021-12-09 16:20:10.780550","","","","","","",""
3.0,0.07857900112867355,0.0002681704046372617,"train",9600.0,"2021-12-09 16:20:40.854935","","","","","","",""
3.0,0.09283033013343811,0.00027646704618920445,"train",9800.0,"2021-12-09 16:21:11.013906","","","","","","",""
3.0,0.08752008527517319,0.0002848966679399826,"train",10000.0,"2021-12-09 16:21:41.271359","","","","","","",""
3.0,0.10563182085752487,0.0002934570436742745,"train",10200.0,"2021-12-09 16:22:11.133563","","","","","","",""
3.0,0.09217112511396408,0.0003021459126453733,"train",10400.0,"2021-12-09 16:22:41.055656","","","","","","",""
3.0,0.10004459321498871,0.00031096098017223644,"train",10600.0,"2021-12-09 16:23:10.931100","","","","","","",""
3.0,0.07842706888914108,0.0003198999182454983,"train",10800.0,"2021-12-09 16:23:41.161863","","","","","","",""
3.0,0.13562291860580444,0.0003289603661422835,"train",11000.0,"2021-12-09 16:24:10.762685","","","","","","",""
3.0,0.09321713447570801,0.0003381399310496613,"train",11200.0,"2021-12-09 16:24:40.600721","","","","","","",""
3.0,0.0865938663482666,0.00034743618869657465,"train",11400.0,"2021-12-09 16:25:10.632298","","","","","","",""
3.0,"","","val",11456.0,"2021-12-09 16:25:48.550514",0.4802852835440102,0.44271731893508803,0.911123380901204,0.5197168856140382,0.3838133448071497,0.38130247732634664,0.24068879685254044
4.0,0.08791083842515945,0.0003568466839940739,"train",11600.0,"2021-12-09 16:26:13.394851","","","","","","",""
4.0,0.08492521196603775,0.00036636893168369477,"train",11800.0,"2021-12-09 16:26:42.814738","","","","","","",""
4.0,0.09572619944810867,0.00037600041699379825,"train",12000.0,"2021-12-09 16:27:13.041408","","","","","","",""
4.0,0.14048728346824646,0.0003857385963037109,"train",12200.0,"2021-12-09 16:27:43.268084","","","","","","",""
4.0,0.10256879776716232,0.0003955808978154769,"train",12400.0,"2021-12-09 16:28:13.193210","","","","","","",""
4.0,0.09426843374967575,0.00040552472223305785,"train",12600.0,"2021-12-09 16:28:43.041018","","","","","","",""
4.0,0.11121680587530136,0.0004155674434487917,"train",12800.0,"2021-12-09 16:29:12.447953","","","","","","",""
4.0,0.07963312417268753,0.0004257064092369324,"train",13000.0,"2021-12-09 16:29:42.263366","","","","","","",""
4.0,0.11185766011476517,0.00043593894195408773,"train",13200.0,"2021-12-09 16:30:12.624754","","","","","","",""
4.0,0.057720478624105453,0.00044626233924636993,"train",13400.0,"2021-12-09 16:30:42.748480","","","","","","",""
4.0,0.09344367682933807,0.000456673874763072,"train",13600.0,"2021-12-09 16:31:12.459459","","","","","","",""
4.0,0.09336882829666138,0.00046717079887668165,"train",13800.0,"2021-12-09 16:31:42.071853","","","","","","",""
4.0,0.11233652383089066,0.0004777503394090422,"train",14000.0,"2021-12-09 16:32:12.368160","","","","","","",""
4.0,0.10674277693033218,0.000488409702363469,"train",14200.0,"2021-12-09 16:32:42.560380","","","","","","",""
4.0,"","","val",14320.0,"2021-12-09 16:33:29.415234",0.4982604661950597,0.4676657380006117,0.9184400412633488,0.5301830662133163,0.40211147188548646,0.4044794950008228,0.25261172148462957
5.0,0.06384332478046417,0.0004991460726626277,"train",14400.0,"2021-12-09 16:33:44.473683","","","","","","",""
5.0,0.10037356615066528,0.0005099566148919815,"train",14600.0,"2021-12-09 16:34:14.714908","","","","","","",""
5.0,0.07685018330812454,0.000520838474048607,"train",14800.0,"2021-12-09 16:34:44.360480","","","","","","",""
5.0,0.07929365336894989,0.0005317887762951845,"train",15000.0,"2021-12-09 16:35:14.904157","","","","","","",""
5.0,0.11467350274324417,0.0005428046297189624,"train",15200.0,"2021-12-09 16:35:44.977205","","","","","","",""
5.0,0.12201471626758575,0.0005538831250954944,"train",15400.0,"2021-12-09 16:36:15.460232","","","","","","",""
5.0,0.09433487057685852,0.0005650213366569495,"train",15600.0,"2021-12-09 16:36:45.210612","","","","","","",""
5.0,0.1074039489030838,0.0005762163228647917,"train",15800.0,"2021-12-09 16:37:15.340404","","","","","","",""
5.0,0.06595709174871445,0.0005874651271866218,"train",16000.0,"2021-12-09 16:37:44.817967","","","","","","",""
5.0,0.07689879834651947,0.0005987647788769817,"train",16200.0,"2021-12-09 16:38:14.156512","","","","","","",""
5.0,0.08210480213165283,0.0006101122937619122,"train",16400.0,"2021-12-09 16:38:44.725581","","","","","","",""
5.0,0.12168920785188675,0.000621504675027055,"train",16600.0,"2021-12-09 16:39:14.438571","","","","","","",""
5.0,0.07142505049705505,0.0006329389140090958,"train",16800.0,"2021-12-09 16:39:44.671418","","","","","","",""
5.0,0.0680658370256424,0.0006444119909903343,"train",17000.0,"2021-12-09 16:40:15.175367","","","","","","",""
5.0,"","","val",17184.0,"2021-12-09 16:41:12.022079",0.5235996752870231,0.5041276930494456,0.9263087426908958,0.5765033840726933,0.4250041217213215,0.4249859953158058,0.2738718633646543
6.0,0.06297927349805832,0.0006559208759961742,"train",17200.0,"2021-12-09 16:41:17.270306","","","","","","",""
6.0,0.06033291667699814,0.0006674625295953233,"train",17400.0,"2021-12-09 16:41:47.884565","","","","","","",""
6.0,0.06654462218284607,0.0006790339037024902,"train",17600.0,"2021-12-09 16:42:18.035236","","","","","","",""
6.0,0.14280712604522705,0.0006906319423833652,"train",17800.0,"2021-12-09 16:42:47.803015","","","","","","",""
6.0,0.06348094344139099,0.0007022535826616756,"train",18000.0,"2021-12-09 16:43:17.762664","","","","","","",""
6.0,0.10778412222862244,0.0007138957553281012,"train",18200.0,"2021-12-09 16:43:48.273888","","","","","","",""
6.0,0.0667024552822113,0.0007255553857508339,"train",18400.0,"2021-12-09 16:44:18.432244","","","","","","",""
6.0,0.08361434191465378,0.0007372293946875717,"train",18600.0,"2021-12-09 16:44:48.502739","","","","","","",""
6.0,0.07553470134735107,0.0007489146990987282,"train",18800.0,"2021-12-09 16:45:18.244976","","","","","","",""
6.0,0.09204652905464172,0.0007606082129616463,"train",19000.0,"2021-12-09 16:45:48.364873","","","","","","",""
6.0,0.13831928372383118,0.0007723068480855993,"train",19200.0,"2021-12-09 16:46:18.606788","","","","","","",""
6.0,0.05433442071080208,0.0007840075149273646,"train",19400.0,"2021-12-09 16:46:48.886981","","","","","","",""
6.0,0.11728130280971527,0.000795707123407154,"train",19600.0,"2021-12-09 16:47:19.350734","","","","","","",""
6.0,0.0634731650352478,0.000807402583724687,"train",19800.0,"2021-12-09 16:47:49.558572","","","","","","",""
6.0,0.10545346885919571,0.0008190908071751892,"train",20000.0,"2021-12-09 16:48:19.943873","","","","","","",""
6.0,"","","val",20048.0,"2021-12-09 16:48:56.832925",0.5423866403803781,0.5195384079122359,0.9299786433538192,0.5630821030353552,0.44380176647214653,0.442577894611335,0.2886867312853471
7.0,0.07429399341344833,0.000830768706965102,"train",20200.0,"2021-12-09 16:49:22.979795","","","","","","",""
7.0,0.11099914461374283,0.0008424331990272867,"train",20400.0,"2021-12-09 16:49:52.723550","","","","","","",""
7.0,0.07950299233198166,0.0008540812028355096,"train",20600.0,"2021-12-09 16:50:22.558383","","","","","","",""
7.0,0.08340248465538025,0.0008657096422179914,"train",20800.0,"2021-12-09 16:50:52.778814","","","","","","",""
7.0,0.10211963951587677,0.0008773154461698068,"train",21000.0,"2021-12-09 16:51:23.102031","","","","","","",""
7.0,0.08260603249073029,0.0008888955496639191,"train",21200.0,"2021-12-09 16:51:53.496651","","","","","","",""
7.0,0.07594432681798935,0.0009004468944606377,"train",21400.0,"2021-12-09 16:52:23.073458","","","","","","",""
7.0,0.06606509536504745,0.0009119664299152798,"train",21600.0,"2021-12-09 16:52:53.262136","","","","","","",""
7.0,0.06816504895687103,0.0009234511137838304,"train",21800.0,"2021-12-09 16:53:23.491280","","","","","","",""
7.0,0.12133648246526718,0.0009348979130263803,"train",22000.0,"2021-12-09 16:53:53.905537","","","","","","",""
7.0,0.08050168305635452,0.0009463038046081354,"train",22200.0,"2021-12-09 16:54:23.835690","","","","","","",""
7.0,0.08966303616762161,0.0009576657762977833,"train",22400.0,"2021-12-09 16:54:53.601385","","","","","","",""
7.0,0.06142085790634155,0.0009689808274630059,"train",22600.0,"2021-12-09 16:55:23.316614","","","","","","",""
7.0,0.08095256984233856,0.0009802459698629294,"train",22800.0,"2021-12-09 16:55:53.721042","","","","","","",""
7.0,"","","val",22912.0,"2021-12-09 16:56:40.256811",0.5534036878116665,0.5287594437454857,0.9325883056479658,0.5971681094006556,0.46572960451037837,0.4642647663472,0.3012701540992174
8.0,0.0802823007106781,0.0009914582284373022,"train",23000.0,"2021-12-09 16:56:56.486347","","","","","","",""
8.0,0.07718920707702637,0.0010026146420921915,"train",23200.0,"2021-12-09 16:57:26.300416","","","","","","",""
8.0,0.054234426468610764,0.0010137122644819905,"train",23400.0,"2021-12-09 16:57:56.008428","","","","","","",""
8.0,0.08274434506893158,0.0010247481647875332,"train",23600.0,"2021-12-09 16:58:26.485184","","","","","","",""
8.0,0.0484614335000515,0.0010357194284901052,"train",23800.0,"2021-12-09 16:58:56.861738","","","","","","",""
8.0,0.059704385697841644,0.0010466231581411534,"train",24000.0,"2021-12-09 16:59:26.763867","","","","","","",""
8.0,0.08107001334428787,0.0010574564741274845,"train",24200.0,"2021-12-09 16:59:56.943551","","","","","","",""
8.0,0.05601552873849869,0.0010682165154317547,"train",24400.0,"2021-12-09 17:00:27.412174","","","","","","",""
8.0,0.07872587442398071,0.0010789004403880488,"train",24600.0,"2021-12-09 17:00:58.090005","","","","","","",""
8.0,0.04978475719690323,0.0010895054274323475,"train",24800.0,"2021-12-09 17:01:28.030646","","","","","","",""
8.0,0.07295865565538406,0.0011000286758476863,"train",25000.0,"2021-12-09 17:01:58.382951","","","","","","",""
8.0,0.08558957278728485,0.0011104674065038097,"train",25200.0,"2021-12-09 17:02:28.455302","","","","","","",""
8.0,0.08442693203687668,0.001120818862591123,"train",25400.0,"2021-12-09 17:02:57.976578","","","","","","",""
8.0,0.06040027737617493,0.001131080310348751,"train",25600.0,"2021-12-09 17:03:27.994511","","","","","","",""
8.0,"","","val",25776.0,"2021-12-09 17:04:23.954769",0.5563608952800649,0.5443912122375812,0.934342057331347,0.5973785648677729,0.48023766215774555,0.4817581866369355,0.31425594527493106
9.0,0.08295539766550064,0.0011412490397865074,"train",25800.0,"2021-12-09 17:04:30.709894","","","","","","",""
9.0,0.0589052215218544,0.0011513223654005889,"train",26000.0,"2021-12-09 17:05:00.705012","","","","","","",""
9.0,0.04993177577853203,0.0011612976268828012,"train",26200.0,"2021-12-09 17:05:31.246544","","","","","","",""
9.0,0.1080375611782074,0.0011711721898231317,"train",26400.0,"2021-12-09 17:06:01.036472","","","","","","",""
9.0,0.06820537149906158,0.001180943446405481,"train",26600.0,"2021-12-09 17:06:30.764713","","","","","","",""
9.0,0.07266180217266083,0.0011906088160963746,"train",26800.0,"2021-12-09 17:07:01.505025","","","","","","",""
9.0,0.06637837737798691,0.0012001657463264648,"train",27000.0,"2021-12-09 17:07:31.606386","","","","","","",""
9.0,0.07458624243736267,0.001209611713164651,"train",27200.0,"2021-12-09 17:08:01.863793","","","","","","",""
9.0,0.11053674668073654,0.0012189442219846356,"train",27400.0,"2021-12-09 17:08:32.552917","","","","","","",""
9.0,0.09347379952669144,0.0012281608081237403,"train",27600.0,"2021-12-09 17:09:02.272661","","","","","","",""
9.0,0.09410712867975235,0.00123725903753381,"train",27800.0,"2021-12-09 17:09:31.741950","","","","","","",""
9.0,0.07291243225336075,0.0012462365074240303,"train",28000.0,"2021-12-09 17:10:02.009623","","","","","","",""
9.0,0.050967976450920105,0.0012550908468954918,"train",28200.0,"2021-12-09 17:10:32.303261","","","","","","",""
9.0,0.06639451533555984,0.001263819717567331,"train",28400.0,"2021-12-09 17:11:02.473112","","","","","","",""
9.0,0.0958063155412674,0.001272420814194283,"train",28600.0,"2021-12-09 17:11:32.890546","","","","","","",""
9.0,"","","val",28640.0,"2021-12-09 17:12:08.616195",0.55456337701496,0.5509375817196053,0.9349473036179151,0.608661812341727,0.48660006004085127,0.48802436582213465,0.31573054987648363
10.0,0.09182959794998169,0.0012808918652754834,"train",28800.0,"2021-12-09 17:12:35.442411","","","","","","",""
10.0,0.11332915723323822,0.0012892306336543596,"train",29000.0,"2021-12-09 17:13:05.730896","","","","","","",""
10.0,0.08858869224786758,0.0012974349171094512,"train",29200.0,"2021-12-09 17:13:35.743344","","","","","","",""
10.0,0.040722329169511795,0.0013055025489360033,"train",29400.0,"2021-12-09 17:14:05.676326","","","","","","",""
10.0,0.06898630410432816,0.0013134313985181819,"train",29600.0,"2021-12-09 17:14:35.508144","","","","","","",""
10.0,0.07827301323413849,0.0013212193718917568,"train",29800.0,"2021-12-09 17:15:06.215168","","","","","","",""
10.0,0.059141386300325394,0.0013288644122971059,"train",30000.0,"2021-12-09 17:15:36.699962","","","","","","",""
10.0,0.049331843852996826,0.001336364500722394,"train",30200.0,"2021-12-09 17:16:06.543992","","","","","","",""
10.0,0.09606599807739258,0.0013437176564367818,"train",30400.0,"2021-12-09 17:16:36.676874","","","","","","",""
10.0,0.08329010754823685,0.0013509219375135268,"train",30600.0,"2021-12-09 17:17:06.695066","","","","","","",""
10.0,0.05783252418041229,0.0013579754413428338,"train",30800.0,"2021-12-09 17:17:36.447283","","","","","","",""
10.0,0.0889366865158081,0.0013648763051343237,"train",31000.0,"2021-12-09 17:18:06.105608","","","","","","",""
10.0,0.06236720830202103,0.0013716227064089872,"train",31200.0,"2021-12-09 17:18:36.513577","","","","","","",""
10.0,0.10008078068494797,0.0013782128634804891,"train",31400.0,"2021-12-09 17:19:06.852075","","","","","","",""
10.0,"","","val",31504.0,"2021-12-09 17:19:51.899774",0.5658703467470718,0.553893543989405,0.9380628834076995,0.6030029013772604,0.4788601312786627,0.4763004813575257,0.31339706767701353
11.0,0.1131734624505043,0.0013846450359257035,"train",31600.0,"2021-12-09 17:20:09.499026","","","","","","",""
11.0,0.0666593387722969,0.0013909175250443474,"train",31800.0,"2021-12-09 17:20:38.632885","","","","","","",""
11.0,0.07998555898666382,0.0013970286743076007,"train",32000.0,"2021-12-09 17:21:08.755389","","","","","","",""
11.0,0.04741392284631729,0.0014029768697955839,"train",32200.0,"2021-12-09 17:21:38.597104","","","","","","",""
11.0,0.05402860417962074,0.0014087605406235852,"train",32400.0,"2021-12-09 17:22:08.669366","","","","","","",""
11.0,0.06388085335493088,0.0014143781593569241,"train",32600.0,"2021-12-09 17:22:38.001078","","","","","","",""
11.0,0.0825003981590271,0.0014198282424143366,"train",32800.0,"2021-12-09 17:23:07.593583","","","","","","",""
11.0,0.09886904060840607,0.0014251093504597805,"train",33000.0,"2021-12-09 17:23:37.385796","","","","","","",""
11.0,0.07349137216806412,0.001430220088782557,"train",33200.0,"2021-12-09 17:24:06.704097","","","","","","",""
11.0,0.05656540021300316,0.0014351591076656456,"train",33400.0,"2021-12-09 17:24:36.458161","","","","","","",""
11.0,0.050380218774080276,0.0014399251027421554,"train",33600.0,"2021-12-09 17:25:05.803146","","","","","","",""
11.0,0.05185474082827568,0.001444516815339803,"train",33800.0,"2021-12-09 17:25:35.881182","","","","","","",""
11.0,0.058355074375867844,0.0014489330328133188,"train",34000.0,"2021-12-09 17:26:06.063265","","","","","","",""
11.0,0.03244355693459511,0.0014531725888647022,"train",34200.0,"2021-12-09 17:26:35.649531","","","","","","",""
11.0,"","","val",34368.0,"2021-12-09 17:27:29.447698",0.5661022845877305,0.5587533545475499,0.937432162088837,0.6167881491853079,0.4930268246925496,0.5017645847171507,0.3168774421894535
12.0,0.05498425289988518,0.0014572343638512312,"train",34400.0,"2021-12-09 17:27:36.953173","","","","","","",""
12.0,0.0402415469288826,0.0014611172850811562,"train",34600.0,"2021-12-09 17:28:07.656678","","","","","","",""
12.0,0.056920651346445084,0.0014648203270969905,"train",34800.0,"2021-12-09 17:28:38.046650","","","","","","",""
12.0,0.07039760053157806,0.0014683425119463283,"train",35000.0,"2021-12-09 17:29:07.540947","","","","","","",""
12.0,0.10403618216514587,0.0014716829094401167,"train",35200.0,"2021-12-09 17:29:37.841770","","","","","","",""
12.0,0.11227879673242569,0.0014748406373983123,"train",35400.0,"2021-12-09 17:30:08.473609","","","","","","",""
12.0,0.06025519222021103,0.0014778148618828607,"train",35600.0,"2021-12-09 17:30:39.028826","","","","","","",""
12.0,0.04252290353178978,0.0014806047974179352,"train",35800.0,"2021-12-09 17:31:09.071899","","","","","","",""
12.0,0.06308727711439133,0.0014832097071973754,"train",36000.0,"2021-12-09 17:31:39.081896","","","","","","",""
12.0,0.07835900783538818,0.0014856289032792744,"train",36200.0,"2021-12-09 17:32:09.537637","","","","","","",""
12.0,0.07765854150056839,0.0014878617467676603,"train",36400.0,"2021-12-09 17:32:40.027713","","","","","","",""
12.0,0.05626083165407181,0.0014899076479812248,"train",36600.0,"2021-12-09 17:33:10.232583","","","","","","",""
12.0,0.0759248360991478,0.001491766066609054,"train",36800.0,"2021-12-09 17:33:40.719386","","","","","","",""
12.0,0.06710197776556015,0.0014934365118533235,"train",37000.0,"2021-12-09 17:34:10.621024","","","","","","",""
12.0,0.06745973229408264,0.0014949185425589123,"train",37200.0,"2021-12-09 17:34:40.139347","","","","","","",""
12.0,"","","val",37232.0,"2021-12-09 17:35:14.467167",0.5681317406934941,0.5662747425721932,0.9390886221945376,0.6133918115800369,0.4963613941032703,0.5022988246629952,0.32350023205595346
13.0,0.07747522741556168,0.0014962117673299126,"train",37400.0,"2021-12-09 17:35:42.298136","","","","","","",""
13.0,0.06625070422887802,0.0014973158446329928,"train",37600.0,"2021-12-09 17:36:12.337795","","","","","","",""
13.0,0.052009906619787216,0.0014982304828875953,"train",37800.0,"2021-12-09 17:36:41.902175","","","","","","",""
13.0,0.048386573791503906,0.0014989554405429421,"train",38000.0,"2021-12-09 17:37:11.567617","","","","","","",""
13.0,0.07207495719194412,0.0014994905261418254,"train",38200.0,"2021-12-09 17:37:41.535249","","","","","","",""
13.0,0.04258422181010246,0.0014998355983711722,"train",38400.0,"2021-12-09 17:38:11.383439","","","","","","",""
13.0,0.11246568709611893,0.0014999905660993621,"train",38600.0,"2021-12-09 17:38:41.302488","","","","","","",""
13.0,0.051812075078487396,0.0014999914650211024,"train",38800.0,"2021-12-09 17:39:11.361416","","","","","","",""
13.0,0.07922126352787018,0.0014999483563464964,"train",39000.0,"2021-12-09 17:39:41.679859","","","","","","",""
13.0,0.09094579517841339,0.001499868871209077,"train",39200.0,"2021-12-09 17:40:11.751715","","","","","","",""
13.0,0.05867162346839905,0.0014997530134643095,"train",39400.0,"2021-12-09 17:40:41.860183","","","","","","",""
13.0,0.05703926086425781,0.00149960078873193,"train",39600.0,"2021-12-09 17:41:11.477206","","","","","","",""
13.0,0.06870213896036148,0.0014994122043956724,"train",39800.0,"2021-12-09 17:41:40.995907","","","","","","",""
13.0,0.05163336917757988,0.0014991872696029117,"train",40000.0,"2021-12-09 17:42:10.630418","","","","","","",""
13.0,"","","val",40096.0,"2021-12-09 17:42:53.939820",0.5689435231357997,0.5657099961668948,0.9401248958313075,0.6167032903186527,0.4929145165030811,0.49375326105160056,0.3178756590710438
14.0,0.07009388506412506,0.0014989259952642188,"train",40200.0,"2021-12-09 17:43:12.387896","","","","","","",""
14.0,0.09329239279031754,0.0014986283940528321,"train",40400.0,"2021-12-09 17:43:43.053429","","","","","","",""
14.0,0.0589129813015461,0.0014982944804040428,"train",40600.0,"2021-12-09 17:44:13.537998","","","","","","",""
14.0,0.08339408785104752,0.0014979242705144937,"train",40800.0,"2021-12-09 17:44:43.318267","","","","","","",""
14.0,0.06776375323534012,0.0014975177823413953,"train",41000.0,"2021-12-09 17:45:13.673848","","","","","","",""
14.0,0.07763902842998505,0.0014970750356016532,"train",41200.0,"2021-12-09 17:45:43.838374","","","","","","",""
14.0,0.07672426104545593,0.0014965960517709122,"train",41400.0,"2021-12-09 17:46:13.005400","","","","","","",""
14.0,0.04384002834558487,0.0014960808540825155,"train",41600.0,"2021-12-09 17:46:42.801903","","","","","","",""
14.0,0.04577433690428734,0.0014955294675263763,"train",41800.0,"2021-12-09 17:47:13.545864","","","","","","",""
14.0,0.0724421888589859,0.0014949419188477666,"train",42000.0,"2021-12-09 17:47:42.944299","","","","","","",""
14.0,0.09291060268878937,0.0014943182365460199,"train",42200.0,"2021-12-09 17:48:12.091513","","","","","","",""
14.0,0.054084621369838715,0.001493658450873148,"train",42400.0,"2021-12-09 17:48:41.909849","","","","","","",""
14.0,0.035633694380521774,0.0014929625938323752,"train",42600.0,"2021-12-09 17:49:12.161599","","","","","","",""
14.0,0.06431858241558075,0.0014922306991765836,"train",42800.0,"2021-12-09 17:49:42.318533","","","","","","",""
14.0,"","","val",42960.0,"2021-12-09 17:50:35.718823",0.5731184042676563,0.5783499921186952,0.94051195955632,0.6437090388302634,0.5229937466512753,0.5266696075045622,0.3438278939176713
15.0,0.07915082573890686,0.0014914628024066787,"train",43000.0,"2021-12-09 17:50:44.945826","","","","","","",""
15.0,0.0913253054022789,0.001490658940769865,"train",43200.0,"2021-12-09 17:51:15.364709","","","","","","",""
15.0,0.08643629401922226,0.001489819153257841,"train",43400.0,"2021-12-09 17:51:45.020020","","","","","","",""
15.0,0.042243897914886475,0.0014889434806049059,"train",43600.0,"2021-12-09 17:52:15.422899","","","","","","",""
15.0,0.05665820091962814,0.001488031965285987,"train",43800.0,"2021-12-09 17:52:45.234869","","","","","","",""
15.0,0.05567726120352745,0.0014870846515145759,"train",44000.0,"2021-12-09 17:53:15.266935","","","","","","",""
15.0,0.08547372370958328,0.0014861015852405857,"train",44200.0,"2021-12-09 17:53:45.668373","","","","","","",""
15.0,0.057142581790685654,0.0014850828141481228,"train",44400.0,"2021-12-09 17:54:15.645630","","","","","","",""
15.0,0.07579661905765533,0.0014840283876531722,"train",44600.0,"2021-12-09 17:54:46.308163","","","","","","",""
15.0,0.08448285609483719,0.0014829383569012024,"train",44800.0,"2021-12-09 17:55:16.680469","","","","","","",""
15.0,0.0536428727209568,0.0014818127747646824,"train",45000.0,"2021-12-09 17:55:46.614104","","","","","","",""
15.0,0.059688154608011246,0.0014806516958405195,"train",45200.0,"2021-12-09 17:56:16.383963","","","","","","",""
15.0,0.08857657760381699,0.0014794551764474087,"train",45400.0,"2021-12-09 20:21:00.645330","","","","","","",""
15.0,0.0343959741294384,0.0014782232746231039,"train",45600.0,"2021-12-09 20:21:30.433012","","","","","","",""
15.0,0.047846242785453796,0.0014769560501215991,"train",45800.0,"2021-12-09 20:22:00.340760","","","","","","",""
15.0,"","","val",45824.0,"2021-12-09 20:22:33.502962",0.5688275542154703,0.5656120464153195,0.9359800707971002,0.6102488224961143,0.49373039689320775,0.4980060487677095,0.3137311743628637
16.0,0.08605901896953583,0.0014756535644102327,"train",46000.0,"2021-12-09 20:23:03.273667","","","","","","",""
16.0,0.05001449212431908,0.001474315880666705,"train",46200.0,"2021-12-09 20:23:33.061782","","","","","","",""
16.0,0.08374090492725372,0.0014729430637760146,"train",46400.0,"2021-12-09 20:24:03.547155","","","","","","",""
16.0,0.07798448204994202,0.0014715351803273095,"train",46600.0,"2021-12-09 20:24:33.702108","","","","","","",""
16.0,0.06984236091375351,0.0014700922986106582,"train",46800.0,"2021-12-09 20:25:03.945948","","","","","","",""
16.0,0.05321827903389931,0.0014686144886137376,"train",47000.0,"2021-12-09 20:25:34.188366","","","","","","",""
16.0,0.08085069805383682,0.0014671018220184372,"train",47200.0,"2021-12-09 20:26:04.583881","","","","","","",""
16.0,0.03790285810828209,0.0014655543721973834,"train",47400.0,"2021-12-09 20:26:34.351065","","","","","","",""
16.0,0.06564133614301682,0.0014639722142103793,"train",47600.0,"2021-12-09 20:27:04.199170","","","","","","",""
16.0,0.07841739058494568,0.0014623554248007645,"train",47800.0,"2021-12-09 20:27:34.489844","","","","","","",""
16.0,0.07583807408809662,0.0014607040823916924,"train",48000.0,"2021-12-09 20:28:03.868441","","","","","","",""
16.0,0.08333747833967209,0.0014590182670823268,"train",48200.0,"2021-12-09 20:28:34.294241","","","","","","",""
16.0,0.06672728806734085,0.0014572980606439557,"train",48400.0,"2021-12-09 20:29:04.320194","","","","","","",""
16.0,0.0424974150955677,0.0014555435465160257,"train",48600.0,"2021-12-09 20:29:34.127438","","","","","","",""
16.0,"","","val",48688.0,"2021-12-09 20:30:17.010357",0.5881363794503073,0.5814713446210382,0.9408256847441941,0.6359914849524667,0.5201046318426142,0.5234171514068863,0.3458961657074415
17.0,0.056374307721853256,0.001453754809802095,"train",48800.0,"2021-12-09 20:30:37.112678","","","","","","",""
17.0,0.05012735351920128,0.001451931937265704,"train",49000.0,"2021-12-09 20:31:07.494890","","","","","","",""
17.0,0.06793276220560074,0.0014500750173261682,"train",49200.0,"2021-12-09 20:31:37.151387","","","","","","",""
17.0,0.05480504035949707,0.001448184140054289,"train",49400.0,"2021-12-09 20:32:06.882197","","","","","","",""
17.0,0.07923199981451035,0.0014462593971679844,"train",49600.0,"2021-12-09 20:32:36.230831","","","","","","",""
17.0,0.05680312216281891,0.0014443008820278404,"train",49800.0,"2021-12-09 20:33:06.193242","","","","","","",""
17.0,0.08747890591621399,0.0014423086896325828,"train",50000.0,"2021-12-09 20:33:36.788614","","","","","","",""
17.0,0.04870041459798813,0.001440282916614469,"train",50200.0,"2021-12-09 20:34:07.109721","","","","","","",""
17.0,0.08126987516880035,0.0014382236612346003,"train",50400.0,"2021-12-09 20:34:36.771011","","","","","","",""
17.0,0.04159478098154068,0.0014361310233781566,"train",50600.0,"2021-12-09 20:35:07.060693","","","","","","",""
17.0,0.06517396867275238,0.0014340051045495508,"train",50800.0,"2021-12-09 20:35:37.579105","","","","","","",""
17.0,0.08128106594085693,0.0014318460078675058,"train",51000.0,"2021-12-09 20:36:06.964989","","","","","","",""
17.0,0.0734608918428421,0.0014296538380600518,"train",51200.0,"2021-12-09 20:36:37.278138","","","","","","",""
17.0,0.08346303552389145,0.0014274287014594475,"train",51400.0,"2021-12-09 20:37:06.969601","","","","","","",""
17.0,"","","val",51552.0,"2021-12-09 20:37:59.356875",0.582453902354169,0.5814884492030576,0.9428887976707411,0.6315601266017286,0.5197793720712908,0.5332490516826648,0.344227305106118
18.0,0.06631792336702347,0.0014251707059970216,"train",51600.0,"2021-12-09 20:38:09.520624","","","","","","",""
18.0,0.05856512859463692,0.0014228799611979378,"train",51800.0,"2021-12-09 20:38:39.586750","","","","","","",""
18.0,0.0676431804895401,0.0014205565781758825,"train",52000.0,"2021-12-09 20:39:09.239636","","","","","","",""
18.0,0.06905146688222885,0.0014182006696276748,"train",52200.0,"2021-12-09 20:39:39.373782","","","","","","",""
18.0,0.0436081625521183,0.0014158123498277998,"train",52400.0,"2021-12-09 20:40:10.116875","","","","","","",""
18.0,0.056603848934173584,0.0014133917346228664,"train",52600.0,"2021-12-09 20:40:40.237451","","","","","","",""
18.0,0.05012292414903641,0.001410938941425988,"train",52800.0,"2021-12-09 20:41:10.508022","","","","","","",""
18.0,0.04603974521160126,0.0014084540892110866,"train",53000.0,"2021-12-09 20:41:41.022336","","","","","","",""
18.0,0.11165443062782288,0.001405937298507123,"train",53200.0,"2021-12-09 20:42:11.359313","","","","","","",""
18.0,0.0777602419257164,0.001403388691392249,"train",53400.0,"2021-12-09 20:42:41.049262","","","","","","",""
18.0,0.0529654324054718,0.001400808391487888,"train",53600.0,"2021-12-09 20:43:11.678691","","","","","","",""
18.0,0.07629372924566269,0.0013981965239527364,"train",53800.0,"2021-12-09 20:43:42.257895","","","","","","",""
18.0,0.0786806046962738,0.0013955532154766945,"train",54000.0,"2021-12-09 20:44:11.725486","","","","","","",""
18.0,0.06421283632516861,0.0013928785942747203,"train",54200.0,"2021-12-09 20:44:41.737991","","","","","","",""
18.0,0.06303741782903671,0.0013901727900806108,"train",54400.0,"2021-12-09 20:45:11.957825","","","","","","",""
18.0,"","","val",54416.0,"2021-12-09 20:45:43.589311",0.5937028876261162,0.5928033284363589,0.9434473283574522,0.6463644316097262,0.5407960712780432,0.549852102502808,0.35401479839221034
19.0,0.0316125713288784,0.0013874359341407097,"train",54600.0,"2021-12-09 20:46:14.258608","","","","","","",""
19.0,0.09402665495872498,0.0013846681592075397,"train",54800.0,"2021-12-09 20:46:44.544755","","","","","","",""
19.0,0.05819470062851906,0.0013818695995333652,"train",55000.0,"2021-12-09 20:47:14.563731","","","","","","",""
19.0,0.04758767783641815,0.0013790403908636784,"train",55200.0,"2021-12-09 20:47:44.838115","","","","","","",""
19.0,0.05022053048014641,0.0013761806704306171,"train",55400.0,"2021-12-09 20:48:15.020429","","","","","","",""
19.0,0.05369531735777855,0.0013732905769463053,"train",55600.0,"2021-12-09 20:48:45.091683","","","","","","",""
19.0,0.07464763522148132,0.0013703702505961286,"train",55800.0,"2021-12-09 20:49:15.256630","","","","","","",""
19.0,0.06087193638086319,0.0013674198330319307,"train",56000.0,"2021-12-09 20:49:45.572217","","","","","","",""
19.0,0.0449041984975338,0.0013644394673651451,"train",56200.0,"2021-12-09 20:50:15.060797","","","","","","",""
19.0,0.05395665019750595,0.001361429298159852,"train",56400.0,"2021-12-09 20:50:45.313378","","","","","","",""
19.0,0.04232223704457283,0.0013583894714257671,"train",56600.0,"2021-12-09 20:51:15.533046","","","","","","",""
19.0,0.06601526588201523,0.001355320134611159,"train",56800.0,"2021-12-09 20:51:45.592281","","","","","","",""
19.0,0.08686912804841995,0.0013522214365956962,"train",57000.0,"2021-12-09 20:52:16.111961","","","","","","",""
19.0,0.09898518025875092,0.0013490935276832278,"train",57200.0,"2021-12-09 20:52:45.717280","","","","","","",""
19.0,"","","val",57280.0,"2021-12-09 20:53:26.963703",0.5825118868143337,0.5830904863662062,0.9414125025234726,0.6320447348399438,0.5211044750515006,0.5286529642437996,0.3365950833097813
20.0,0.046031564474105835,0.0013459365595944904,"train",57400.0,"2021-12-09 20:53:48.186695","","","","","","",""
20.0,0.03192760422825813,0.0013427506854597508,"train",57600.0,"2021-12-09 20:54:18.472222","","","","","","",""
20.0,0.035496845841407776,0.0013395360598113769,"train",57800.0,"2021-12-09 20:54:48.339512","","","","","","",""
20.0,0.06881602853536606,0.0013362928385763436,"train",58000.0,"2021-12-09 20:55:18.216925","","","","","","",""
20.0,0.06411636620759964,0.0013330211790686674,"train",58200.0,"2021-12-09 20:55:48.132890","","","","","","",""
20.0,0.04128017649054527,0.0013297212399817782,"train",58400.0,"2021-12-09 20:56:17.913746","","","","","","",""
20.0,0.051106322556734085,0.0013263931813808196,"train",58600.0,"2021-12-09 20:56:48.027919","","","","","","",""
20.0,0.07128633558750153,0.0013230371646948866,"train",58800.0,"2021-12-09 20:57:17.959393","","","","","","",""
20.0,0.04743659123778343,0.0013196533527091944,"train",59000.0,"2021-12-09 20:57:47.823798","","","","","","",""
20.0,0.06692621111869812,0.0013162419095571823,"train",59200.0,"2021-12-09 20:58:17.575643","","","","","","",""
20.0,0.08881653100252151,0.0013128030007125533,"train",59400.0,"2021-12-09 20:58:47.850559","","","","","","",""
20.0,0.06793855130672455,0.0013093367929812466,"train",59600.0,"2021-12-09 20:59:17.583993","","","","","","",""
20.0,0.05450321361422539,0.0013058434544933474,"train",59800.0,"2021-12-09 20:59:47.754380","","","","","","",""
20.0,0.03335944190621376,0.0013023231546949318,"train",60000.0,"2021-12-09 21:00:18.088955","","","","","","",""
20.0,"","","val",60144.0,"2021-12-09 21:01:09.370027",0.581584135451699,0.5976262844236382,0.9463182202357253,0.6603158989541942,0.5527815603462609,0.5591842722275343,0.36020133226831597
21.0,0.10397924482822418,0.0012987760643398464,"train",60200.0,"2021-12-09 21:01:20.980232","","","","","","",""
21.0,0.06438484787940979,0.0012952023554814276,"train",60400.0,"2021-12-09 21:01:50.689244","","","","","","",""
21.0,0.045735083520412445,0.0012916022014641544,"train",60600.0,"2021-12-09 21:02:20.765225","","","","","","",""
21.0,0.06081918627023697,0.0012879757769152418,"train",60800.0,"2021-12-09 21:02:50.631349","","","","","","",""
21.0,0.06642572581768036,0.0012843232577361692,"train",61000.0,"2021-12-09 21:03:20.982257","","","","","","",""
21.0,0.07962142676115036,0.001280644821094149,"train",61200.0,"2021-12-09 21:03:51.351427","","","","","","",""
21.0,0.07138706743717194,0.0012769406454135324,"train",61400.0,"2021-12-09 21:04:22.077575","","","","","","",""
21.0,0.06706831604242325,0.001273210910367155,"train",61600.0,"2021-12-09 21:04:52.071459","","","","","","",""
21.0,0.045246418565511703,0.0012694557968676223,"train",61800.0,"2021-12-09 21:05:21.841649","","","","","","",""
21.0,0.062073715031147,0.0012656754870585337,"train",62000.0,"2021-12-09 21:05:52.257512","","","","","","",""
21.0,0.05066864937543869,0.0012618701643056477,"train",62200.0,"2021-12-09 21:06:22.539344","","","","","","",""
21.0,0.062055472284555435,0.0012580400131879882,"train",62400.0,"2021-12-09 21:06:52.755333","","","","","","",""
21.0,0.053645048290491104,0.0012541852194888903,"train",62600.0,"2021-12-09 21:07:22.661269","","","","","","",""
21.0,0.04791717231273651,0.0012503059701869897,"train",62800.0,"2021-12-09 21:07:52.575906","","","","","","",""
21.0,0.05429892614483833,0.0012464024534471537,"train",63000.0,"2021-12-09 21:08:22.603283","","","","","","",""
21.0,"","","val",63008.0,"2021-12-09 21:08:53.160685",0.5912675402991998,0.5977136026554812,0.9451837741666756,0.6550042308175804,0.5573367523487991,0.5617723598888025,0.36730940181830396
22.0,0.054288607090711594,0.001242474858611352,"train",63200.0,"2021-12-09 21:09:25.013430","","","","","","",""
22.0,0.06286265701055527,0.0012385233761894752,"train",63400.0,"2021-12-09 21:09:55.153701","","","","","","",""
22.0,0.0652276948094368,0.0012345481978500925,"train",63600.0,"2021-12-09 21:10:25.477639","","","","","","",""
22.0,0.09607380628585815,0.001230549516411155,"train",63800.0,"2021-12-09 21:10:56.220415","","","","","","",""
22.0,0.06212981045246124,0.0012265275258306425,"train",64000.0,"2021-12-09 21:11:25.956206","","","","","","",""
22.0,0.04353184625506401,0.0012224824211971572,"train",64200.0,"2021-12-09 21:11:56.508670","","","","","","",""
22.0,0.04919501394033432,0.0012184143987204587,"train",64400.0,"2021-12-09 21:12:26.909513","","","","","","",""
22.0,0.11684910953044891,0.0012143236557219479,"train",64600.0,"2021-12-09 21:12:57.365838","","","","","","",""
22.0,0.06975206732749939,0.0012102103906250952,"train",64800.0,"2021-12-09 21:13:27.583033","","","","","","",""
22.0,0.08847355097532272,0.0012060748029458178,"train",65000.0,"2021-12-09 21:13:57.509682","","","","","","",""
22.0,0.03183967247605324,0.0012019170932827986,"train",65200.0,"2021-12-09 21:14:27.565554","","","","","","",""
22.0,0.05794971063733101,0.0011977374633077595,"train",65400.0,"2021-12-09 21:14:57.332189","","","","","","",""
22.0,0.04627109318971634,0.0011935361157556772,"train",65600.0,"2021-12-09 21:15:27.681720","","","","","","",""
22.0,0.06771180778741837,0.0011893132544149496,"train",65800.0,"2021-12-09 21:15:57.477617","","","","","","",""
22.0,"","","val",65872.0,"2021-12-09 21:16:37.380990",0.5750318914530905,0.5953373313383643,0.9436700004231408,0.6635012292505894,0.5545847915311302,0.5623357314202156,0.3584504679669787
23.0,0.07060037553310394,0.0011850690841175122,"train",66000.0,"2021-12-09 21:16:59.122045","","","","","","",""
23.0,0.08368747681379318,0.0011808038107289011,"train",66200.0,"2021-12-09 21:17:29.446504","","","","","","",""
23.0,0.04718891158699989,0.0011765176411382683,"train",66400.0,"2021-12-09 21:17:59.839913","","","","","","",""
23.0,0.0942532941699028,0.001172210783248346,"train",66600.0,"2021-12-09 21:18:29.734864","","","","","","",""
23.0,0.07692436128854752,0.0011678834459653631,"train",66800.0,"2021-12-09 21:18:59.867381","","","","","","",""
23.0,0.09547899663448334,0.0011635358391889102,"train",67000.0,"2021-12-09 21:19:29.237365","","","","","","",""
23.0,0.04363267123699188,0.0011591681738017609,"train",67200.0,"2021-12-09 21:19:59.474110","","","","","","",""
23.0,0.07953786104917526,0.0011547806616596398,"train",67400.0,"2021-12-09 21:20:29.770442","","","","","","",""
23.0,0.09658101201057434,0.0011503735155809496,"train",67600.0,"2021-12-09 21:20:59.604218","","","","","","",""
23.0,0.08899153023958206,0.0011459469493364455,"train",67800.0,"2021-12-09 21:21:29.988157","","","","","","",""
23.0,0.0500338040292263,0.0011415011776388677,"train",68000.0,"2021-12-09 21:22:00.260346","","","","","","",""
23.0,0.06108999252319336,0.001137036416132526,"train",68200.0,"2021-12-09 21:22:30.315532","","","","","","",""
23.0,0.09173920005559921,0.00113255288138284,"train",68400.0,"2021-12-09 21:22:59.904938","","","","","","",""
23.0,0.11444803327322006,0.001128050790865835,"train",68600.0,"2021-12-09 21:23:29.795653","","","","","","",""
23.0,"","","val",68736.0,"2021-12-09 21:24:19.565102",0.5925431984228227,0.5910163389422061,0.9416172092401816,0.6342607951367946,0.5384432178715343,0.5464151448734959,0.3501439771664955
24.0,0.05953917279839516,0.0011235303629575928,"train",68800.0,"2021-12-09 21:24:32.300156","","","","","","",""
24.0,0.04483222961425781,0.0011189918169236582,"train",69000.0,"2021-12-09 21:25:02.887674","","","","","","",""
24.0,0.08524107187986374,0.001114435372908406,"train",69200.0,"2021-12-09 21:25:33.200533","","","","","","",""
24.0,0.052914999425411224,0.00110986125192436,"train",69400.0,"2021-12-09 21:26:03.545338","","","","","","",""
24.0,0.10570954531431198,0.0011052696758414747,"train",69600.0,"2021-12-09 21:26:33.796684","","","","","","",""
24.0,0.050232164561748505,0.0011006608673763722,"train",69800.0,"2021-12-09 21:27:03.382304","","","","","","",""
24.0,0.10378436744213104,0.0010960350500815398,"train",70000.0,"2021-12-09 21:27:33.252396","","","","","","",""
24.0,0.03572646901011467,0.0010913924483344861,"train",70200.0,"2021-12-09 21:28:02.866102","","","","","","",""
24.0,0.061167553067207336,0.0010867332873268584,"train",70400.0,"2021-12-09 21:28:32.387780","","","","","","",""
24.0,0.048513200134038925,0.0010820577930535182,"train",70600.0,"2021-12-09 21:29:02.132579","","","","","","",""
24.0,0.08259567618370056,0.00107736619230158,"train",70800.0,"2021-12-09 21:29:32.280091","","","","","","",""
24.0,0.06762179732322693,0.0010726587126394114,"train",71000.0,"2021-12-09 21:30:02.107460","","","","","","",""
24.0,0.049099553376436234,0.001067935582405594,"train",71200.0,"2021-12-09 21:30:32.491236","","","","","","",""
24.0,0.07789064198732376,0.0010631970306978474,"train",71400.0,"2021-12-09 21:31:02.386995","","","","","","",""
24.0,0.01713847741484642,0.001058443287361918,"train",71600.0,"2021-12-09 21:31:32.214819","","","","","","",""
24.0,"","","val",71600.0,"2021-12-09 21:32:01.709360",0.5911515713788704,0.6061662383330426,0.9433110612044159,0.6607243899421663,0.5590115396266458,0.5667687477066905,0.3636260272350184
25.0,0.05501418188214302,0.0010536745829804292,"train",71800.0,"2021-12-09 21:32:35.349266","","","","","","",""
25.0,0.048835139721632004,0.0010488911488616974,"train",72000.0,"2021-12-09 21:33:05.379986","","","","","","",""
25.0,0.050034455955028534,0.0010440932170285115,"train",72200.0,"2021-12-09 21:33:35.200057","","","","","","",""
25.0,0.06698089838027954,0.0010392810202068793,"train",72400.0,"2021-12-09 21:34:05.404952","","","","","","",""
25.0,0.06495426595211029,0.0010344547918147392,"train",72600.0,"2021-12-09 21:34:35.774667","","","","","","",""
25.0,0.07185401767492294,0.0010296147659506374,"train",72800.0,"2021-12-09 21:35:05.340725","","","","","","",""
25.0,0.09212455153465271,0.0010247611773823726,"train",73000.0,"2021-12-09 21:35:35.897295","","","","","","",""
25.0,0.06238901987671852,0.0010198942615356104,"train",73200.0,"2021-12-09 21:36:05.168907","","","","","","",""
25.0,0.05887339636683464,0.0010150142544824608,"train",73400.0,"2021-12-09 21:36:35.285277","","","","","","",""
25.0,0.05419300124049187,0.0010101213929300306,"train",73600.0,"2021-12-09 21:37:05.352665","","","","","","",""
25.0,0.030506905168294907,0.0010052159142089393,"train",73800.0,"2021-12-09 21:37:35.512036","","","","","","",""
25.0,0.06186939403414726,0.001000298056261809,"train",74000.0,"2021-12-09 21:38:05.491794","","","","","","",""
25.0,0.06671120226383209,0.0009953680576317218,"train",74200.0,"2021-12-09 21:38:35.440989","","","","","","",""
25.0,0.05163544788956642,0.0009904261574506493,"train",74400.0,"2021-12-09 21:39:05.664585","","","","","","",""
25.0,"","","val",74464.0,"2021-12-09 21:39:44.779911",0.6005450539255479,0.613976271121428,0.9477360613514263,0.6653109228733974,0.577106183572554,0.5826637194922474,0.3816790151951046
26.0,0.04822057485580444,0.0009854725954278542,"train",74600.0,"2021-12-09 21:40:08.564393","","","","","","",""
26.0,0.07135242223739624,0.0009805076118382617,"train",74800.0,"2021-12-09 21:40:39.155573","","","","","","",""
26.0,0.0864899754524231,0.0009755314475108062,"train",75000.0,"2021-12-09 21:41:09.816849","","","","","","",""
26.0,0.0923812985420227,0.0009705443438167494,"train",75200.0,"2021-12-09 21:41:39.971775","","","","","","",""
26.0,0.07476510852575302,0.0009655465426579716,"train",75400.0,"2021-12-09 21:42:10.167466","","","","","","",""
26.0,0.049563102424144745,0.000960538286455239,"train",75600.0,"2021-12-09 21:42:40.419516","","","","","","",""
26.0,0.06190401688218117,0.0009555198181364453,"train",75800.0,"2021-12-09 21:43:10.314060","","","","","","",""
26.0,0.05316353961825371,0.0009504913811248273,"train",76000.0,"2021-12-09 21:43:39.815193","","","","","","",""
26.0,0.041048813611269,0.0009454532193271581,"train",76200.0,"2021-12-09 21:44:10.091678","","","","","","",""
26.0,0.07405886054039001,0.0009404055771219164,"train",76400.0,"2021-12-09 21:44:39.694226","","","","","","",""
26.0,0.05268655717372894,0.0009353486993474328,"train",76600.0,"2021-12-09 21:45:09.774161","","","","","","",""
26.0,0.035650912672281265,0.0009302828312900134,"train",76800.0,"2021-12-09 21:45:40.148247","","","","","","",""
26.0,0.04516776278614998,0.0009252082186720426,"train",77000.0,"2021-12-09 21:46:10.595096","","","","","","",""
26.0,0.07504364103078842,0.0009201251076400636,"train",77200.0,"2021-12-09 21:46:40.980515","","","","","","",""
26.0,"","","val",77328.0,"2021-12-09 21:47:29.240911",0.596950017395338,0.6082326963189402,0.943424044204776,0.6602161905610379,0.5600453605521871,0.5702932655804488,0.3688249359744749
27.0,0.0349116288125515,0.0009150337447528395,"train",77400.0,"2021-12-09 21:47:43.325351","","","","","","",""
27.0,0.041207555681467056,0.0009099343769693935,"train",77600.0,"2021-12-09 21:48:13.404253","","","","","","",""
27.0,0.0666901245713234,0.0009048272516370304,"train",77800.0,"2021-12-09 21:48:43.574281","","","","","","",""
27.0,0.027082789689302444,0.0008997126164793387,"train",78000.0,"2021-12-09 21:49:13.875953","","","","","","",""
27.0,0.09454065561294556,0.0008945907195841742,"train",78200.0,"2021-12-09 21:49:43.138704","","","","","","",""
27.0,0.05359571427106857,0.0008894618093916271,"train",78400.0,"2021-12-09 21:50:12.680723","","","","","","",""
27.0,0.07201841473579407,0.0008843261346819711,"train",78600.0,"2021-12-09 21:50:43.089233","","","","","","",""
27.0,0.04440169036388397,0.0008791839445635959,"train",78800.0,"2021-12-09 21:51:13.397348","","","","","","",""
27.0,0.034567806869745255,0.0008740354884609242,"train",79000.0,"2021-12-09 21:51:44.089448","","","","","","",""
27.0,0.05588138476014137,0.000868881016102313,"train",79200.0,"2021-12-09 21:52:14.592683","","","","","","",""
27.0,0.0526164248585701,0.0008637207775079419,"train",79400.0,"2021-12-09 21:52:44.824439","","","","","","",""
27.0,0.04463662952184677,0.000858555022977683,"train",79600.0,"2021-12-09 21:53:15.327991","","","","","","",""
27.0,0.09401845186948776,0.0008533840030789628,"train",79800.0,"2021-12-09 21:53:45.241594","","","","","","",""
27.0,0.06150660663843155,0.0008482079686346061,"train",80000.0,"2021-12-09 21:54:15.174316","","","","","","",""
27.0,"","","val",80192.0,"2021-12-09 21:55:14.024695",0.594804592369245,0.6080279032594932,0.943394566916152,0.6650482886455023,0.5649317331854973,0.5758079592346004,0.37135480054646514
28.0,0.038110267370939255,0.0008430271707106717,"train",80200.0,"2021-12-09 21:55:18.221820","","","","","","",""
28.0,0.02644040621817112,0.0008378418606042719,"train",80400.0,"2021-12-09 21:55:48.195123","","","","","","",""
28.0,0.05966261029243469,0.0008326522898313859,"train",80600.0,"2021-12-09 21:56:18.342740","","","","","","",""
28.0,0.043839700520038605,0.0008274587101146581,"train",80800.0,"2021-12-09 21:56:47.609390","","","","","","",""
28.0,0.08568114787340164,0.0008222613733711887,"train",81000.0,"2021-12-09 21:57:18.008526","","","","","","",""
28.0,0.07205873727798462,0.0008170605317003136,"train",81200.0,"2021-12-09 21:57:47.969277","","","","","","",""
28.0,0.04477192088961601,0.0008118564373713784,"train",81400.0,"2021-12-09 21:58:18.456059","","","","","","",""
28.0,0.06560355424880981,0.000806649342811499,"train",81600.0,"2021-12-09 21:58:48.814452","","","","","","",""
28.0,0.03765175864100456,0.00080143950059332,"train",81800.0,"2021-12-09 21:59:18.511275","","","","","","",""
28.0,0.03966914862394333,0.0007962271634227617,"train",82000.0,"2021-12-09 21:59:48.948827","","","","","","",""
28.0,0.03500102087855339,0.0007910125841267636,"train",82200.0,"2021-12-09 22:00:18.985273","","","","","","",""
28.0,0.03574732691049576,0.0007857960156410207,"train",82400.0,"2021-12-09 22:00:48.753344","","","","","","",""
28.0,0.08010536432266235,0.0007805777109977147,"train",82600.0,"2021-12-09 22:01:19.039874","","","","","","",""
28.0,0.03011981025338173,0.0007753579233132402,"train",82800.0,"2021-12-09 22:01:48.992824","","","","","","",""
28.0,0.04850850999355316,0.0007701369057759273,"train",83000.0,"2021-12-09 22:02:19.027433","","","","","","",""
28.0,"","","val",83056.0,"2021-12-09 22:02:56.808602",0.5957903281920446,0.6151677941769788,0.9455773456007209,0.656775095082429,0.569205233571082,0.5774815433029441,0.37071108125130103
29.0,0.035439588129520416,0.000764914911633761,"train",83200.0,"2021-12-09 22:03:21.166428","","","","","","",""
29.0,0.04825681820511818,0.0007596921941820971,"train",83400.0,"2021-12-09 22:03:51.332926","","","","","","",""
29.0,0.03590254858136177,0.0007544690067513755,"train",83600.0,"2021-12-09 22:04:21.194337","","","","","","",""
29.0,0.049740541726350784,0.000749245602694833,"train",83800.0,"2021-12-09 22:04:50.373733","","","","","","",""
29.0,0.05665237456560135,0.0007440222353762136,"train",84000.0,"2021-12-09 22:05:20.711388","","","","","","",""
29.0,0.040061719715595245,0.0007387991581574799,"train",84200.0,"2021-12-09 22:05:51.021392","","","","","","",""
29.0,0.03997296094894409,0.000733576624386522,"train",84400.0,"2021-12-09 22:06:20.910552","","","","","","",""
29.0,0.033033713698387146,0.000728354887384871,"train",84600.0,"2021-12-09 22:06:51.394572","","","","","","",""
29.0,0.07223378866910934,0.0007231342004354096,"train",84800.0,"2021-12-09 22:07:21.495256","","","","","","",""
29.0,0.07002896815538406,0.0007179148167700873,"train",85000.0,"2021-12-09 22:07:51.693287","","","","","","",""
29.0,0.08228021115064621,0.0007126969895576374,"train",85200.0,"2021-12-09 22:08:21.627561","","","","","","",""
29.0,0.027259059250354767,0.0007074809718912965,"train",85400.0,"2021-12-09 22:08:52.143034","","","","","","",""
29.0,0.05956297740340233,0.0007022670167765285,"train",85600.0,"2021-12-09 22:09:22.107775","","","","","","",""
29.0,0.05711463838815689,0.0006970553771187522,"train",85800.0,"2021-12-09 22:09:52.103867","","","","","","",""
29.0,"","","val",85920.0,"2021-12-09 22:10:39.645418",0.5965441261741853,0.6200800827017414,0.9465385520405382,0.6761371394320869,0.5859837472311473,0.5961042863833591,0.3875364154023741
30.0,0.026157861575484276,0.0006918463057110734,"train",86000.0,"2021-12-09 22:10:55.164578","","","","","","",""
30.0,0.030671944841742516,0.0006866400552220246,"train",86200.0,"2021-12-09 22:11:25.322818","","","","","","",""
30.0,0.04198493808507919,0.000681436878183308,"train",86400.0,"2021-12-09 22:11:55.812455","","","","","","",""
30.0,0.07951021194458008,0.000676237026977546,"train",86600.0,"2021-12-09 22:12:25.767965","","","","","","",""
30.0,0.05783785507082939,0.0006710407538260408,"train",86800.0,"2021-12-09 22:12:56.145823","","","","","","",""
30.0,0.07904909551143646,0.0006658483107765386,"train",87000.0,"2021-12-09 22:13:26.683860","","","","","","",""
30.0,0.06230267509818077,0.0006606599496910055,"train",87200.0,"2021-12-09 22:13:57.146832","","","","","","",""
30.0,0.06619046628475189,0.0006554759222334089,"train",87400.0,"2021-12-09 22:14:27.449736","","","","","","",""
30.0,0.026093123480677605,0.0006502964798575119,"train",87600.0,"2021-12-09 22:14:57.586892","","","","","","",""
30.0,0.06132799759507179,0.0006451218737946763,"train",87800.0,"2021-12-09 22:15:27.724627","","","","","","",""
30.0,0.07567857950925827,0.000639952355041676,"train",88000.0,"2021-12-09 22:15:58.383830","","","","","","",""
30.0,0.06811915338039398,0.0006347881743485223,"train",88200.0,"2021-12-09 22:16:29.013500","","","","","","",""
30.0,0.04294194281101227,0.0006296295822063018,"train",88400.0,"2021-12-09 22:16:59.199447","","","","","","",""
30.0,0.06817243993282318,0.0006244768288350246,"train",88600.0,"2021-12-09 22:17:29.398696","","","","","","",""
30.0,"","","val",88784.0,"2021-12-09 22:18:26.449869",0.5962542038733619,0.6153918532573458,0.9479612800803083,0.6783597561258092,0.5884727348117235,0.5962050755221715,0.38376097791714064
31.0,0.07472429424524307,0.0006193301641714902,"train",88800.0,"2021-12-09 22:18:32.148049","","","","","","",""
31.0,0.036244384944438934,0.0006141898378571606,"train",89000.0,"2021-12-09 22:19:02.309773","","","","","","",""
31.0,0.030097506940364838,0.0006090560992260541,"train",89200.0,"2021-12-09 22:19:32.604036","","","","","","",""
31.0,0.0433778278529644,0.00060392919729265,"train",89400.0,"2021-12-09 22:20:02.685093","","","","","","",""
31.0,0.08555115759372711,0.0005988093807398104,"train",89600.0,"2021-12-09 22:20:32.125605","","","","","","",""
31.0,0.03529823198914528,0.0005936968979067171,"train",89800.0,"2021-12-09 22:21:01.884616","","","","","","",""
31.0,0.03697021305561066,0.0005885919967768271,"train",90000.0,"2021-12-09 22:21:31.927397","","","","","","",""
31.0,0.0323314294219017,0.0005834949249658419,"train",90200.0,"2021-12-09 22:22:01.533263","","","","","","",""
31.0,0.0388103649020195,0.0005784059297096999,"train",90400.0,"2021-12-09 22:22:31.356972","","","","","","",""
31.0,0.08886460959911346,0.0005733252578525808,"train",90600.0,"2021-12-09 22:23:01.327804","","","","","","",""
31.0,0.0376470685005188,0.0005682531558349343,"train",90800.0,"2021-12-09 22:23:30.595806","","","","","","",""
31.0,0.026738304644823074,0.000563189869681526,"train",91000.0,"2021-12-09 22:24:00.873479","","","","","","",""
31.0,0.04308582842350006,0.0005581356449895034,"train",91200.0,"2021-12-09 22:24:30.645139","","","","","","",""
31.0,0.08351371437311172,0.0005530907269164842,"train",91400.0,"2021-12-09 22:25:00.016555","","","","","","",""
31.0,0.08272425830364227,0.0005480553601686631,"train",91600.0,"2021-12-09 22:25:30.422421","","","","","","",""
31.0,"","","val",91648.0,"2021-12-09 22:26:07.185872",0.5911515713788704,0.6115125383720905,0.9442570476492569,0.6659620895047114,0.5719587831035489,0.5759467064322055,0.37265966746666856
32.0,0.08522237837314606,0.0005430297889889433,"train",91800.0,"2021-12-09 22:26:33.379246","","","","","","",""
32.0,0.03149723634123802,0.0005380142571450901,"train",92000.0,"2021-12-09 22:27:03.670011","","","","","","",""
32.0,0.03490475192666054,0.0005330090079179048,"train",92200.0,"2021-12-09 22:27:34.066002","","","","","","",""
32.0,0.03335284814238548,0.0005280142840894261,"train",92400.0,"2021-12-09 22:28:04.041709","","","","","","",""
32.0,0.030884018167853355,0.0005230303279311529,"train",92600.0,"2021-12-09 22:28:34.099932","","","","","","",""
32.0,0.019941071048378944,0.0005180573811922929,"train",92800.0,"2021-12-09 22:29:03.830034","","","","","","",""
32.0,0.047195278108119965,0.0005130956850880373,"train",93000.0,"2021-12-09 22:29:33.770821","","","","","","",""
32.0,0.032837580889463425,0.0005081454802878591,"train",93200.0,"2021-12-09 22:30:03.553394","","","","","","",""
32.0,0.058736320585012436,0.0005032070069038396,"train",93400.0,"2021-12-09 22:30:33.400404","","","","","","",""
32.0,0.05296696722507477,0.0004982805044790234,"train",93600.0,"2021-12-09 22:31:02.858536","","","","","","",""
32.0,0.066975437104702,0.0004933662119757969,"train",93800.0,"2021-12-09 22:31:32.835767","","","","","","",""
32.0,0.04024215415120125,0.0004884643677642987,"train",94000.0,"2021-12-09 22:32:02.079651","","","","","","",""
32.0,0.05137374997138977,0.0004835752096108569,"train",94200.0,"2021-12-09 22:32:31.981465","","","","","","",""
32.0,0.040444858372211456,0.00047869897466645627,"train",94400.0,"2021-12-09 22:33:02.122635","","","","","","",""
32.0,"","","val",94512.0,"2021-12-09 22:33:48.198984",0.6033862924736171,0.6187485769340598,0.9466886659405238,0.6774306901054358,0.5841257778145983,0.5955728759206218,0.38406144271745446
33.0,0.07506909221410751,0.0004738358994552353,"train",94600.0,"2021-12-09 22:34:04.573257","","","","","","",""
33.0,0.07832437753677368,0.0004689862198630126,"train",94800.0,"2021-12-09 22:34:34.725072","","","","","","",""
33.0,0.04505227878689766,0.00046415017112584617,"train",95000.0,"2021-12-09 22:35:04.844604","","","","","","",""
33.0,0.0834258496761322,0.00045932798781862295,"train",95200.0,"2021-12-09 22:35:34.919299","","","","","","",""
33.0,0.05360320210456848,0.00045451990384368036,"train",95400.0,"2021-12-09 22:36:05.028449","","","","","","",""
33.0,0.054108478128910065,0.0004497261524194606,"train",95600.0,"2021-12-09 22:36:35.570250","","","","","","",""
33.0,0.061390914022922516,0.0004449469660691991,"train",95800.0,"2021-12-09 22:37:05.806508","","","","","","",""
33.0,0.06748538464307785,0.00044018257660964464,"train",96000.0,"2021-12-09 22:37:35.894425","","","","","","",""
33.0,0.06179986894130707,0.00043543321513981654,"train",96200.0,"2021-12-09 22:38:06.615133","","","","","","",""
33.0,0.07711627334356308,0.00043069911202979315,"train",96400.0,"2021-12-09 22:38:36.962795","","","","","","",""
33.0,0.02798597887158394,0.00042598049690953924,"train",96600.0,"2021-12-09 22:39:06.368875","","","","","","",""
33.0,0.08932946622371674,0.0004212775986577678,"train",96800.0,"2021-12-09 22:39:37.133100","","","","","","",""
33.0,0.0859762579202652,0.00041659064539083593,"train",97000.0,"2021-12-09 22:40:07.620704","","","","","","",""
33.0,0.015305888839066029,0.0004119198644516826,"train",97200.0,"2021-12-09 22:40:37.986747","","","","","","",""
33.0,"","","val",97376.0,"2021-12-09 22:41:33.941840",0.5956163748115505,0.61531178192845,0.94422045277415,0.6764555325633803,0.5885086021001065,0.5938630787341999,0.38446007645673447
34.0,0.04449356719851494,0.0004072654823988003,"train",97400.0,"2021-12-09 22:41:40.617210","","","","","","",""
34.0,0.04602011665701866,0.0004026277249952453,"train",97600.0,"2021-12-09 22:42:11.028027","","","","","","",""
34.0,0.03119276836514473,0.00039800681719768676,"train",97800.0,"2021-12-09 22:42:40.901494","","","","","","",""
34.0,0.07524323463439941,0.0003934029831454964,"train",98000.0,"2021-12-09 22:43:10.796285","","","","","","",""
34.0,0.03323527052998543,0.00038881644614987453,"train",98200.0,"2021-12-09 22:43:41.118388","","","","","","",""
34.0,0.03621552139520645,0.0003842474286830211,"train",98400.0,"2021-12-09 22:44:11.402538","","","","","","",""
34.0,0.0652090385556221,0.00037969615236734054,"train",98600.0,"2021-12-09 22:44:41.389514","","","","","","",""
34.0,0.03953951969742775,0.0003751628379646962,"train",98800.0,"2021-12-09 22:45:11.606917","","","","","","",""
34.0,0.07470366358757019,0.0003706477053656991,"train",99000.0,"2021-12-09 22:45:41.632673","","","","","","",""
34.0,0.02711378037929535,0.00036615097357904327,"train",99200.0,"2021-12-09 22:46:11.777452","","","","","","",""
34.0,0.025670388713479042,0.0003616728607208823,"train",99400.0,"2021-12-09 22:46:40.869510","","","","","","",""
34.0,0.11121566593647003,0.0003572135840042499,"train",99600.0,"2021-12-09 22:47:10.336349","","","","","","",""
34.0,0.04487529397010803,0.0003527733597285231,"train",99800.0,"2021-12-09 22:47:40.880690","","","","","","",""
34.0,0.04285086691379547,0.0003483524032689322,"train",100000.0,"2021-12-09 22:48:10.744668","","","","","","",""
34.0,0.0789448544383049,0.0003439509290661109,"train",100200.0,"2021-12-09 22:48:40.451768","","","","","","",""
34.0,"","","val",100240.0,"2021-12-09 22:49:15.671290",0.6010669140670301,0.6223624032854581,0.946287752900016,0.6781637179399095,0.5835751922703026,0.5957167276290952,0.38401283975556905
35.0,0.028426580131053925,0.00033956915061569864,"train",100400.0,"2021-12-09 22:49:43.175545","","","","","","",""
35.0,0.059066884219646454,0.0003352072804579814,"train",100600.0,"2021-12-09 22:50:12.962470","","","","","","",""
35.0,0.019866708666086197,0.00033086553016758427,"train",100800.0,"2021-12-09 22:50:42.797603","","","","","","",""
35.0,0.0658443495631218,0.0003265441103432085,"train",101000.0,"2021-12-09 22:51:12.543099","","","","","","",""
35.0,0.04090842977166176,0.000322243230597416,"train",101200.0,"2021-12-09 22:51:42.945493","","","","","","",""
35.0,0.06331132352352142,0.00031796309954646216,"train",101400.0,"2021-12-09 22:52:12.957427","","","","","","",""
35.0,0.02964354120194912,0.00031370392480017787,"train",101600.0,"2021-12-09 22:52:43.304405","","","","","","",""
35.0,0.035599056631326675,0.00030946591295189657,"train",101800.0,"2021-12-09 22:53:13.157936","","","","","","",""
35.0,0.038828711956739426,0.00030524926956843664,"train",102000.0,"2021-12-09 22:53:42.962842","","","","","","",""
35.0,0.033326346427202225,0.00030105419918012794,"train",102200.0,"2021-12-09 22:54:13.669868","","","","","","",""
35.0,0.039129164069890976,0.0002968809052708919,"train",102400.0,"2021-12-09 22:54:43.929843","","","","","","",""
35.0,0.06331367790699005,0.00029272959026837127,"train",102600.0,"2021-12-09 22:55:13.599556","","","","","","",""
35.0,0.08480431884527206,0.0002886004555341113,"train",102800.0,"2021-12-09 22:55:43.362649","","","","","","",""
35.0,0.026898449286818504,0.0002844937013537927,"train",103000.0,"2021-12-09 22:56:14.059778","","","","","","",""
35.0,"","","val",103104.0,"2021-12-09 22:56:59.244822",0.5970080018555027,0.6203370078245973,0.9430126925846629,0.6741155876674559,0.5872362319405664,0.5949704569202872,0.3832422728629202
36.0,0.015959445387125015,0.00028040952692751645,"train",103200.0,"2021-12-09 22:57:16.667035","","","","","","",""
36.0,0.0493120476603508,0.00027634813036014113,"train",103400.0,"2021-12-09 22:57:46.876100","","","","","","",""
36.0,0.03541583940386772,0.0002723097086516756,"train",103600.0,"2021-12-09 22:58:17.368762","","","","","","",""
36.0,0.057719048112630844,0.00026829445768772076,"train",103800.0,"2021-12-09 22:58:47.649737","","","","","","",""
36.0,0.04497729241847992,0.00026430257222996974,"train",104000.0,"2021-12-09 22:59:17.777614","","","","","","",""
36.0,0.04530974477529526,0.0002603342459067606,"train",104200.0,"2021-12-09 22:59:47.660274","","","","","","",""
36.0,0.04150734096765518,0.00025638967120368404,"train",104400.0,"2021-12-09 23:00:18.044548","","","","","","",""
36.0,0.014235555194318295,0.0002524690394542469,"train",104600.0,"2021-12-09 23:00:47.757074","","","","","","",""
36.0,0.040227048099040985,0.00024857254083059154,"train",104800.0,"2021-12-09 23:01:17.607051","","","","","","",""
36.0,0.04320826381444931,0.00024470036433427107,"train",105000.0,"2021-12-09 23:01:47.393859","","","","","","",""
36.0,0.026390235871076584,0.0002408526977870828,"train",105200.0,"2021-12-09 23:02:17.098807","","","","","","",""
36.0,0.048790570348501205,0.00023702972782195625,"train",105400.0,"2021-12-09 23:02:46.848484","","","","","","",""
36.0,0.04117979109287262,0.0002332316398739016,"train",105600.0,"2021-12-09 23:03:16.954456","","","","","","",""
36.0,0.028082547709345818,0.00022945861817101469,"train",105800.0,"2021-12-09 23:03:46.597137","","","","","","",""
36.0,"","","val",105968.0,"2021-12-09 23:04:41.452917",0.598747535660443,0.6219982714216813,0.943789417766083,0.6774078992253537,0.5922976393083024,0.6001722525069983,0.3895068543941754
37.0,0.05315057933330536,0.00022571084572554087,"train",106000.0,"2021-12-09 23:04:49.593108","","","","","","",""
37.0,0.038644466549158096,0.00022198850432499892,"train",106200.0,"2021-12-09 23:05:19.659077","","","","","","",""
37.0,0.037815626710653305,0.0002182917745233608,"train",106400.0,"2021-12-09 23:05:49.706744","","","","","","",""
37.0,0.03005876950919628,0.00021462083563229665,"train",106600.0,"2021-12-09 23:06:19.802343","","","","","","",""
37.0,0.04018186032772064,0.000210975865712476,"train",106800.0,"2021-12-09 23:06:49.503670","","","","","","",""
37.0,0.059695348143577576,0.00020735704156493067,"train",107000.0,"2021-12-09 23:07:20.057306","","","","","","",""
37.0,0.04185068979859352,0.0002037645387224784,"train",107200.0,"2021-12-09 23:07:50.772102","","","","","","",""
37.0,0.0640459656715393,0.00020019853144121047,"train",107400.0,"2021-12-09 23:08:20.712768","","","","","","",""
37.0,0.0649612620472908,0.00019665919269203717,"train",107600.0,"2021-12-09 23:08:50.396215","","","","","","",""
37.0,0.06625165790319443,0.00019314669415229987,"train",107800.0,"2021-12-09 23:09:20.407906","","","","","","",""
37.0,0.028935637325048447,0.0001896612061974411,"train",108000.0,"2021-12-09 23:09:50.045750","","","","","","",""
37.0,0.058664433658123016,0.00018620289789274264,"train",108200.0,"2021-12-09 23:10:20.447107","","","","","","",""
37.0,0.024490537121891975,0.0001827719369851246,"train",108400.0,"2021-12-09 23:10:50.500008","","","","","","",""
37.0,0.05218406766653061,0.00017936848989500798,"train",108600.0,"2021-12-09 23:11:20.638846","","","","","","",""
37.0,0.038231898099184036,0.00017599272170824178,"train",108800.0,"2021-12-09 23:11:50.599291","","","","","","",""
37.0,"","","val",108832.0,"2021-12-09 23:12:24.283407",0.5929490896439754,0.6210598070423595,0.9447000956392138,0.6742314677925869,0.5903241099927229,0.5978532102567942,0.38318227954764433
38.0,0.03913445025682449,0.0001726447961680981,"train",109000.0,"2021-12-09 23:12:52.858039","","","","","","",""
38.0,0.047889139503240585,0.00016932487566732684,"train",109200.0,"2021-12-09 23:13:23.306760","","","","","","",""
38.0,0.03830288350582123,0.0001660331212402802,"train",109400.0,"2021-12-09 23:13:53.123183","","","","","","",""
38.0,0.02764158323407173,0.00016276969255510137,"train",109600.0,"2021-12-09 23:14:23.287035","","","","","","",""
38.0,0.05918130651116371,0.00015953474790597947,"train",109800.0,"2021-12-09 23:14:52.954487","","","","","","",""
38.0,0.041765518486499786,0.00015632844420547206,"train",110000.0,"2021-12-09 23:15:22.315495","","","","","","",""
38.0,0.08101114630699158,0.00015315093697689368,"train",110200.0,"2021-12-09 23:15:51.733552","","","","","","",""
38.0,0.0863645151257515,0.00015000238034677092,"train",110400.0,"2021-12-09 23:16:21.809100","","","","","","",""
38.0,0.062011756002902985,0.00014688292703736916,"train",110600.0,"2021-12-09 23:16:51.671067","","","","","","",""
38.0,0.06853552162647247,0.00014379272835928205,"train",110800.0,"2021-12-09 23:17:21.786322","","","","","","",""
38.0,0.04434792324900627,0.00014073193420409362,"train",111000.0,"2021-12-09 23:17:52.007282","","","","","","",""
38.0,0.03397424519062042,0.00013770069303710707,"train",111200.0,"2021-12-09 23:18:22.663215","","","","","","",""
38.0,0.04510510712862015,0.00013469915189014345,"train",111400.0,"2021-12-09 23:18:52.187400","","","","","","",""
38.0,0.07870100438594818,0.0001317274563544105,"train",111600.0,"2021-12-09 23:19:22.080118","","","","","","",""
38.0,"","","val",111696.0,"2021-12-09 23:20:05.544333",0.59660211063435,0.6241331956890828,0.9436769788836912,0.6826493664459814,0.6013417436363862,0.6056009993714668,0.39219803822331917
39.0,0.0287928469479084,0.00012878575057343996,"train",111800.0,"2021-12-09 23:20:24.610099","","","","","","",""
39.0,0.015170855447649956,0.00012587417723609502,"train",112000.0,"2021-12-09 23:20:55.184575","","","","","","",""
39.0,0.02336765266954899,0.00012299287756965168,"train",112200.0,"2021-12-09 23:21:25.338534","","","","","","",""
39.0,0.04250768572092056,0.0001201419913329457,"train",112400.0,"2021-12-09 23:21:55.672046","","","","","","",""
39.0,0.04697098582983017,0.00011732165680959525,"train",112600.0,"2021-12-09 23:22:25.681383","","","","","","",""
39.0,0.03550596162676811,0.00011453201080129247,"train",112800.0,"2021-12-09 23:22:55.712733","","","","","","",""
39.0,0.014293856918811798,0.00011177318862116848,"train",113000.0,"2021-12-09 23:23:25.816387","","","","","","",""
39.0,0.06664393842220306,0.00010904532408722988,"train",113200.0,"2021-12-09 23:23:55.233206","","","","","","",""
39.0,0.04345163330435753,0.00010634854951586687,"train",113400.0,"2021-12-09 23:24:25.474596","","","","","","",""
39.0,0.01740421913564205,0.0001036829957154369,"train",113600.0,"2021-12-09 23:24:55.590015","","","","","","",""
39.0,0.03681173548102379,0.00010104879197991818,"train",113800.0,"2021-12-09 23:25:25.365199","","","","","","",""
39.0,0.0803813487291336,9.844606608263903e-05,"train",114000.0,"2021-12-09 23:25:55.502358","","","","","","",""
39.0,0.06863684952259064,9.587494427008e-05,"train",114200.0,"2021-12-09 23:26:25.678975","","","","","","",""
39.0,0.04723085090517998,9.333555125575017e-05,"train",114400.0,"2021-12-09 23:26:55.513213","","","","","","",""
39.0,"","","val",114560.0,"2021-12-09 23:27:49.006975",0.6003131160848892,0.621195189039449,0.9425084115149994,0.6794230691892011,0.5910289088703663,0.6030177172025847,0.38782665211702994
40.0,0.04204721376299858,9.082801021413758e-05,"train",114600.0,"2021-12-09 23:27:58.027553","","","","","","",""
40.0,0.03492514044046402,8.835244277473586e-05,"train",114800.0,"2021-12-09 23:28:27.999616","","","","","","",""
40.0,0.03168276697397232,8.590896901614222e-05,"train",115000.0,"2021-12-09 23:28:58.685965","","","","","","",""
40.0,0.048023439943790436,8.34977074602355e-05,"train",115200.0,"2021-12-09 23:29:29.065619","","","","","","",""
40.0,0.0313139483332634,8.111877506642539e-05,"train",115400.0,"2021-12-09 23:29:59.074578","","","","","","",""
40.0,0.03261161223053932,7.877228722598018e-05,"train",115600.0,"2021-12-09 23:30:29.256068","","","","","","",""
40.0,0.054363176226615906,7.645835775642928e-05,"train",115800.0,"2021-12-09 23:30:59.662900","","","","","","",""
40.0,0.056175146251916885,7.417709889604256e-05,"train",116000.0,"2021-12-09 23:31:29.838778","","","","","","",""
40.0,0.04622724652290344,7.192862129838602e-05,"train",116200.0,"2021-12-09 23:31:59.817007","","","","","","",""
40.0,0.06614173203706741,6.971303402695531e-05,"train",116400.0,"2021-12-09 23:32:30.269025","","","","","","",""
40.0,0.0467119999229908,6.753044454988358e-05,"train",116600.0,"2021-12-09 23:33:00.109736","","","","","","",""
40.0,0.0288421381264925,6.538095873473143e-05,"train",116800.0,"2021-12-09 23:33:30.195026","","","","","","",""
40.0,0.04219287633895874,6.326468084334928e-05,"train",117000.0,"2021-12-09 23:34:00.507647","","","","","","",""
40.0,0.03915393725037575,6.118171352682149e-05,"train",117200.0,"2021-12-09 23:34:30.192983","","","","","","",""
40.0,0.019402431324124336,5.9132157820486953e-05,"train",117400.0,"2021-12-09 23:34:59.539115","","","","","","",""
40.0,"","","val",117424.0,"2021-12-09 23:35:32.675822",0.6000231937840659,0.6227679201544466,0.9433334585593124,0.6809348760466521,0.5973719401075684,0.6046956686931361,0.39164665568726753
41.0,0.026442259550094604,5.7116113139037906e-05,"train",117600.0,"2021-12-09 23:36:02.615905","","","","","","",""
41.0,0.08932704478502274,5.513367727169828e-05,"train",117800.0,"2021-12-09 23:36:32.600092","","","","","","",""
41.0,0.031340017914772034,5.318494637748053e-05,"train",118000.0,"2021-12-09 23:37:03.067776","","","","","","",""
41.0,0.05339836701750755,5.127001498052029e-05,"train",118200.0,"2021-12-09 23:37:32.674499","","","","","","",""
41.0,0.0271388441324234,4.938897596549283e-05,"train",118400.0,"2021-12-09 23:38:02.755160","","","","","","",""
41.0,0.026436980813741684,4.754192057310689e-05,"train",118600.0,"2021-12-09 23:38:33.110296","","","","","","",""
41.0,0.037336111068725586,4.572893839567904e-05,"train",118800.0,"2021-12-09 23:39:03.340835","","","","","","",""
41.0,0.029900046065449715,4.395011737278802e-05,"train",119000.0,"2021-12-09 23:39:33.154662","","","","","","",""
41.0,0.03557312488555908,4.2205543787009264e-05,"train",119200.0,"2021-12-09 23:40:03.121700","","","","","","",""
41.0,0.03990577533841133,4.049530225972966e-05,"train",119400.0,"2021-12-09 23:40:33.051388","","","","","","",""
41.0,0.033740509301424026,3.8819475747043115e-05,"train",119600.0,"2021-12-09 23:41:03.807918","","","","","","",""
41.0,0.03524572402238846,3.7178145535726356e-05,"train",119800.0,"2021-12-09 23:41:34.128107","","","","","","",""
41.0,0.07985351234674454,3.5571391239296455e-05,"train",120000.0,"2021-12-09 23:42:04.074923","","","","","","",""
41.0,0.0419003888964653,3.3999290794149086e-05,"train",120200.0,"2021-12-09 23:42:33.958622","","","","","","",""
41.0,"","","val",120288.0,"2021-12-09 23:43:16.383397",0.598921489040937,0.6238911309937906,0.9433997605303106,0.6797954789542608,0.5963771056606793,0.6050495986769986,0.3885863387991026
42.0,0.07181176543235779,3.246192045577766e-05,"train",120400.0,"2021-12-09 23:43:36.154656","","","","","","",""
42.0,0.028309497982263565,3.0959354795075426e-05,"train",120600.0,"2021-12-09 23:44:06.272515","","","","","","",""
42.0,0.036877457052469254,2.949166669471745e-05,"train",120800.0,"2021-12-09 23:44:36.473403","","","","","","",""
42.0,0.0453011579811573,2.8058927345626228e-05,"train",121000.0,"2021-12-09 23:45:06.256612","","","","","","",""
42.0,0.039492856711149216,2.6661206243517894e-05,"train",121200.0,"2021-12-09 23:45:36.577725","","","","","","",""
42.0,0.03203217312693596,2.5298571185531616e-05,"train",121400.0,"2021-12-09 23:46:07.034456","","","","","","",""
42.0,0.020657310262322426,2.397108826694097e-05,"train",121600.0,"2021-12-09 23:46:36.620488","","","","","","",""
42.0,0.017252985388040543,2.2678821877948106e-05,"train",121800.0,"2021-12-09 23:47:07.088031","","","","","","",""
42.0,0.03756891191005707,2.1421834700560183e-05,"train",122000.0,"2021-12-09 23:47:37.294119","","","","","","",""
42.0,0.046301499009132385,2.0200187705549136e-05,"train",122200.0,"2021-12-09 23:48:06.934307","","","","","","",""
42.0,0.0673687532544136,1.9013940149494224e-05,"train",122400.0,"2021-12-09 23:48:37.349587","","","","","","",""
42.0,0.025418967008590698,1.786314957190809e-05,"train",122600.0,"2021-12-09 23:49:07.492731","","","","","","",""
42.0,0.03464528173208237,1.674787179244501e-05,"train",122800.0,"2021-12-09 23:49:37.696684","","","","","","",""
42.0,0.044984277337789536,1.5668160908193816e-05,"train",123000.0,"2021-12-09 23:50:07.502338","","","","","","",""
42.0,"","","val",123152.0,"2021-12-09 23:50:59.442844",0.6009509451467007,0.6249077596182178,0.9434828419795674,0.6791048403184976,0.5923077952830561,0.6021233061436783,0.38733476727992844
43.0,0.02776092104613781,1.4624069291054164e-05,"train",123200.0,"2021-12-09 23:51:09.497776","","","","","","",""
43.0,0.03867558389902115,1.3615647585195924e-05,"train",123400.0,"2021-12-09 23:51:39.934196","","","","","","",""
43.0,0.036587294191122055,1.2642944704602066e-05,"train",123600.0,"2021-12-09 23:52:10.542257","","","","","","",""
43.0,0.06439591944217682,1.1706007830697228e-05,"train",123800.0,"2021-12-09 23:52:40.721408","","","","","","",""
43.0,0.08274005353450775,1.0804882410058394e-05,"train",124000.0,"2021-12-09 23:53:10.642927","","","","","","",""
43.0,0.016774246469140053,9.93961215221067e-06,"train",124200.0,"2021-12-09 23:53:41.074193","","","","","","",""
43.0,0.05615397170186043,9.110239027506983e-06,"train",124400.0,"2021-12-09 23:54:11.538160","","","","","","",""
43.0,0.0388747863471508,8.31680326509255e-06,"train",124600.0,"2021-12-09 23:54:41.656458","","","","","","",""
43.0,0.02407257631421089,7.559343350953455e-06,"train",124800.0,"2021-12-09 23:55:11.434542","","","","","","",""
43.0,0.06609378010034561,6.83789602604972e-06,"train",125000.0,"2021-12-09 23:55:40.853406","","","","","","",""
43.0,0.017335256561636925,6.152496284533334e-06,"train",125200.0,"2021-12-09 23:56:10.994953","","","","","","",""
43.0,0.07331844419240952,5.50317737205086e-06,"train",125400.0,"2021-12-09 23:56:41.459439","","","","","","",""
43.0,0.06443190574645996,4.8899707841306486e-06,"train",125600.0,"2021-12-09 23:57:11.708640","","","","","","",""
43.0,0.028244642540812492,4.31290626465532e-06,"train",125800.0,"2021-12-09 23:57:41.567718","","","","","","",""
43.0,0.04620395600795746,3.772011804418921e-06,"train",126000.0,"2021-12-09 23:58:11.985953","","","","","","",""
43.0,"","","val",126016.0,"2021-12-09 23:58:43.396914",0.5977617998376435,0.6236104050889657,0.9426678993011535,0.6813938016801432,0.5991482594949052,0.6061763527460526,0.3910849237456366
44.0,0.03006841242313385,3.2673136397692644e-06,"train",126200.0,"2021-12-09 23:59:14.403031","","","","","","",""
44.0,0.0677395761013031,2.7988362513354565e-06,"train",126400.0,"2021-12-09 23:59:45.029579","","","","","","",""
44.0,0.09339723736047745,2.366602362840017e-06,"train",126600.0,"2021-12-10 00:00:15.494315","","","","","","",""
44.0,0.04269687831401825,1.97063293999718e-06,"train",126800.0,"2021-12-10 00:00:45.529885","","","","","","",""
44.0,0.05018686130642891,1.6109471894955463e-06,"train",127000.0,"2021-12-10 00:01:15.489234","","","","","","",""
44.0,0.01555968914180994,1.2875625580668327e-06,"train",127200.0,"2021-12-10 00:01:45.179298","","","","","","",""
44.0,0.03324970230460167,1.0004947316391345e-06,"train",127400.0,"2021-12-10 00:02:15.193144","","","","","","",""
44.0,0.03659522905945778,7.497576345763714e-07,"train",127600.0,"2021-12-10 00:02:45.059188","","","","","","",""
44.0,0.03386228531599045,5.353634290030799e-07,"train",127800.0,"2021-12-10 00:03:14.790027","","","","","","",""
44.0,0.05813019722700119,3.573225142139715e-07,"train",128000.0,"2021-12-10 00:03:44.672158","","","","","","",""
44.0,0.04252111166715622,2.1564352616992103e-07,"train",128200.0,"2021-12-10 00:04:14.639264","","","","","","",""
44.0,0.05510694161057472,1.1033333707880354e-07,"train",128400.0,"2021-12-10 00:04:44.636874","","","","","","",""
44.0,0.022502075880765915,4.1397055062345785e-08,"train",128600.0,"2021-12-10 00:05:14.561938","","","","","","",""
44.0,0.024707838892936707,8.838023908408445e-09,"train",128800.0,"2021-12-10 00:05:44.348753","","","","","","",""
44.0,"","","val",128880.0,"2021-12-10 00:06:25.154075",0.5958483126522092,0.6248485652904618,0.9431987107279636,0.6819062574407521,0.6014114368144491,0.6070395623602474,0.3911135742341268
