"epoch","loss","lr","part","step","time","accuracy","auprc","auroc","challenge_metric","f_beta_measure","f_measure","g_beta_measure"
0.0,0.45603013038635254,8.000730236035311e-05,"train",20.0,"2021-11-20 12:11:54.179169","","","","","","",""
0.0,0.25627344846725464,8.002920933031948e-05,"train",40.0,"2021-11-20 12:11:58.753181","","","","","","",""
0.0,0.1456044763326645,8.006572057662293e-05,"train",60.0,"2021-11-20 12:12:02.789276","","","","","","",""
0.0,0.14259131252765656,8.011683554380914e-05,"train",80.0,"2021-11-20 12:12:06.764597","","","","","","",""
0.0,0.1323828399181366,8.018255345425274e-05,"train",100.0,"2021-11-20 12:12:10.586031","","","","","","",""
0.0,0.12173672020435333,8.026287330817079e-05,"train",120.0,"2021-11-20 12:12:14.349987","","","","","","",""
0.0,0.12179701775312424,8.03577938836373e-05,"train",140.0,"2021-11-20 12:12:19.004429","","","","","","",""
0.0,0.11725657433271408,8.04673137366021e-05,"train",160.0,"2021-11-20 12:12:23.014782","","","","","","",""
0.0,0.13930991291999817,8.059143120091187e-05,"train",180.0,"2021-11-20 12:12:26.881746","","","","","","",""
0.0,0.12019641697406769,8.073014438833613e-05,"train",200.0,"2021-11-20 12:12:30.791698","","","","","","",""
0.0,0.12071691453456879,8.088345118859724e-05,"train",220.0,"2021-11-20 12:12:34.578812","","","","","","",""
0.0,0.12149069458246231,8.10513492693996e-05,"train",240.0,"2021-11-20 12:12:39.117400","","","","","","",""
0.0,0.13693328201770782,8.123383607646804e-05,"train",260.0,"2021-11-20 12:12:43.033262","","","","","","",""
0.0,0.12641750276088715,8.143090883358495e-05,"train",280.0,"2021-11-20 12:12:46.857940","","","","","","",""
0.0,0.13048091530799866,8.164256454263295e-05,"train",300.0,"2021-11-20 12:12:50.624762","","","","","","",""
0.0,0.13837674260139465,8.186879998364088e-05,"train",320.0,"2021-11-20 12:12:54.404602","","","","","","",""
0.0,0.10883273184299469,8.210961171483213e-05,"train",340.0,"2021-11-20 12:12:58.888512","","","","","","",""
0.0,0.11590249836444855,8.236499607267717e-05,"train",360.0,"2021-11-20 12:13:02.644545","","","","","","",""
0.0,0.11653979122638702,8.26349491719505e-05,"train",380.0,"2021-11-20 12:13:06.419156","","","","","","",""
0.0,0.11689884215593338,8.291946690578713e-05,"train",400.0,"2021-11-20 12:13:10.264702","","","","","","",""
0.0,0.11488250643014908,8.321854494574774e-05,"train",420.0,"2021-11-20 12:13:14.003268","","","","","","",""
0.0,0.12815093994140625,8.353217874188293e-05,"train",440.0,"2021-11-20 12:13:18.371100","","","","","","",""
0.0,0.10577372461557388,8.38603635228035e-05,"train",460.0,"2021-11-20 12:13:22.156414","","","","","","",""
0.0,0.1184617206454277,8.420309429575212e-05,"train",480.0,"2021-11-20 12:13:25.863525","","","","","","",""
0.0,0.10476411879062653,8.456036584667914e-05,"train",500.0,"2021-11-20 12:13:29.604664","","","","","","",""
0.0,0.1244613453745842,8.493217274032315e-05,"train",520.0,"2021-11-20 12:13:34.085288","","","","","","",""
0.0,0.10983923822641373,8.531850932029235e-05,"train",540.0,"2021-11-20 12:13:37.911747","","","","","","",""
0.0,0.11238405108451843,8.571936970915212e-05,"train",560.0,"2021-11-20 12:13:41.629854","","","","","","",""
0.0,0.11827566474676132,8.613474780851246e-05,"train",580.0,"2021-11-20 12:13:45.350468","","","","","","",""
0.0,0.09931284189224243,8.656463729912224e-05,"train",600.0,"2021-11-20 12:13:49.108463","","","","","","",""
0.0,0.11320747435092926,8.700903164096468e-05,"train",620.0,"2021-11-20 12:13:53.560526","","","","","","",""
0.0,0.11278386414051056,8.746792407335769e-05,"train",640.0,"2021-11-20 12:13:57.303998","","","","","","",""
0.0,0.12444352358579636,8.794130761505497e-05,"train",660.0,"2021-11-20 12:14:00.859170","","","","","","",""
0.0,0.10846013575792313,8.842917506435462e-05,"train",680.0,"2021-11-20 12:14:04.431032","","","","","","",""
0.0,0.11483121663331985,8.893151899920645e-05,"train",700.0,"2021-11-20 12:14:08.218842","","","","","","",""
0.0,0.10561878234148026,8.944833177732632e-05,"train",720.0,"2021-11-20 12:14:12.406388","","","","","","",""
0.0,0.10348540544509888,8.997960553631186e-05,"train",740.0,"2021-11-20 12:14:16.187222","","","","","","",""
0.0,0.11324168741703033,9.052533219376224e-05,"train",760.0,"2021-11-20 12:14:19.945227","","","","","","",""
0.0,0.09210623800754547,9.108550344740104e-05,"train",780.0,"2021-11-20 12:14:23.528854","","","","","","",""
0.0,0.10169557482004166,9.166011077520208e-05,"train",800.0,"2021-11-20 12:14:27.067676","","","","","","",""
0.0,0.10954800248146057,9.224914543552059e-05,"train",820.0,"2021-11-20 12:14:31.441897","","","","","","",""
0.0,0.09194891899824142,9.285259846722417e-05,"train",840.0,"2021-11-20 12:14:35.248973","","","","","","",""
0.0,0.1073068305850029,9.34704606898307e-05,"train",860.0,"2021-11-20 12:14:39.123128","","","","","","",""
0.0,0.10538966953754425,9.410272270364735e-05,"train",880.0,"2021-11-20 12:14:42.910581","","","","","","",""
0.0,0.09117884188890457,9.474937488991348e-05,"train",900.0,"2021-11-20 12:14:46.701457","","","","","","",""
0.0,0.12037068605422974,9.541040741094719e-05,"train",920.0,"2021-11-20 12:14:51.163590","","","","","","",""
0.0,0.10725074261426926,9.608581021029522e-05,"train",940.0,"2021-11-20 12:14:54.919491","","","","","","",""
0.0,0.09899736940860748,9.677557301288509e-05,"train",960.0,"2021-11-20 12:14:58.706436","","","","","","",""
0.0,0.0934247076511383,9.747968532518238e-05,"train",980.0,"2021-11-20 12:15:02.460873","","","","","","",""
0.0,0.09790483117103577,9.819813643535029e-05,"train",1000.0,"2021-11-20 12:15:06.969160","","","","","","",""
0.0,0.11665917932987213,9.893091541341185e-05,"train",1020.0,"2021-11-20 12:15:10.700281","","","","","","",""
0.0,0.09990356117486954,9.967801111141644e-05,"train",1040.0,"2021-11-20 12:15:14.412814","","","","","","",""
0.0,0.09323527663946152,0.00010043941216361023,"train",1060.0,"2021-11-20 12:15:18.149261","","","","","","",""
0.0,"","","train",1074.0,"2021-11-20 12:17:02.323824",0.41544058793567634,0.2249672593783116,0.800203617888174,0.3094307172505769,0.15351670456150968,0.1462324274146577,0.1018712584365416
0.0,"","","val",1074.0,"2021-11-20 12:17:28.149910",0.4126754029919981,0.22285994888138963,0.7984293920050329,0.30446389412877345,0.15049441423572404,0.1431027977630881,0.0989972157227281
1.0,0.09551890194416046,0.00010121510698660771,"train",1080.0,"2021-11-20 12:17:31.946466","","","","","","",""
1.0,0.12227226048707962,0.00010200508377956928,"train",1100.0,"2021-11-20 12:17:36.312161","","","","","","",""
1.0,0.1067097932100296,0.00010280933052437993,"train",1120.0,"2021-11-20 12:17:39.935455","","","","","","",""
1.0,0.0975760743021965,0.00010362783498583223,"train",1140.0,"2021-11-20 12:17:43.578786","","","","","","",""
1.0,0.08019370585680008,0.0001044605847118124,"train",1160.0,"2021-11-20 12:17:47.269376","","","","","","",""
1.0,0.09089512377977371,0.0001053075670334907,"train",1180.0,"2021-11-20 12:17:50.981781","","","","","","",""
1.0,0.07966722548007965,0.00010616876906551181,"train",1200.0,"2021-11-20 12:17:55.279575","","","","","","",""
1.0,0.10083505511283875,0.0001070441777061941,"train",1220.0,"2021-11-20 12:17:58.971642","","","","","","",""
1.0,0.09273145347833633,0.00010793377963772563,"train",1240.0,"2021-11-20 12:18:02.668745","","","","","","",""
1.0,0.0954420268535614,0.0001088375613263698,"train",1260.0,"2021-11-20 12:18:06.379259","","","","","","",""
1.0,0.08874563127756119,0.00010975550902266908,"train",1280.0,"2021-11-20 12:18:10.098540","","","","","","",""
1.0,0.07403430342674255,0.00011068760876165474,"train",1300.0,"2021-11-20 12:18:14.290305","","","","","","",""
1.0,0.089027039706707,0.0001116338463630598,"train",1320.0,"2021-11-20 12:18:17.984511","","","","","","",""
1.0,0.08332335948944092,0.00011259420743153455,"train",1340.0,"2021-11-20 12:18:21.686143","","","","","","",""
1.0,0.067379429936409,0.00011356867735686535,"train",1360.0,"2021-11-20 12:18:25.351137","","","","","","",""
1.0,0.08354207128286362,0.00011455724131419621,"train",1380.0,"2021-11-20 12:18:29.521399","","","","","","",""
1.0,0.09384384751319885,0.00011555988426425654,"train",1400.0,"2021-11-20 12:18:33.203379","","","","","","",""
1.0,0.08709726482629776,0.00011657659095358746,"train",1420.0,"2021-11-20 12:18:36.885089","","","","","","",""
1.0,0.08196087926626205,0.00011760734591477516,"train",1440.0,"2021-11-20 12:18:40.578865","","","","","","",""
1.0,0.09166570007801056,0.00011865213346668618,"train",1460.0,"2021-11-20 12:18:44.293047","","","","","","",""
1.0,0.0908297449350357,0.00011971093771470502,"train",1480.0,"2021-11-20 12:18:48.472199","","","","","","",""
1.0,0.09359680861234665,0.0001207837425509777,"train",1500.0,"2021-11-20 12:18:52.022129","","","","","","",""
1.0,0.08198073506355286,0.00012187053165465503,"train",1520.0,"2021-11-20 12:18:55.565316","","","","","","",""
1.0,0.10804404318332672,0.000122971288492142,"train",1540.0,"2021-11-20 12:18:59.109569","","","","","","",""
1.0,0.0819472000002861,0.00012408599631734863,"train",1560.0,"2021-11-20 12:19:02.632523","","","","","","",""
1.0,0.08597248047590256,0.00012521463817194542,"train",1580.0,"2021-11-20 12:19:06.714954","","","","","","",""
1.0,0.07424081861972809,0.00012635719688562077,"train",1600.0,"2021-11-20 12:19:10.377906","","","","","","",""
1.0,0.07699190825223923,0.00012751365507634267,"train",1620.0,"2021-11-20 12:19:14.135405","","","","","","",""
1.0,0.08458101004362106,0.0001286839951506226,"train",1640.0,"2021-11-20 12:19:17.881956","","","","","","",""
1.0,0.07016154378652573,0.00012986819930378333,"train",1660.0,"2021-11-20 12:19:21.567046","","","","","","",""
1.0,0.07681968808174133,0.00013106624952023064,"train",1680.0,"2021-11-20 12:19:25.743154","","","","","","",""
1.0,0.07417997717857361,0.00013227812757372545,"train",1700.0,"2021-11-20 12:19:29.428660","","","","","","",""
1.0,0.08934667706489563,0.00013350381502766394,"train",1720.0,"2021-11-20 12:19:33.157742","","","","","","",""
1.0,0.09968894720077515,0.00013474329323535494,"train",1740.0,"2021-11-20 12:19:36.881885","","","","","","",""
1.0,0.08920273184776306,0.0001359965433403059,"train",1760.0,"2021-11-20 12:19:40.723476","","","","","","",""
1.0,0.07585011422634125,0.00013726354627650872,"train",1780.0,"2021-11-20 12:19:44.996734","","","","","","",""
1.0,0.08458185195922852,0.00013854428276873052,"train",1800.0,"2021-11-20 12:19:48.672679","","","","","","",""
1.0,0.08059318363666534,0.00013983873333280506,"train",1820.0,"2021-11-20 12:19:52.369209","","","","","","",""
1.0,0.07350562512874603,0.00014114687827593156,"train",1840.0,"2021-11-20 12:19:55.995476","","","","","","",""
1.0,0.0821823701262474,0.00014246869769697352,"train",1860.0,"2021-11-20 12:20:00.139628","","","","","","",""
1.0,0.07440196722745895,0.00014380417148676054,"train",1880.0,"2021-11-20 12:20:03.760088","","","","","","",""
1.0,0.08289354294538498,0.00014515327932839404,"train",1900.0,"2021-11-20 12:20:07.464386","","","","","","",""
1.0,0.08766019344329834,0.0001465160006975598,"train",1920.0,"2021-11-20 12:20:11.148304","","","","","","",""
1.0,0.08454340696334839,0.00014789231486283454,"train",1940.0,"2021-11-20 12:20:14.783084","","","","","","",""
1.0,0.11104443669319153,0.00014928220088600633,"train",1960.0,"2021-11-20 12:20:18.872752","","","","","","",""
1.0,0.08416587114334106,0.00015068563762239045,"train",1980.0,"2021-11-20 12:20:22.543421","","","","","","",""
1.0,0.07808974385261536,0.00015210260372115238,"train",2000.0,"2021-11-20 12:20:26.182883","","","","","","",""
1.0,0.08152109384536743,0.00015353307762563115,"train",2020.0,"2021-11-20 12:20:29.878795","","","","","","",""
1.0,0.09336196631193161,0.00015497703757366872,"train",2040.0,"2021-11-20 12:20:33.613670","","","","","","",""
1.0,0.08497752249240875,0.00015643446159794,"train",2060.0,"2021-11-20 12:20:37.852772","","","","","","",""
1.0,0.062135960906744,0.0001579053275262887,"train",2080.0,"2021-11-20 12:20:41.488937","","","","","","",""
1.0,0.09032271802425385,0.00015938961298206183,"train",2100.0,"2021-11-20 12:20:45.166320","","","","","","",""
1.0,0.06387609243392944,0.00016088729538445297,"train",2120.0,"2021-11-20 12:20:49.013917","","","","","","",""
1.0,0.06215707212686539,0.000162398351948844,"train",2140.0,"2021-11-20 12:20:52.872541","","","","","","",""
1.0,"","","train",2148.0,"2021-11-20 12:22:34.425659",0.4462635523539256,0.314030403946244,0.8562196226899432,0.39958625471255405,0.21412142957339655,0.20906276738931096,0.1434511634802804
1.0,"","","val",2148.0,"2021-11-20 12:23:00.112886",0.4460164675866868,0.31339765094176014,0.8531714996980899,0.39780122988363886,0.21540924020608618,0.21088708994137245,0.14280568747399244
2.0,0.08527762442827225,0.00016392275968715297,"train",2160.0,"2021-11-20 12:23:05.117033","","","","","","",""
2.0,0.07816921174526215,0.00016546049540818223,"train",2180.0,"2021-11-20 12:23:08.782331","","","","","","",""
2.0,0.07513348013162613,0.00016701153571797313,"train",2200.0,"2021-11-20 12:23:12.416519","","","","","","",""
2.0,0.08490575850009918,0.00016857585702016015,"train",2220.0,"2021-11-20 12:23:16.049016","","","","","","",""
2.0,0.08021162450313568,0.00017015343551633126,"train",2240.0,"2021-11-20 12:23:19.632300","","","","","","",""
2.0,0.08468107134103775,0.0001717442472063892,"train",2260.0,"2021-11-20 12:23:23.991853","","","","","","",""
2.0,0.07450484484434128,0.00017334826788891681,"train",2280.0,"2021-11-20 12:23:27.777587","","","","","","",""
2.0,0.08675561100244522,0.00017496547316154555,"train",2300.0,"2021-11-20 12:23:31.445516","","","","","","",""
2.0,0.11522276699542999,0.00017659583842132573,"train",2320.0,"2021-11-20 12:23:35.010195","","","","","","",""
2.0,0.0906667560338974,0.00017823933886510217,"train",2340.0,"2021-11-20 12:23:38.606704","","","","","","",""
2.0,0.10601045936346054,0.00017989594948989015,"train",2360.0,"2021-11-20 12:23:42.239620","","","","","","",""
2.0,0.10734744369983673,0.00018156564509325753,"train",2380.0,"2021-11-20 12:23:46.601070","","","","","","",""
2.0,0.06851425021886826,0.0001832484002737059,"train",2400.0,"2021-11-20 12:23:50.248045","","","","","","",""
2.0,0.07612581551074982,0.00018494418943105877,"train",2420.0,"2021-11-20 12:23:53.916012","","","","","","",""
2.0,0.09229734539985657,0.00018665298676685078,"train",2440.0,"2021-11-20 12:23:57.590536","","","","","","",""
2.0,0.0764806941151619,0.0001883747662847191,"train",2460.0,"2021-11-20 12:24:01.230697","","","","","","",""
2.0,0.09249710291624069,0.00019010950179080112,"train",2480.0,"2021-11-20 12:24:04.845538","","","","","","",""
2.0,0.07073234766721725,0.00019185716689412995,"train",2500.0,"2021-11-20 12:24:08.993072","","","","","","",""
2.0,0.1230982318520546,0.00019361773500703797,"train",2520.0,"2021-11-20 12:24:12.595129","","","","","","",""
2.0,0.07897291332483292,0.00019539117934556168,"train",2540.0,"2021-11-20 12:24:16.201440","","","","","","",""
2.0,0.09349603205919266,0.00019717747292984696,"train",2560.0,"2021-11-20 12:24:19.910153","","","","","","",""
2.0,0.04739343002438545,0.0001989765885845624,"train",2580.0,"2021-11-20 12:24:23.606906","","","","","","",""
2.0,0.07164986431598663,0.00020078849893931014,"train",2600.0,"2021-11-20 12:24:27.842675","","","","","","",""
2.0,0.07819483429193497,0.0002026131764290434,"train",2620.0,"2021-11-20 12:24:31.626571","","","","","","",""
2.0,0.0720706507563591,0.00020445059329448614,"train",2640.0,"2021-11-20 12:24:35.316730","","","","","","",""
2.0,0.06240985542535782,0.00020630072158255497,"train",2660.0,"2021-11-20 12:24:38.973437","","","","","","",""
2.0,0.07946280390024185,0.00020816353314678467,"train",2680.0,"2021-11-20 12:24:42.622624","","","","","","",""
2.0,0.08474774658679962,0.00021003899964775505,"train",2700.0,"2021-11-20 12:24:46.279144","","","","","","",""
2.0,0.09678923338651657,0.00021192709255352473,"train",2720.0,"2021-11-20 12:24:50.424016","","","","","","",""
2.0,0.06839101016521454,0.00021382778314006255,"train",2740.0,"2021-11-20 12:24:54.028286","","","","","","",""
2.0,0.060560811311006546,0.00021574104249168615,"train",2760.0,"2021-11-20 12:24:57.603105","","","","","","",""
2.0,0.05999099835753441,0.00021766684150150133,"train",2780.0,"2021-11-20 12:25:01.216195","","","","","","",""
2.0,0.08126597851514816,0.00021960515087184485,"train",2800.0,"2021-11-20 12:25:04.784381","","","","","","",""
2.0,0.06772403419017792,0.00022155594111472978,"train",2820.0,"2021-11-20 12:25:08.353639","","","","","","",""
2.0,0.07998340576887131,0.0002235191825522959,"train",2840.0,"2021-11-20 12:25:12.423892","","","","","","",""
2.0,0.07750700414180756,0.00022549484531725838,"train",2860.0,"2021-11-20 12:25:16.068213","","","","","","",""
2.0,0.07335303723812103,0.00022748289935336434,"train",2880.0,"2021-11-20 12:25:19.726938","","","","","","",""
2.0,0.09727755934000015,0.00022948331441584964,"train",2900.0,"2021-11-20 12:25:23.309974","","","","","","",""
2.0,0.08906542509794235,0.00023149606007189785,"train",2920.0,"2021-11-20 12:25:26.874598","","","","","","",""
2.0,0.08096078783273697,0.00023352110570110476,"train",2940.0,"2021-11-20 12:25:30.882814","","","","","","",""
2.0,0.06402067840099335,0.00023555842049594305,"train",2960.0,"2021-11-20 12:25:34.438114","","","","","","",""
2.0,0.07687640935182571,0.00023760797346223305,"train",2980.0,"2021-11-20 12:25:38.008522","","","","","","",""
2.0,0.1080205962061882,0.00023966973341961028,"train",3000.0,"2021-11-20 12:25:41.606876","","","","","","",""
2.0,0.0687980204820633,0.0002417436690020044,"train",3020.0,"2021-11-20 12:25:45.214454","","","","","","",""
2.0,0.08582240343093872,0.00024382974865811325,"train",3040.0,"2021-11-20 12:25:48.827864","","","","","","",""
2.0,0.08909545093774796,0.000245927940651884,"train",3060.0,"2021-11-20 12:25:52.981165","","","","","","",""
2.0,0.08228777348995209,0.0002480382130629953,"train",3080.0,"2021-11-20 12:25:56.654409","","","","","","",""
2.0,0.06491129100322723,0.0002501605337873443,"train",3100.0,"2021-11-20 12:26:00.323295","","","","","","",""
2.0,0.0754006952047348,0.0002522948705375337,"train",3120.0,"2021-11-20 12:26:03.903804","","","","","","",""
2.0,0.070938840508461,0.00025444119084336303,"train",3140.0,"2021-11-20 12:26:07.609737","","","","","","",""
2.0,0.07284083962440491,0.00025659946205232364,"train",3160.0,"2021-11-20 12:26:11.324914","","","","","","",""
2.0,0.08906946331262589,0.0002587696513300941,"train",3180.0,"2021-11-20 12:26:15.462720","","","","","","",""
2.0,0.07550151646137238,0.0002609517256610412,"train",3200.0,"2021-11-20 12:26:19.108080","","","","","","",""
2.0,0.07724441587924957,0.00026314565184872084,"train",3220.0,"2021-11-20 12:26:22.602491","","","","","","",""
2.0,"","","train",3222.0,"2021-11-20 12:27:58.605696",0.4161100196463654,0.37209542860598155,0.8722304463719751,0.3727463463675308,0.263333819195199,0.2703899515786889,0.16271598897219589
2.0,"","","val",3222.0,"2021-11-20 12:28:24.270450",0.4140090455757857,0.36612167902007153,0.8656887822133752,0.3673551477672582,0.26113471455609893,0.26549056631242907,0.16014691312272997
3.0,0.050896912813186646,0.0002653513965163838,"train",3240.0,"2021-11-20 12:28:30.460726","","","","","","",""
3.0,0.071504145860672,0.0002675689261074836,"train",3260.0,"2021-11-20 12:28:34.119236","","","","","","",""
3.0,0.06303633749485016,0.00026979820688618605,"train",3280.0,"2021-11-20 12:28:38.323726","","","","","","",""
3.0,0.08825302124023438,0.00027203920493788433,"train",3300.0,"2021-11-20 12:28:42.026984","","","","","","",""
3.0,0.08495296537876129,0.00027429188616971277,"train",3320.0,"2021-11-20 12:28:45.702689","","","","","","",""
3.0,0.05500088632106781,0.0002765562163110668,"train",3340.0,"2021-11-20 12:28:49.379520","","","","","","",""
3.0,0.08296966552734375,0.00027883216091412503,"train",3360.0,"2021-11-20 12:28:53.063500","","","","","","",""
3.0,0.08721926063299179,0.0002811196853543707,"train",3380.0,"2021-11-20 12:28:56.881684","","","","","","",""
3.0,0.05965442210435867,0.00028341875483112134,"train",3400.0,"2021-11-20 12:29:01.344040","","","","","","",""
3.0,0.06094580516219139,0.00028572933436805644,"train",3420.0,"2021-11-20 12:29:05.258715","","","","","","",""
3.0,0.07995156198740005,0.0002880513888137504,"train",3440.0,"2021-11-20 12:29:09.176560","","","","","","",""
3.0,0.07025628536939621,0.0002903848828422063,"train",3460.0,"2021-11-20 12:29:13.049846","","","","","","",""
3.0,0.05155076086521149,0.00029272978095339465,"train",3480.0,"2021-11-20 12:29:16.927051","","","","","","",""
3.0,0.07591935247182846,0.00029508604747379243,"train",3500.0,"2021-11-20 12:29:20.803583","","","","","","",""
3.0,0.054628245532512665,0.00029745364655692653,"train",3520.0,"2021-11-20 12:29:25.008842","","","","","","",""
3.0,0.07617392390966415,0.0002998325421839181,"train",3540.0,"2021-11-20 12:29:28.673915","","","","","","",""
3.0,0.06345546245574951,0.0003022226981640318,"train",3560.0,"2021-11-20 12:29:32.363492","","","","","","",""
3.0,0.07472562789916992,0.00030462407813522494,"train",3580.0,"2021-11-20 12:29:35.981572","","","","","","",""
3.0,0.07552046328783035,0.0003070366455647027,"train",3600.0,"2021-11-20 12:29:39.586926","","","","","","",""
3.0,0.0554790236055851,0.000309460363749471,"train",3620.0,"2021-11-20 12:29:43.192224","","","","","","",""
3.0,0.045661166310310364,0.0003118951958168978,"train",3640.0,"2021-11-20 12:29:47.283735","","","","","","",""
3.0,0.08862315863370895,0.0003143411047252722,"train",3660.0,"2021-11-20 12:29:50.880257","","","","","","",""
3.0,0.07418406009674072,0.0003167980532643691,"train",3680.0,"2021-11-20 12:29:54.476040","","","","","","",""
3.0,0.064602330327034,0.0003192660040560141,"train",3700.0,"2021-11-20 12:29:58.083642","","","","","","",""
3.0,0.06713393330574036,0.0003217449195546528,"train",3720.0,"2021-11-20 12:30:01.745504","","","","","","",""
3.0,0.07654695957899094,0.00032423476204792244,"train",3740.0,"2021-11-20 12:30:05.975531","","","","","","",""
3.0,0.07669448852539062,0.0003267354936572248,"train",3760.0,"2021-11-20 12:30:09.683759","","","","","","",""
3.0,0.06608004122972488,0.0003292470763383026,"train",3780.0,"2021-11-20 12:30:13.400606","","","","","","",""
3.0,0.0848223865032196,0.0003317694718818192,"train",3800.0,"2021-11-20 12:30:17.136384","","","","","","",""
3.0,0.06423738598823547,0.00033430264191393853,"train",3820.0,"2021-11-20 12:30:20.879590","","","","","","",""
3.0,0.073139987885952,0.0003368465478969097,"train",3840.0,"2021-11-20 12:30:24.585550","","","","","","",""
3.0,0.09991870075464249,0.0003394011511296533,"train",3860.0,"2021-11-20 12:30:28.758991","","","","","","",""
3.0,0.0930057242512703,0.0003419664127483496,"train",3880.0,"2021-11-20 12:30:32.448671","","","","","","",""
3.0,0.06886714696884155,0.00034454229372703074,"train",3900.0,"2021-11-20 12:30:36.062787","","","","","","",""
3.0,0.09135168045759201,0.00034712875487817314,"train",3920.0,"2021-11-20 12:30:39.770418","","","","","","",""
3.0,0.06513534486293793,0.00034972575685329526,"train",3940.0,"2021-11-20 12:30:43.448125","","","","","","",""
3.0,0.04746636375784874,0.0003523332601435541,"train",3960.0,"2021-11-20 12:30:47.132710","","","","","","",""
3.0,0.09803289920091629,0.00035495122508034916,"train",3980.0,"2021-11-20 12:30:51.385055","","","","","","",""
3.0,0.06298540532588959,0.0003575796118359231,"train",4000.0,"2021-11-20 12:30:55.136816","","","","","","",""
3.0,0.0819031298160553,0.00036021838042396906,"train",4020.0,"2021-11-20 12:30:58.781636","","","","","","",""
3.0,0.05877465754747391,0.0003628674907002389,"train",4040.0,"2021-11-20 12:31:02.535417","","","","","","",""
3.0,0.08271227031946182,0.00036552690236315395,"train",4060.0,"2021-11-20 12:31:06.111358","","","","","","",""
3.0,0.06173703446984291,0.00036819657495441773,"train",4080.0,"2021-11-20 12:31:10.116945","","","","","","",""
3.0,0.09668568521738052,0.0003708764678596317,"train",4100.0,"2021-11-20 12:31:13.782542","","","","","","",""
3.0,0.06777162849903107,0.00037356654030891293,"train",4120.0,"2021-11-20 12:31:17.476779","","","","","","",""
3.0,0.062161557376384735,0.0003762667513775148,"train",4140.0,"2021-11-20 12:31:21.166634","","","","","","",""
3.0,0.06969378888607025,0.0003789770599864498,"train",4160.0,"2021-11-20 12:31:24.886166","","","","","","",""
3.0,0.08483272790908813,0.000381697424903113,"train",4180.0,"2021-11-20 12:31:28.548126","","","","","","",""
3.0,0.05880346521735191,0.0003844278047419108,"train",4200.0,"2021-11-20 12:31:32.791632","","","","","","",""
3.0,0.07323172688484192,0.0003871681579648903,"train",4220.0,"2021-11-20 12:31:36.506058","","","","","","",""
3.0,0.06593213230371475,0.0003899184428823709,"train",4240.0,"2021-11-20 12:31:40.212948","","","","","","",""
3.0,0.06514183431863785,0.0003926786176535783,"train",4260.0,"2021-11-20 12:31:43.964281","","","","","","",""
3.0,0.07799363136291504,0.0003954486402872818,"train",4280.0,"2021-11-20 12:31:47.651063","","","","","","",""
3.0,"","","train",4296.0,"2021-11-20 12:33:25.104963",0.5004875209197409,0.43592065162363564,0.8984256572999537,0.48386396222999806,0.33434891132012157,0.34261469865329847,0.22505427859172372
3.0,"","","val",4296.0,"2021-11-20 12:33:50.370777",0.4968688391511075,0.4220317539397581,0.8906398386960579,0.47377582294140624,0.3237932058099165,0.32978827766367635,0.21493959436408672
4.0,0.058551281690597534,0.0003982284686424324,"train",4300.0,"2021-11-20 12:33:53.896343","","","","","","",""
4.0,0.05281075835227966,0.0004010180604288045,"train",4320.0,"2021-11-20 12:33:58.097235","","","","","","",""
4.0,0.07704178243875504,0.00040381737320763873,"train",4340.0,"2021-11-20 12:34:01.664029","","","","","","",""
4.0,0.09016366302967072,0.0004066263643922878,"train",4360.0,"2021-11-20 12:34:05.278805","","","","","","",""
4.0,0.09125413000583649,0.0004094449912488646,"train",4380.0,"2021-11-20 12:34:08.860216","","","","","","",""
4.0,0.09464164078235626,0.0004122732108968923,"train",4400.0,"2021-11-20 12:34:12.566447","","","","","","",""
4.0,0.056666478514671326,0.0004151109803099558,"train",4420.0,"2021-11-20 12:34:16.780604","","","","","","",""
4.0,0.07778669893741608,0.00041795825631635764,"train",4440.0,"2021-11-20 12:34:20.424819","","","","","","",""
4.0,0.04840639978647232,0.0004208149955997739,"train",4460.0,"2021-11-20 12:34:24.102292","","","","","","",""
4.0,0.06540730595588684,0.0004236811546999141,"train",4480.0,"2021-11-20 12:34:27.743588","","","","","","",""
4.0,0.08743530511856079,0.0004265566900131805,"train",4500.0,"2021-11-20 12:34:31.393646","","","","","","",""
4.0,0.06025038659572601,0.0004294415577933337,"train",4520.0,"2021-11-20 12:34:35.076540","","","","","","",""
4.0,0.05892574414610863,0.00043233571415215717,"train",4540.0,"2021-11-20 12:34:39.164294","","","","","","",""
4.0,0.05690351128578186,0.0004352391150601242,"train",4560.0,"2021-11-20 12:34:42.781629","","","","","","",""
4.0,0.07261472940444946,0.0004381517163470684,"train",4580.0,"2021-11-20 12:34:46.506667","","","","","","",""
4.0,0.06215692684054375,0.00044107347370285683,"train",4600.0,"2021-11-20 12:34:50.165452","","","","","","",""
4.0,0.08866417407989502,0.00044400434267806194,"train",4620.0,"2021-11-20 12:34:53.848694","","","","","","",""
4.0,0.06575094163417816,0.00044694427868463907,"train",4640.0,"2021-11-20 12:34:57.427953","","","","","","",""
4.0,0.06091019883751869,0.00044989323699660467,"train",4660.0,"2021-11-20 12:35:01.543571","","","","","","",""
4.0,0.05525151640176773,0.0004528511727507165,"train",4680.0,"2021-11-20 12:35:05.201949","","","","","","",""
4.0,0.05795660614967346,0.00045581804094715645,"train",4700.0,"2021-11-20 12:35:08.812206","","","","","","",""
4.0,0.0721898227930069,0.00045879379645021425,"train",4720.0,"2021-11-20 12:35:12.476700","","","","","","",""
4.0,0.07402922958135605,0.0004617783939889759,"train",4740.0,"2021-11-20 12:35:16.093710","","","","","","",""
4.0,0.07090174406766891,0.0004647717881580103,"train",4760.0,"2021-11-20 12:35:20.179712","","","","","","",""
4.0,0.06911014020442963,0.0004677739334180617,"train",4780.0,"2021-11-20 12:35:23.795197","","","","","","",""
4.0,0.05999615788459778,0.00047078478409674144,"train",4800.0,"2021-11-20 12:35:27.486455","","","","","","",""
4.0,0.049818575382232666,0.00047380429438922305,"train",4820.0,"2021-11-20 12:35:31.174848","","","","","","",""
4.0,0.06472387909889221,0.00047683241835893946,"train",4840.0,"2021-11-20 12:35:34.945639","","","","","","",""
4.0,0.05071880295872688,0.0004798691099382815,"train",4860.0,"2021-11-20 12:35:38.641659","","","","","","",""
4.0,0.0690837949514389,0.0004829143229292986,"train",4880.0,"2021-11-20 12:35:42.880895","","","","","","",""
4.0,0.07624007016420364,0.0004859680110044023,"train",4900.0,"2021-11-20 12:35:46.499995","","","","","","",""
4.0,0.055920906364917755,0.0004890301277070699,"train",4920.0,"2021-11-20 12:35:50.128669","","","","","","",""
4.0,0.044909413903951645,0.0004921006264525525,"train",4940.0,"2021-11-20 12:35:53.803045","","","","","","",""
4.0,0.05636070668697357,0.0004951794605285824,"train",4960.0,"2021-11-20 12:35:57.526586","","","","","","",""
4.0,0.05696824565529823,0.0004982665830960853,"train",4980.0,"2021-11-20 12:36:01.234905","","","","","","",""
4.0,0.0491308718919754,0.0005013619471898913,"train",5000.0,"2021-11-20 12:36:05.471936","","","","","","",""
4.0,0.05529240146279335,0.0005044655057194504,"train",5020.0,"2021-11-20 12:36:09.170160","","","","","","",""
4.0,0.058468047529459,0.0005075772114695486,"train",5040.0,"2021-11-20 12:36:12.924266","","","","","","",""
4.0,0.061980992555618286,0.0005106970171010257,"train",5060.0,"2021-11-20 12:36:16.651501","","","","","","",""
4.0,0.07926000654697418,0.0005138248751514966,"train",5080.0,"2021-11-20 12:36:20.385568","","","","","","",""
4.0,0.05303797125816345,0.0005169607380360731,"train",5100.0,"2021-11-20 12:36:24.139914","","","","","","",""
4.0,0.07515540719032288,0.000520104558048086,"train",5120.0,"2021-11-20 12:36:28.271322","","","","","","",""
4.0,0.061796218156814575,0.0005232562873598136,"train",5140.0,"2021-11-20 12:36:31.995297","","","","","","",""
4.0,0.06663362681865692,0.0005264158780232072,"train",5160.0,"2021-11-20 12:36:35.750974","","","","","","",""
4.0,0.06383989006280899,0.0005295832819706228,"train",5180.0,"2021-11-20 12:36:39.503201","","","","","","",""
4.0,0.08059937506914139,0.0005327584510155488,"train",5200.0,"2021-11-20 12:36:43.148447","","","","","","",""
4.0,0.06543508172035217,0.000535941336853343,"train",5220.0,"2021-11-20 12:36:47.333014","","","","","","",""
4.0,0.06127037853002548,0.0005391318910619655,"train",5240.0,"2021-11-20 12:36:50.985481","","","","","","",""
4.0,0.06935066729784012,0.0005423300651027144,"train",5260.0,"2021-11-20 12:36:54.612489","","","","","","",""
4.0,0.056849297136068344,0.0005455358103209663,"train",5280.0,"2021-11-20 12:36:58.257360","","","","","","",""
4.0,0.052983202040195465,0.0005487490779469157,"train",5300.0,"2021-11-20 12:37:01.916463","","","","","","",""
4.0,0.07903116196393967,0.000551969819096316,"train",5320.0,"2021-11-20 12:37:05.592925","","","","","","",""
4.0,0.06944791972637177,0.0005551979847712252,"train",5340.0,"2021-11-20 12:37:09.753565","","","","","","",""
4.0,0.04434466361999512,0.0005584335258607489,"train",5360.0,"2021-11-20 12:37:13.426534","","","","","","",""
4.0,"","","train",5370.0,"2021-11-20 12:38:49.106371",0.5375827694098814,0.47042080892503707,0.913686700977308,0.5210822105312792,0.3604827222268471,0.3673731906269927,0.24757227842705373
4.0,"","","val",5370.0,"2021-11-20 12:39:14.291222",0.5299199814449728,0.4516690695702907,0.9036424540617816,0.5048484252180327,0.3478094584670682,0.3519911772692024,0.234901970158684
5.0,0.06419946998357773,0.0005616763931417894,"train",5380.0,"2021-11-20 12:39:18.856196","","","","","","",""
5.0,0.08074896782636642,0.0005649265372797939,"train",5400.0,"2021-11-20 12:39:22.491362","","","","","","",""
5.0,0.06263027340173721,0.0005681839088295046,"train",5420.0,"2021-11-20 12:39:26.122660","","","","","","",""
5.0,0.08602479845285416,0.0005714484582357109,"train",5440.0,"2021-11-20 12:39:29.702637","","","","","","",""
5.0,0.07311590760946274,0.0005747201358340048,"train",5460.0,"2021-11-20 12:39:33.853890","","","","","","",""
5.0,0.05905522033572197,0.0005779988918515344,"train",5480.0,"2021-11-20 12:39:37.427724","","","","","","",""
5.0,0.06931021809577942,0.0005812846764077623,"train",5500.0,"2021-11-20 12:39:41.021221","","","","","","",""
5.0,0.06400090456008911,0.0005845774395152243,"train",5520.0,"2021-11-20 12:39:44.605595","","","","","","",""
5.0,0.05692069232463837,0.0005878771310802895,"train",5540.0,"2021-11-20 12:39:48.211273","","","","","","",""
5.0,0.07516417652368546,0.0005911837009039229,"train",5560.0,"2021-11-20 12:39:52.293343","","","","","","",""
5.0,0.06734953820705414,0.0005944970986824485,"train",5580.0,"2021-11-20 12:39:55.883198","","","","","","",""
5.0,0.057562682777643204,0.000597817274008315,"train",5600.0,"2021-11-20 12:39:59.507462","","","","","","",""
5.0,0.04149801656603813,0.0006011441763708635,"train",5620.0,"2021-11-20 12:40:03.151450","","","","","","",""
5.0,0.07065192610025406,0.0006044777551570929,"train",5640.0,"2021-11-20 12:40:06.847986","","","","","","",""
5.0,0.06449279934167862,0.000607817959652434,"train",5660.0,"2021-11-20 12:40:10.463416","","","","","","",""
5.0,0.06696899980306625,0.0006111647390415189,"train",5680.0,"2021-11-20 12:40:14.606430","","","","","","",""
5.0,0.07937533408403397,0.0006145180424089525,"train",5700.0,"2021-11-20 12:40:18.318269","","","","","","",""
5.0,0.08546391874551773,0.0006178778187400902,"train",5720.0,"2021-11-20 12:40:22.025389","","","","","","",""
5.0,0.05095917731523514,0.0006212440169218129,"train",5740.0,"2021-11-20 12:40:25.716205","","","","","","",""
5.0,0.061398379504680634,0.0006246165857433027,"train",5760.0,"2021-11-20 12:40:29.317226","","","","","","",""
5.0,0.09986971318721771,0.0006279954738968251,"train",5780.0,"2021-11-20 12:40:32.964739","","","","","","",""
5.0,0.07504244148731232,0.0006313806299785075,"train",5800.0,"2021-11-20 12:40:37.168429","","","","","","",""
5.0,0.051031675189733505,0.0006347720024891209,"train",5820.0,"2021-11-20 12:40:40.882768","","","","","","",""
5.0,0.06667028367519379,0.0006381695398348657,"train",5840.0,"2021-11-20 12:40:44.581464","","","","","","",""
5.0,0.08304306119680405,0.0006415731903281542,"train",5860.0,"2021-11-20 12:40:48.268192","","","","","","",""
5.0,0.0897757038474083,0.0006449829021883979,"train",5880.0,"2021-11-20 12:40:51.997208","","","","","","",""
5.0,0.07352671772241592,0.0006483986235427956,"train",5900.0,"2021-11-20 12:40:56.294012","","","","","","",""
5.0,0.08928751945495605,0.0006518203024271213,"train",5920.0,"2021-11-20 12:41:00.045637","","","","","","",""
5.0,0.06856615096330643,0.0006552478867865169,"train",5940.0,"2021-11-20 12:41:03.799827","","","","","","",""
5.0,0.06465699523687363,0.0006586813244762815,"train",5960.0,"2021-11-20 12:41:07.423761","","","","","","",""
5.0,0.06713186949491501,0.0006621205632626672,"train",5980.0,"2021-11-20 12:41:11.056247","","","","","","",""
5.0,0.05915592983365059,0.0006655655508236717,"train",6000.0,"2021-11-20 12:41:14.671188","","","","","","",""
5.0,0.06985638290643692,0.0006690162347498356,"train",6020.0,"2021-11-20 12:41:18.749223","","","","","","",""
5.0,0.09167240560054779,0.0006724725625450389,"train",6040.0,"2021-11-20 12:41:22.355324","","","","","","",""
5.0,0.08190055191516876,0.0006759344816273003,"train",6060.0,"2021-11-20 12:41:25.947189","","","","","","",""
5.0,0.07996891438961029,0.0006794019393295771,"train",6080.0,"2021-11-20 12:41:29.573282","","","","","","",""
5.0,0.05943658947944641,0.0006828748829005654,"train",6100.0,"2021-11-20 12:41:33.194854","","","","","","",""
5.0,0.0642823576927185,0.0006863532595055041,"train",6120.0,"2021-11-20 12:41:36.873594","","","","","","",""
5.0,0.080799899995327,0.0006898370162269777,"train",6140.0,"2021-11-20 12:41:41.097994","","","","","","",""
5.0,0.05909422039985657,0.0006933261000657217,"train",6160.0,"2021-11-20 12:41:44.698409","","","","","","",""
5.0,0.05969195440411568,0.000696820457941429,"train",6180.0,"2021-11-20 12:41:48.354514","","","","","","",""
5.0,0.07229335606098175,0.000700320036693557,"train",6200.0,"2021-11-20 12:41:52.065596","","","","","","",""
5.0,0.05534863844513893,0.0007038247830821358,"train",6220.0,"2021-11-20 12:41:55.811870","","","","","","",""
5.0,0.06327793747186661,0.0007073346437885815,"train",6240.0,"2021-11-20 12:41:59.525314","","","","","","",""
5.0,0.048839349299669266,0.000710849565416502,"train",6260.0,"2021-11-20 12:42:03.665264","","","","","","",""
5.0,0.05951442942023277,0.0007143694944925134,"train",6280.0,"2021-11-20 12:42:07.354463","","","","","","",""
5.0,0.059191592037677765,0.0007178943774670524,"train",6300.0,"2021-11-20 12:42:11.087178","","","","","","",""
5.0,0.06635530292987823,0.0007214241607151901,"train",6320.0,"2021-11-20 12:42:14.818414","","","","","","",""
5.0,0.07786081731319427,0.000724958790537449,"train",6340.0,"2021-11-20 12:42:18.481306","","","","","","",""
5.0,0.0657564252614975,0.0007284982131606195,"train",6360.0,"2021-11-20 12:42:22.709588","","","","","","",""
5.0,0.0615743063390255,0.0007320423747385781,"train",6380.0,"2021-11-20 12:42:26.434541","","","","","","",""
5.0,0.06465695053339005,0.0007355912213531054,"train",6400.0,"2021-11-20 12:42:30.153847","","","","","","",""
5.0,0.08027400076389313,0.000739144699014708,"train",6420.0,"2021-11-20 12:42:33.858088","","","","","","",""
5.0,0.060030266642570496,0.0007427027536634401,"train",6440.0,"2021-11-20 12:42:37.533011","","","","","","",""
5.0,"","","train",6444.0,"2021-11-20 12:44:13.682360",0.5564287273521066,0.5102515601151348,0.926177393062235,0.5343997077782975,0.3757241292102321,0.378313277229874,0.2622436692751505
5.0,"","","val",6444.0,"2021-11-20 12:44:38.870292",0.547779195175693,0.4903010687561332,0.9153665832246763,0.5197451066908535,0.36506430274142204,0.36534390266392563,0.2500824657738701
6.0,0.07083411514759064,0.0007462653311697235,"train",6460.0,"2021-11-20 12:44:44.513598","","","","","","",""
6.0,0.052342601120471954,0.0007498323773351733,"train",6480.0,"2021-11-20 12:44:48.748977","","","","","","",""
6.0,0.09177738428115845,0.0007534038378934223,"train",6500.0,"2021-11-20 12:44:52.386820","","","","","","",""
6.0,0.08751153200864792,0.0007569796585109453,"train",6520.0,"2021-11-20 12:44:56.020400","","","","","","",""
6.0,0.07518184185028076,0.0007605597847878862,"train",6540.0,"2021-11-20 12:44:59.648859","","","","","","",""
6.0,0.05292562395334244,0.0007641441622588871,"train",6560.0,"2021-11-20 12:45:03.327054","","","","","","",""
6.0,0.058837588876485825,0.0007677327363939143,"train",6580.0,"2021-11-20 12:45:07.027976","","","","","","",""
6.0,0.05679582431912422,0.0007713254525990895,"train",6600.0,"2021-11-20 12:45:11.284239","","","","","","",""
6.0,0.04380208998918533,0.0007749222562175211,"train",6620.0,"2021-11-20 12:45:15.039846","","","","","","",""
6.0,0.05006052181124687,0.000778523092530133,"train",6640.0,"2021-11-20 12:45:18.774833","","","","","","",""
6.0,0.06821652501821518,0.0007821279067564996,"train",6660.0,"2021-11-20 12:45:22.562589","","","","","","",""
6.0,0.046292729675769806,0.0007857366440556786,"train",6680.0,"2021-11-20 12:45:26.362831","","","","","","",""
6.0,0.0680723488330841,0.0007893492495270442,"train",6700.0,"2021-11-20 12:45:30.554642","","","","","","",""
6.0,0.07008512318134308,0.0007929656682111239,"train",6720.0,"2021-11-20 12:45:34.380844","","","","","","",""
6.0,0.06089350953698158,0.0007965858450904332,"train",6740.0,"2021-11-20 12:45:38.216011","","","","","","",""
6.0,0.09204810112714767,0.000800209725090314,"train",6760.0,"2021-11-20 12:45:42.032369","","","","","","",""
6.0,0.047563210129737854,0.0008038372530797706,"train",6780.0,"2021-11-20 12:45:45.760865","","","","","","",""
6.0,0.06821776926517487,0.0008074683738723109,"train",6800.0,"2021-11-20 12:45:49.517680","","","","","","",""
6.0,0.049926117062568665,0.0008111030322267832,"train",6820.0,"2021-11-20 12:45:53.817817","","","","","","",""
6.0,0.05863342061638832,0.0008147411728482187,"train",6840.0,"2021-11-20 12:45:57.593428","","","","","","",""
6.0,0.05988238751888275,0.0008183827403886721,"train",6860.0,"2021-11-20 12:46:01.406382","","","","","","",""
6.0,0.05499716103076935,0.0008220276794480633,"train",6880.0,"2021-11-20 12:46:05.094518","","","","","","",""
6.0,0.06151439994573593,0.0008256759345750203,"train",6900.0,"2021-11-20 12:46:08.796210","","","","","","",""
6.0,0.07029981166124344,0.0008293274502677234,"train",6920.0,"2021-11-20 12:46:12.519915","","","","","","",""
6.0,0.06624860316514969,0.0008329821709747486,"train",6940.0,"2021-11-20 12:46:16.811954","","","","","","",""
6.0,0.061289478093385696,0.0008366400410959136,"train",6960.0,"2021-11-20 12:46:20.560847","","","","","","",""
6.0,0.06768922507762909,0.000840301004983123,"train",6980.0,"2021-11-20 12:46:24.306891","","","","","","",""
6.0,0.05437202379107475,0.0008439650069412147,"train",7000.0,"2021-11-20 12:46:28.049503","","","","","","",""
6.0,0.05123692378401756,0.0008476319912288095,"train",7020.0,"2021-11-20 12:46:31.802263","","","","","","",""
6.0,0.05398205667734146,0.0008513019020591544,"train",7040.0,"2021-11-20 12:46:35.979729","","","","","","",""
6.0,0.07309485971927643,0.0008549746836009771,"train",7060.0,"2021-11-20 12:46:39.565909","","","","","","",""
6.0,0.06358176469802856,0.0008586502799793306,"train",7080.0,"2021-11-20 12:46:43.178329","","","","","","",""
6.0,0.06636510044336319,0.0008623286352764453,"train",7100.0,"2021-11-20 12:46:46.856936","","","","","","",""
6.0,0.06864777207374573,0.0008660096935325802,"train",7120.0,"2021-11-20 12:46:50.603599","","","","","","",""
6.0,0.0671723335981369,0.0008696933987468731,"train",7140.0,"2021-11-20 12:46:54.341421","","","","","","",""
6.0,0.05421438813209534,0.0008733796948781924,"train",7160.0,"2021-11-20 12:46:58.617127","","","","","","",""
6.0,0.08731886744499207,0.0008770685258459915,"train",7180.0,"2021-11-20 12:47:02.350354","","","","","","",""
6.0,0.0853334590792656,0.0008807598355311595,"train",7200.0,"2021-11-20 12:47:06.057882","","","","","","",""
6.0,0.08126530796289444,0.0008844535677768764,"train",7220.0,"2021-11-20 12:47:09.738428","","","","","","",""
6.0,0.05224822461605072,0.0008881496663894681,"train",7240.0,"2021-11-20 12:47:13.363049","","","","","","",""
6.0,0.09057898074388504,0.0008918480751392592,"train",7260.0,"2021-11-20 12:47:17.002034","","","","","","",""
6.0,0.07311994582414627,0.00089554873776143,"train",7280.0,"2021-11-20 12:47:21.224629","","","","","","",""
6.0,0.045452412217855453,0.0008992515979568724,"train",7300.0,"2021-11-20 12:47:25.093534","","","","","","",""
6.0,0.07848896831274033,0.0009029565993930457,"train",7320.0,"2021-11-20 12:47:28.943962","","","","","","",""
6.0,0.07960609346628189,0.0009066636857048339,"train",7340.0,"2021-11-20 12:47:32.793534","","","","","","",""
6.0,0.07945004850625992,0.0009103728004954039,"train",7360.0,"2021-11-20 12:47:36.580419","","","","","","",""
6.0,0.05641169100999832,0.0009140838873370617,"train",7380.0,"2021-11-20 12:47:40.881107","","","","","","",""
6.0,0.0640842393040657,0.0009177968897721136,"train",7400.0,"2021-11-20 12:47:44.539806","","","","","","",""
6.0,0.05294050648808479,0.0009215117513137218,"train",7420.0,"2021-11-20 12:47:48.207849","","","","","","",""
6.0,0.06191293150186539,0.0009252284154467663,"train",7440.0,"2021-11-20 12:47:51.807593","","","","","","",""
6.0,0.04836433008313179,0.0009289468256287042,"train",7460.0,"2021-11-20 12:47:55.396664","","","","","","",""
6.0,0.060121506452560425,0.0009326669252904287,"train",7480.0,"2021-11-20 12:47:58.992299","","","","","","",""
6.0,0.06551224738359451,0.0009363886578371307,"train",7500.0,"2021-11-20 12:48:03.160032","","","","","","",""
6.0,"","","train",7518.0,"2021-11-20 12:49:41.389949",0.5660627228407189,0.5368901975233528,0.9351332768118777,0.5669217997327186,0.430942585959085,0.4409201455211399,0.2943751096227907
6.0,"","","val",7518.0,"2021-11-20 12:50:08.160997",0.5529977965905137,0.5090503766288351,0.9245703698899561,0.543449967396119,0.40684073214125693,0.4162320616674674,0.27053174345577014
7.0,0.07018411159515381,0.0009401119666491604,"train",7520.0,"2021-11-20 12:50:11.351574","","","","","","",""
7.0,0.07990247011184692,0.0009438367950828869,"train",7540.0,"2021-11-20 12:50:15.225486","","","","","","",""
7.0,0.04980513080954552,0.000947563086471561,"train",7560.0,"2021-11-20 12:50:19.002729","","","","","","",""
7.0,0.047232162207365036,0.0009512907841261783,"train",7580.0,"2021-11-20 12:50:22.733035","","","","","","",""
7.0,0.08513682335615158,0.0009550198313363391,"train",7600.0,"2021-11-20 12:50:26.481792","","","","","","",""
7.0,0.09394776076078415,0.0009587501713711128,"train",7620.0,"2021-11-20 12:50:30.772584","","","","","","",""
7.0,0.08885011821985245,0.0009624817474799023,"train",7640.0,"2021-11-20 12:50:34.469591","","","","","","",""
7.0,0.05333288386464119,0.0009662145028933038,"train",7660.0,"2021-11-20 12:50:38.116199","","","","","","",""
7.0,0.0802585557103157,0.0009699483808239733,"train",7680.0,"2021-11-20 12:50:41.734112","","","","","","",""
7.0,0.07735727727413177,0.0009736833244674895,"train",7700.0,"2021-11-20 12:50:45.350404","","","","","","",""
7.0,0.05620017275214195,0.0009774192770032192,"train",7720.0,"2021-11-20 12:50:49.034242","","","","","","",""
7.0,0.05818662419915199,0.0009811561815951785,"train",7740.0,"2021-11-20 12:50:53.207192","","","","","","",""
7.0,0.06591764092445374,0.0009848939813929015,"train",7760.0,"2021-11-20 12:50:56.950083","","","","","","",""
7.0,0.04817325621843338,0.0009886326195323026,"train",7780.0,"2021-11-20 12:51:00.661201","","","","","","",""
7.0,0.04787416756153107,0.0009923720391365428,"train",7800.0,"2021-11-20 12:51:04.346657","","","","","","",""
7.0,0.058096934109926224,0.000996112183316893,"train",7820.0,"2021-11-20 12:51:08.030122","","","","","","",""
7.0,0.05647319182753563,0.0009998529951736029,"train",7840.0,"2021-11-20 12:51:12.263203","","","","","","",""
7.0,0.06682898104190826,0.0010035944177967638,"train",7860.0,"2021-11-20 12:51:15.988569","","","","","","",""
7.0,0.0576372891664505,0.0010073363942671744,"train",7880.0,"2021-11-20 12:51:19.765183","","","","","","",""
7.0,0.05274286866188049,0.0010110788676572094,"train",7900.0,"2021-11-20 12:51:23.500780","","","","","","",""
7.0,0.06319283694028854,0.0010148217810316822,"train",7920.0,"2021-11-20 12:51:27.265804","","","","","","",""
7.0,0.07050812244415283,0.0010185650774487127,"train",7940.0,"2021-11-20 12:51:30.951149","","","","","","",""
7.0,0.05552980676293373,0.0010223086999605951,"train",7960.0,"2021-11-20 12:51:35.107695","","","","","","",""
7.0,0.06610443443059921,0.0010260525916146609,"train",7980.0,"2021-11-20 12:51:38.822821","","","","","","",""
7.0,0.06447502225637436,0.0010297966954541469,"train",8000.0,"2021-11-20 12:51:42.556385","","","","","","",""
7.0,0.11404240876436234,0.001033540954519064,"train",8020.0,"2021-11-20 12:51:46.327764","","","","","","",""
7.0,0.035367436707019806,0.0010372853118470592,"train",8040.0,"2021-11-20 12:51:50.098673","","","","","","",""
7.0,0.06441915035247803,0.0010410297104742857,"train",8060.0,"2021-11-20 12:51:53.843519","","","","","","",""
7.0,0.05999042093753815,0.0010447740934362692,"train",8080.0,"2021-11-20 12:51:58.131639","","","","","","",""
7.0,0.03975881263613701,0.0010485184037687715,"train",8100.0,"2021-11-20 12:52:01.794568","","","","","","",""
7.0,0.043172165751457214,0.0010522625845086615,"train",8120.0,"2021-11-20 12:52:05.481135","","","","","","",""
7.0,0.05915900319814682,0.0010560065786947796,"train",8140.0,"2021-11-20 12:52:09.167917","","","","","","",""
7.0,0.04911704361438751,0.0010597503293688013,"train",8160.0,"2021-11-20 12:52:12.870997","","","","","","",""
7.0,0.053903158754110336,0.001063493779576111,"train",8180.0,"2021-11-20 12:52:17.088824","","","","","","",""
7.0,0.06329161673784256,0.0010672368723666614,"train",8200.0,"2021-11-20 12:52:20.773059","","","","","","",""
7.0,0.0626337006688118,0.0010709795507958426,"train",8220.0,"2021-11-20 12:52:24.445515","","","","","","",""
7.0,0.05051499232649803,0.0010747217579253504,"train",8240.0,"2021-11-20 12:52:28.141998","","","","","","",""
7.0,0.06647200882434845,0.0010784634368240487,"train",8260.0,"2021-11-20 12:52:31.861498","","","","","","",""
7.0,0.0839848741889,0.0010822045305688382,"train",8280.0,"2021-11-20 12:52:35.532918","","","","","","",""
7.0,0.08483237773180008,0.0010859449822455227,"train",8300.0,"2021-11-20 12:52:39.600302","","","","","","",""
7.0,0.05922165513038635,0.001089684734949672,"train",8320.0,"2021-11-20 12:52:43.199044","","","","","","",""
7.0,0.04644041135907173,0.00109342373178749,"train",8340.0,"2021-11-20 12:52:46.834679","","","","","","",""
7.0,0.05743338540196419,0.0010971619158766821,"train",8360.0,"2021-11-20 12:52:50.535112","","","","","","",""
7.0,0.0821899026632309,0.0011008992303473152,"train",8380.0,"2021-11-20 12:52:54.147230","","","","","","",""
7.0,0.06438504159450531,0.001104635618342687,"train",8400.0,"2021-11-20 12:52:57.752275","","","","","","",""
7.0,0.03900153934955597,0.001108371023020191,"train",8420.0,"2021-11-20 12:53:01.904572","","","","","","",""
7.0,0.06535521894693375,0.0011121053875521787,"train",8440.0,"2021-11-20 12:53:05.567816","","","","","","",""
7.0,0.06089366599917412,0.0011158386551268257,"train",8460.0,"2021-11-20 12:53:09.309893","","","","","","",""
7.0,0.06450111418962479,0.0011195707689489972,"train",8480.0,"2021-11-20 12:53:12.900583","","","","","","",""
7.0,0.0851345807313919,0.0011233016722411097,"train",8500.0,"2021-11-20 12:53:16.503151","","","","","","",""
7.0,0.09911900758743286,0.0011270313082439951,"train",8520.0,"2021-11-20 12:53:20.591160","","","","","","",""
7.0,0.06512991338968277,0.001130759620217767,"train",8540.0,"2021-11-20 12:53:24.280338","","","","","","",""
7.0,0.04883069545030594,0.0011344865514426794,"train",8560.0,"2021-11-20 12:53:27.931173","","","","","","",""
7.0,0.05110502615571022,0.0011382120452199938,"train",8580.0,"2021-11-20 12:53:31.557985","","","","","","",""
7.0,"","","train",8592.0,"2021-11-20 12:55:08.546209",0.5691042712653714,0.5576583825849528,0.9436219021145779,0.6049553058538836,0.45614841097373915,0.46914840062491847,0.3077194859646696
7.0,"","","val",8592.0,"2021-11-20 12:55:35.274488",0.5507364026440914,0.524175126601899,0.9326534269512237,0.5760214346412931,0.4333067584159404,0.4439911720887387,0.2838849456498043
8.0,0.06955257803201675,0.001141936044872839,"train",8600.0,"2021-11-20 12:55:39.663180","","","","","","",""
8.0,0.08842843025922775,0.0011456584937470744,"train",8620.0,"2021-11-20 12:55:43.368999","","","","","","",""
8.0,0.0816601812839508,0.0011493793352121522,"train",8640.0,"2021-11-20 12:55:47.553920","","","","","","",""
8.0,0.08839569240808487,0.0011530985126619784,"train",8660.0,"2021-11-20 12:55:51.187119","","","","","","",""
8.0,0.05304350331425667,0.001156815969515773,"train",8680.0,"2021-11-20 12:55:54.741278","","","","","","",""
8.0,0.050057489424943924,0.001160531649218934,"train",8700.0,"2021-11-20 12:55:58.370794","","","","","","",""
8.0,0.04409169405698776,0.001164245495243894,"train",8720.0,"2021-11-20 12:56:02.018501","","","","","","",""
8.0,0.06982892006635666,0.0011679574510909817,"train",8740.0,"2021-11-20 12:56:05.641715","","","","","","",""
8.0,0.051075104624032974,0.0011716674602892828,"train",8760.0,"2021-11-20 12:56:09.773122","","","","","","",""
8.0,0.05304151400923729,0.0011753754663974968,"train",8780.0,"2021-11-20 12:56:13.368436","","","","","","",""
8.0,0.06452237814664841,0.0011790814130047968,"train",8800.0,"2021-11-20 12:56:16.936794","","","","","","",""
8.0,0.058881890028715134,0.001182785243731688,"train",8820.0,"2021-11-20 12:56:20.548529","","","","","","",""
8.0,0.061796218156814575,0.0011864869022308656,"train",8840.0,"2021-11-20 12:56:24.172787","","","","","","",""
8.0,0.07901978492736816,0.0011901863321880693,"train",8860.0,"2021-11-20 12:56:28.268365","","","","","","",""
8.0,0.06852000206708908,0.001193883477322945,"train",8880.0,"2021-11-20 12:56:31.855626","","","","","","",""
8.0,0.06110052764415741,0.0011975782813898961,"train",8900.0,"2021-11-20 12:56:35.499652","","","","","","",""
8.0,0.06989720463752747,0.0012012706881789417,"train",8920.0,"2021-11-20 12:56:39.090087","","","","","","",""
8.0,0.05282973498106003,0.001204960641516572,"train",8940.0,"2021-11-20 12:56:42.647514","","","","","","",""
8.0,0.048077162355184555,0.0012086480852666014,"train",8960.0,"2021-11-20 12:56:46.222510","","","","","","",""
8.0,0.06366311013698578,0.0012123329633310235,"train",8980.0,"2021-11-20 12:56:50.354994","","","","","","",""
8.0,0.05891691520810127,0.0012160152196508643,"train",9000.0,"2021-11-20 12:56:53.944321","","","","","","",""
8.0,0.04963645711541176,0.0012196947982070355,"train",9020.0,"2021-11-20 12:56:57.532189","","","","","","",""
8.0,0.0662471204996109,0.0012233716430211856,"train",9040.0,"2021-11-20 12:57:01.119441","","","","","","",""
8.0,0.05624580755829811,0.001227045698156553,"train",9060.0,"2021-11-20 12:57:04.795149","","","","","","",""
8.0,0.08369281142950058,0.0012307169077188148,"train",9080.0,"2021-11-20 12:57:08.499874","","","","","","",""
8.0,0.08554843068122864,0.0012343852158569401,"train",9100.0,"2021-11-20 12:57:12.628950","","","","","","",""
8.0,0.08582872152328491,0.0012380505667640377,"train",9120.0,"2021-11-20 12:57:16.330142","","","","","","",""
8.0,0.0605895072221756,0.0012417129046782046,"train",9140.0,"2021-11-20 12:57:19.995586","","","","","","",""
8.0,0.05139503255486488,0.0012453721738833758,"train",9160.0,"2021-11-20 12:57:23.595896","","","","","","",""
8.0,0.04991400986909866,0.001249028318710172,"train",9180.0,"2021-11-20 12:57:27.203698","","","","","","",""
8.0,0.05258430913090706,0.0012526812835367447,"train",9200.0,"2021-11-20 12:57:30.848492","","","","","","",""
8.0,0.06477443873882294,0.0012563310127896242,"train",9220.0,"2021-11-20 12:57:35.085259","","","","","","",""
8.0,0.07161159068346024,0.0012599774509445645,"train",9240.0,"2021-11-20 12:57:38.838849","","","","","","",""
8.0,0.059356216341257095,0.0012636205425273874,"train",9260.0,"2021-11-20 12:57:42.505692","","","","","","",""
8.0,0.04456908255815506,0.0012672602321148268,"train",9280.0,"2021-11-20 12:57:46.169157","","","","","","",""
8.0,0.0787159726023674,0.0012708964643353732,"train",9300.0,"2021-11-20 12:57:49.843263","","","","","","",""
8.0,0.04722820222377777,0.001274529183870114,"train",9320.0,"2021-11-20 12:57:54.051622","","","","","","",""
8.0,0.07461906969547272,0.0012781583354535748,"train",9340.0,"2021-11-20 12:57:57.678506","","","","","","",""
8.0,0.08455146849155426,0.0012817838638745646,"train",9360.0,"2021-11-20 12:58:01.290833","","","","","","",""
8.0,0.06490860134363174,0.001285405713977009,"train",9380.0,"2021-11-20 12:58:04.925431","","","","","","",""
8.0,0.04932931438088417,0.0012890238306607947,"train",9400.0,"2021-11-20 12:58:08.566424","","","","","","",""
8.0,0.054428111761808395,0.001292638158882606,"train",9420.0,"2021-11-20 12:58:12.158196","","","","","","",""
8.0,0.04932666942477226,0.0012962486436567603,"train",9440.0,"2021-11-20 12:58:16.170071","","","","","","",""
8.0,0.06390050798654556,0.0012998552300560484,"train",9460.0,"2021-11-20 12:58:19.764172","","","","","","",""
8.0,0.05657695233821869,0.0013034578632125668,"train",9480.0,"2021-11-20 12:58:23.368664","","","","","","",""
8.0,0.08945635706186295,0.0013070564883185534,"train",9500.0,"2021-11-20 12:58:26.967866","","","","","","",""
8.0,0.04527522996068001,0.001310651050627223,"train",9520.0,"2021-11-20 12:58:30.641665","","","","","","",""
8.0,0.05857370048761368,0.001314241495453598,"train",9540.0,"2021-11-20 12:58:34.299791","","","","","","",""
8.0,0.05613669753074646,0.00131782776817534,"train",9560.0,"2021-11-20 12:58:38.516907","","","","","","",""
8.0,0.049084123224020004,0.0013214098142335837,"train",9580.0,"2021-11-20 12:58:42.145305","","","","","","",""
8.0,0.04803339019417763,0.001324987579133764,"train",9600.0,"2021-11-20 12:58:45.768616","","","","","","",""
8.0,0.0396881029009819,0.0013285610084464463,"train",9620.0,"2021-11-20 12:58:49.340689","","","","","","",""
8.0,0.04575134813785553,0.001332130047808155,"train",9640.0,"2021-11-20 12:58:52.911450","","","","","","",""
8.0,0.06342088431119919,0.001335694642922199,"train",9660.0,"2021-11-20 12:58:56.967084","","","","","","",""
8.0,"","","train",9666.0,"2021-11-20 13:00:32.906327",0.5857236411263916,0.5835199719268656,0.9454767989514449,0.5945047127596742,0.4624391314213444,0.48522355885722057,0.3164956113960745
8.0,"","","val",9666.0,"2021-11-20 13:00:58.236923",0.5637249217209788,0.5457416495683922,0.9338806400632408,0.5664558221418822,0.44074680722877463,0.4612155142353299,0.2939277906177551
9.0,0.06885578483343124,0.0013392547395594985,"train",9680.0,"2021-11-20 13:01:03.588187","","","","","","",""
9.0,0.04883968085050583,0.001342810283559412,"train",9700.0,"2021-11-20 13:01:07.238697","","","","","","",""
9.0,0.06050394847989082,0.0013463612208305564,"train",9720.0,"2021-11-20 13:01:10.867068","","","","","","",""
9.0,0.0346786305308342,0.0013499074973516321,"train",9740.0,"2021-11-20 13:01:14.447439","","","","","","",""
9.0,0.053492430597543716,0.0013534490591722464,"train",9760.0,"2021-11-20 13:01:18.063241","","","","","","",""
9.0,0.05179651081562042,0.0013569858524137305,"train",9780.0,"2021-11-20 13:01:22.272439","","","","","","",""
9.0,0.06197747960686684,0.001360517823269962,"train",9800.0,"2021-11-20 13:01:25.901846","","","","","","",""
9.0,0.048491813242435455,0.0013640449180081834,"train",9820.0,"2021-11-20 13:01:29.549327","","","","","","",""
9.0,0.04300855100154877,0.0013675670829698173,"train",9840.0,"2021-11-20 13:01:33.151414","","","","","","",""
9.0,0.07738729566335678,0.0013710842645712853,"train",9860.0,"2021-11-20 13:01:36.726273","","","","","","",""
9.0,0.05551798641681671,0.0013745964093048219,"train",9880.0,"2021-11-20 13:01:40.294316","","","","","","",""
9.0,0.07004004716873169,0.0013781034637392886,"train",9900.0,"2021-11-20 13:01:44.408727","","","","","","",""
9.0,0.06784600764513016,0.0013816053745209864,"train",9920.0,"2021-11-20 13:01:47.989529","","","","","","",""
9.0,0.057901181280612946,0.0013851020883744697,"train",9940.0,"2021-11-20 13:01:51.583364","","","","","","",""
9.0,0.0706978589296341,0.001388593552103353,"train",9960.0,"2021-11-20 13:01:55.163003","","","","","","",""
9.0,0.06723378598690033,0.0013920797125911233,"train",9980.0,"2021-11-20 13:01:58.794196","","","","","","",""
9.0,0.057292837649583817,0.001395560516801947,"train",10000.0,"2021-11-20 13:02:02.987755","","","","","","",""
9.0,0.06519986689090729,0.0013990359117814774,"train",10020.0,"2021-11-20 13:02:06.725552","","","","","","",""
9.0,0.050240859389305115,0.0014025058446576583,"train",10040.0,"2021-11-20 13:02:10.414222","","","","","","",""
9.0,0.06527692079544067,0.0014059702626415317,"train",10060.0,"2021-11-20 13:02:14.039505","","","","","","",""
9.0,0.07554677873849869,0.0014094291130280377,"train",10080.0,"2021-11-20 13:02:17.616077","","","","","","",""
9.0,0.038513556122779846,0.0014128823431968183,"train",10100.0,"2021-11-20 13:02:21.292822","","","","","","",""
9.0,0.0511232353746891,0.001416329900613017,"train",10120.0,"2021-11-20 13:02:25.559599","","","","","","",""
9.0,0.0355205312371254,0.0014197717328280782,"train",10140.0,"2021-11-20 13:02:29.283808","","","","","","",""
9.0,0.04892507195472717,0.0014232077874805457,"train",10160.0,"2021-11-20 13:02:32.954645","","","","","","",""
9.0,0.08515150845050812,0.0014266380122968589,"train",10180.0,"2021-11-20 13:02:36.611317","","","","","","",""
9.0,0.03865024074912071,0.0014300623550921468,"train",10200.0,"2021-11-20 13:02:40.387774","","","","","","",""
9.0,0.06556998193264008,0.0014334807637710243,"train",10220.0,"2021-11-20 13:02:44.073911","","","","","","",""
9.0,0.05138346925377846,0.0014368931863283831,"train",10240.0,"2021-11-20 13:02:48.269030","","","","","","",""
9.0,0.055179573595523834,0.0014402995708501826,"train",10260.0,"2021-11-20 13:02:51.934238","","","","","","",""
9.0,0.04680944234132767,0.0014436998655142422,"train",10280.0,"2021-11-20 13:02:55.654477","","","","","","",""
9.0,0.04951802268624306,0.0014470940185910258,"train",10300.0,"2021-11-20 13:02:59.354329","","","","","","",""
9.0,0.05132192000746727,0.001450481978444431,"train",10320.0,"2021-11-20 13:03:02.932970","","","","","","",""
9.0,0.05311933532357216,0.0014538636935325763,"train",10340.0,"2021-11-20 13:03:06.615084","","","","","","",""
9.0,0.06753076612949371,0.0014572391124085817,"train",10360.0,"2021-11-20 13:03:10.843153","","","","","","",""
9.0,0.05753534659743309,0.0014606081837213525,"train",10380.0,"2021-11-20 13:03:14.442865","","","","","","",""
9.0,0.08144643157720566,0.0014639708562163639,"train",10400.0,"2021-11-20 13:03:18.032952","","","","","","",""
9.0,0.03589065745472908,0.001467327078736435,"train",10420.0,"2021-11-20 13:03:21.633284","","","","","","",""
9.0,0.07368051260709763,0.0014706768002225108,"train",10440.0,"2021-11-20 13:03:25.290835","","","","","","",""
9.0,0.07863488793373108,0.0014740199697144392,"train",10460.0,"2021-11-20 13:03:29.390744","","","","","","",""
9.0,0.05847194418311119,0.0014773565363517442,"train",10480.0,"2021-11-20 13:03:32.946671","","","","","","",""
9.0,0.04397784173488617,0.0014806864493744007,"train",10500.0,"2021-11-20 13:03:36.519775","","","","","","",""
9.0,0.05858634412288666,0.0014840096581236072,"train",10520.0,"2021-11-20 13:03:40.125037","","","","","","",""
9.0,0.04140115901827812,0.001487326112042556,"train",10540.0,"2021-11-20 13:03:43.713476","","","","","","",""
9.0,0.07953209429979324,0.0014906357606772013,"train",10560.0,"2021-11-20 13:03:47.287521","","","","","","",""
9.0,0.030549408867955208,0.0014939385536770291,"train",10580.0,"2021-11-20 13:03:51.412491","","","","","","",""
9.0,0.04217694327235222,0.0014972344407958218,"train",10600.0,"2021-11-20 13:03:55.056652","","","","","","",""
9.0,0.06241006404161453,0.0015005233718924213,"train",10620.0,"2021-11-20 13:03:58.762920","","","","","","",""
9.0,0.07514030486345291,0.0015038052969314946,"train",10640.0,"2021-11-20 13:04:02.473292","","","","","","",""
9.0,0.1011023223400116,0.0015070801659842939,"train",10660.0,"2021-11-20 13:04:06.122834","","","","","","",""
9.0,0.08173827081918716,0.001510347929229414,"train",10680.0,"2021-11-20 13:04:09.768736","","","","","","",""
9.0,0.04048682376742363,0.0015136085369535537,"train",10700.0,"2021-11-20 13:04:13.875823","","","","","","",""
9.0,0.05366455763578415,0.0015168619395522708,"train",10720.0,"2021-11-20 13:04:17.580138","","","","","","",""
9.0,0.052090175449848175,0.0015201080875307349,"train",10740.0,"2021-11-20 13:04:21.137983","","","","","","",""
9.0,"","","train",10740.0,"2021-11-20 13:05:55.011000",0.6062286254820636,0.6001010834698514,0.9493231273563766,0.6395140187313993,0.5027434140779232,0.5267261865804127,0.34315221536151347
9.0,"","","val",10740.0,"2021-11-20 13:06:20.275151",0.5785689435231358,0.5585766502726732,0.9378738082350805,0.6040370144445419,0.46894217336627503,0.48881653473641057,0.30965180315680557
10.0,0.044305041432380676,0.0015233469315044834,"train",10760.0,"2021-11-20 13:06:26.715714","","","","","","",""
10.0,0.0626906156539917,0.0015265784222001709,"train",10780.0,"2021-11-20 13:06:30.362121","","","","","","",""
10.0,0.043025750666856766,0.0015298025104563185,"train",10800.0,"2021-11-20 13:06:34.720061","","","","","","",""
10.0,0.0822424441576004,0.001533019147224064,"train",10820.0,"2021-11-20 13:06:38.471990","","","","","","",""
10.0,0.05087664723396301,0.0015362282835679054,"train",10840.0,"2021-11-20 13:06:42.146147","","","","","","",""
10.0,0.037664029747247696,0.0015394298706664469,"train",10860.0,"2021-11-20 13:06:45.873172","","","","","","",""
10.0,0.05861622840166092,0.001542623859813141,"train",10880.0,"2021-11-20 13:06:49.631161","","","","","","",""
10.0,0.05497515946626663,0.00154581020241703,"train",10900.0,"2021-11-20 13:06:53.416941","","","","","","",""
10.0,0.0700027197599411,0.0015489888500034858,"train",10920.0,"2021-11-20 13:06:57.683345","","","","","","",""
10.0,0.05568147078156471,0.0015521597542149444,"train",10940.0,"2021-11-20 13:07:01.338848","","","","","","",""
10.0,0.04406847432255745,0.0015553228668116455,"train",10960.0,"2021-11-20 13:07:05.010542","","","","","","",""
10.0,0.04251600429415703,0.0015584781396723642,"train",10980.0,"2021-11-20 13:07:08.674259","","","","","","",""
10.0,0.06453277915716171,0.0015616255247951432,"train",11000.0,"2021-11-20 13:07:12.363836","","","","","","",""
10.0,0.050839152187108994,0.0015647649742980233,"train",11020.0,"2021-11-20 13:07:16.037810","","","","","","",""
10.0,0.07892865687608719,0.0015678964404197727,"train",11040.0,"2021-11-20 13:07:20.254025","","","","","","",""
10.0,0.0648425966501236,0.0015710198755206112,"train",11060.0,"2021-11-20 13:07:23.961861","","","","","","",""
10.0,0.049441155046224594,0.0015741352320829379,"train",11080.0,"2021-11-20 13:07:27.741724","","","","","","",""
10.0,0.04358955845236778,0.0015772424627120527,"train",11100.0,"2021-11-20 13:07:31.427157","","","","","","",""
10.0,0.053963903337717056,0.0015803415201368761,"train",11120.0,"2021-11-20 13:07:35.062735","","","","","","",""
10.0,0.05516039580106735,0.001583432357210671,"train",11140.0,"2021-11-20 13:07:39.175736","","","","","","",""
10.0,0.06428705900907516,0.001586514926911758,"train",11160.0,"2021-11-20 13:07:42.784901","","","","","","",""
10.0,0.08746281266212463,0.0015895891823442313,"train",11180.0,"2021-11-20 13:07:46.398997","","","","","","",""
10.0,0.072948157787323,0.0015926550767386717,"train",11200.0,"2021-11-20 13:07:50.033479","","","","","","",""
10.0,0.046714600175619125,0.0015957125634528599,"train",11220.0,"2021-11-20 13:07:53.910693","","","","","","",""
10.0,0.05149395763874054,0.0015987615959724836,"train",11240.0,"2021-11-20 13:07:57.756992","","","","","","",""
10.0,0.05958150327205658,0.0016018021279118457,"train",11260.0,"2021-11-20 13:08:02.059720","","","","","","",""
10.0,0.06211261823773384,0.0016048341130145728,"train",11280.0,"2021-11-20 13:08:05.859565","","","","","","",""
10.0,0.06533300131559372,0.0016078575051543145,"train",11300.0,"2021-11-20 13:08:09.662568","","","","","","",""
10.0,0.0530383437871933,0.0016108722583354478,"train",11320.0,"2021-11-20 13:08:13.402848","","","","","","",""
10.0,0.05213599279522896,0.0016138783266937777,"train",11340.0,"2021-11-20 13:08:17.035430","","","","","","",""
10.0,0.07586744427680969,0.0016168756644972322,"train",11360.0,"2021-11-20 13:08:20.648262","","","","","","",""
10.0,0.03656105697154999,0.0016198642261465587,"train",11380.0,"2021-11-20 13:08:24.797337","","","","","","",""
10.0,0.05597309023141861,0.0016228439661760208,"train",11400.0,"2021-11-20 13:08:28.415489","","","","","","",""
10.0,0.04475326091051102,0.001625814839254086,"train",11420.0,"2021-11-20 13:08:32.035604","","","","","","",""
10.0,0.0531608983874321,0.0016287768001841164,"train",11440.0,"2021-11-20 13:08:35.811958","","","","","","",""
10.0,0.06520234048366547,0.001631729803905059,"train",11460.0,"2021-11-20 13:08:39.597743","","","","","","",""
10.0,0.054006386548280716,0.0016346738054921273,"train",11480.0,"2021-11-20 13:08:43.754640","","","","","","",""
10.0,0.049789655953645706,0.001637608760157486,"train",11500.0,"2021-11-20 13:08:47.578737","","","","","","",""
10.0,0.042504698038101196,0.0016405346232509356,"train",11520.0,"2021-11-20 13:08:51.437539","","","","","","",""
10.0,0.05127204582095146,0.0016434513502605861,"train",11540.0,"2021-11-20 13:08:55.387413","","","","","","",""
10.0,0.07151312381029129,0.0016463588968135383,"train",11560.0,"2021-11-20 13:08:59.279015","","","","","","",""
10.0,0.0432688370347023,0.0016492572186765577,"train",11580.0,"2021-11-20 13:09:03.717576","","","","","","",""
10.0,0.06879521906375885,0.001652146271756747,"train",11600.0,"2021-11-20 13:09:07.665426","","","","","","",""
10.0,0.04844994097948074,0.0016550260121022172,"train",11620.0,"2021-11-20 13:09:11.374503","","","","","","",""
10.0,0.052093036472797394,0.0016578963959027562,"train",11640.0,"2021-11-20 13:09:15.016691","","","","","","",""
10.0,0.0378471277654171,0.001660757379490496,"train",11660.0,"2021-11-20 13:09:18.570904","","","","","","",""
10.0,0.06417636573314667,0.0016636089193405761,"train",11680.0,"2021-11-20 13:09:22.644144","","","","","","",""
10.0,0.052762873470783234,0.0016664509720718049,"train",11700.0,"2021-11-20 13:09:26.240959","","","","","","",""
10.0,0.038919806480407715,0.0016692834944473224,"train",11720.0,"2021-11-20 13:09:29.842603","","","","","","",""
10.0,0.02890445664525032,0.0016721064433752554,"train",11740.0,"2021-11-20 13:09:33.393694","","","","","","",""
10.0,0.06721183657646179,0.0016749197759093734,"train",11760.0,"2021-11-20 13:09:36.929911","","","","","","",""
10.0,0.05788562446832657,0.0016777234492497436,"train",11780.0,"2021-11-20 13:09:41.041857","","","","","","",""
10.0,0.0551154725253582,0.0016805174207433808,"train",11800.0,"2021-11-20 13:09:44.805599","","","","","","",""
10.0,"","","train",11814.0,"2021-11-20 13:11:21.446941",0.6052681365058575,0.6127199302033728,0.9518307841536697,0.6247432170322244,0.4921940800977476,0.5107817041462394,0.340810294462058
10.0,"","","val",11814.0,"2021-11-20 13:11:47.958943",0.5799025861069234,0.5664115420339422,0.9378283398912732,0.5890895952746421,0.46145893300556395,0.478222268840896,0.3087274139884058
11.0,0.047009244561195374,0.0016833016478848956,"train",11820.0,"2021-11-20 13:11:51.868855","","","","","","",""
11.0,0.05215083062648773,0.0016860760883171426,"train",11840.0,"2021-11-20 13:11:55.668278","","","","","","",""
11.0,0.04510132968425751,0.001688840699831864,"train",11860.0,"2021-11-20 13:11:59.450037","","","","","","",""
11.0,0.04802440106868744,0.0016915954403703313,"train",11880.0,"2021-11-20 13:12:03.845886","","","","","","",""
11.0,0.058525122702121735,0.0016943402680239862,"train",11900.0,"2021-11-20 13:12:07.549909","","","","","","",""
11.0,0.04820488765835762,0.0016970751410350774,"train",11920.0,"2021-11-20 13:12:11.236027","","","","","","",""
11.0,0.05719611421227455,0.001699800017797296,"train",11940.0,"2021-11-20 13:12:14.802520","","","","","","",""
11.0,0.04901789873838425,0.0017025148568564086,"train",11960.0,"2021-11-20 13:12:18.911319","","","","","","",""
11.0,0.04736176133155823,0.001705219616910888,"train",11980.0,"2021-11-20 13:12:22.527419","","","","","","",""
11.0,0.0795014500617981,0.001707914256812541,"train",12000.0,"2021-11-20 13:12:26.134637","","","","","","",""
11.0,0.05364051088690758,0.0017105987355671352,"train",12020.0,"2021-11-20 13:12:29.774628","","","","","","",""
11.0,0.03991825133562088,0.0017132730123350227,"train",12040.0,"2021-11-20 13:12:33.371220","","","","","","",""
11.0,0.03788826987147331,0.00171593704643176,"train",12060.0,"2021-11-20 13:12:37.399383","","","","","","",""
11.0,0.04231005534529686,0.0017185907973287285,"train",12080.0,"2021-11-20 13:12:40.976807","","","","","","",""
11.0,0.03603984788060188,0.0017212342246537506,"train",12100.0,"2021-11-20 13:12:44.582733","","","","","","",""
11.0,0.0638924092054367,0.0017238672881917032,"train",12120.0,"2021-11-20 13:12:48.245129","","","","","","",""
11.0,0.057784296572208405,0.001726489947885131,"train",12140.0,"2021-11-20 13:12:51.987561","","","","","","",""
11.0,0.05640909820795059,0.0017291021638348543,"train",12160.0,"2021-11-20 13:12:56.215396","","","","","","",""
11.0,0.0696265920996666,0.0017317038963005765,"train",12180.0,"2021-11-20 13:12:59.948556","","","","","","",""
11.0,0.07269484549760818,0.00173429510570149,"train",12200.0,"2021-11-20 13:13:03.704705","","","","","","",""
11.0,0.041863393038511276,0.0017368757526168759,"train",12220.0,"2021-11-20 13:13:07.303138","","","","","","",""
11.0,0.05385545641183853,0.0017394457977867057,"train",12240.0,"2021-11-20 13:13:10.893052","","","","","","",""
11.0,0.045675430446863174,0.0017420052021122378,"train",12260.0,"2021-11-20 13:13:15.033759","","","","","","",""
11.0,0.06239231675863266,0.0017445539266566128,"train",12280.0,"2021-11-20 13:13:18.668164","","","","","","",""
11.0,0.06974402070045471,0.001747091932645445,"train",12300.0,"2021-11-20 13:13:22.322265","","","","","","",""
11.0,0.04734240844845772,0.0017496191814674125,"train",12320.0,"2021-11-20 13:13:25.960784","","","","","","",""
11.0,0.07191073149442673,0.001752135634674846,"train",12340.0,"2021-11-20 13:13:29.583995","","","","","","",""
11.0,0.056970469653606415,0.0017546412539843118,"train",12360.0,"2021-11-20 13:13:33.736007","","","","","","",""
11.0,0.053008366376161575,0.001757136001277194,"train",12380.0,"2021-11-20 13:13:37.329308","","","","","","",""
11.0,0.03845984488725662,0.001759619838600278,"train",12400.0,"2021-11-20 13:13:40.915661","","","","","","",""
11.0,0.03777299076318741,0.0017620927281663229,"train",12420.0,"2021-11-20 13:13:44.533227","","","","","","",""
11.0,0.07267960906028748,0.0017645546323546398,"train",12440.0,"2021-11-20 13:13:48.729585","","","","","","",""
11.0,0.05483466759324074,0.0017670055137116636,"train",12460.0,"2021-11-20 13:13:52.345947","","","","","","",""
11.0,0.04846910387277603,0.0017694453349515209,"train",12480.0,"2021-11-20 13:13:55.998774","","","","","","",""
11.0,0.040740881115198135,0.0017718740589566,"train",12500.0,"2021-11-20 13:13:59.750726","","","","","","",""
11.0,0.06815017014741898,0.0017742916487781134,"train",12520.0,"2021-11-20 13:14:03.504339","","","","","","",""
11.0,0.0483555793762207,0.0017766980676366608,"train",12540.0,"2021-11-20 13:14:07.786819","","","","","","",""
11.0,0.07380305230617523,0.001779093278922789,"train",12560.0,"2021-11-20 13:14:11.540736","","","","","","",""
11.0,0.049157530069351196,0.001781477246197548,"train",12580.0,"2021-11-20 13:14:15.276610","","","","","","",""
11.0,0.07798873633146286,0.0017838499331930462,"train",12600.0,"2021-11-20 13:14:19.042340","","","","","","",""
11.0,0.03806291148066521,0.001786211303813001,"train",12620.0,"2021-11-20 13:14:22.884962","","","","","","",""
11.0,0.05451977625489235,0.0017885613221332894,"train",12640.0,"2021-11-20 13:14:27.247073","","","","","","",""
11.0,0.07023197412490845,0.0017908999524024931,"train",12660.0,"2021-11-20 13:14:31.069934","","","","","","",""
11.0,0.06987079232931137,0.0017932271590424438,"train",12680.0,"2021-11-20 13:14:34.869503","","","","","","",""
11.0,0.06055700033903122,0.0017955429066487635,"train",12700.0,"2021-11-20 13:14:38.719009","","","","","","",""
11.0,0.06528183817863464,0.0017978471599914025,"train",12720.0,"2021-11-20 13:14:42.601116","","","","","","",""
11.0,0.045234836637973785,0.0018001398840151778,"train",12740.0,"2021-11-20 13:14:46.862349","","","","","","",""
11.0,0.06321553140878677,0.0018024210438403031,"train",12760.0,"2021-11-20 13:14:50.555855","","","","","","",""
11.0,0.04275232180953026,0.0018046906047629228,"train",12780.0,"2021-11-20 13:14:54.165165","","","","","","",""
11.0,0.060113076120615005,0.0018069485322556372,"train",12800.0,"2021-11-20 13:14:57.787586","","","","","","",""
11.0,0.05211268365383148,0.001809194791968029,"train",12820.0,"2021-11-20 13:15:01.411762","","","","","","",""
11.0,0.038171201944351196,0.0018114293497271863,"train",12840.0,"2021-11-20 13:15:05.540921","","","","","","",""
11.0,0.05019933730363846,0.0018136521715382218,"train",12860.0,"2021-11-20 13:15:09.134444","","","","","","",""
11.0,0.050726961344480515,0.0018158632235847892,"train",12880.0,"2021-11-20 13:15:12.770748","","","","","","",""
11.0,"","","train",12888.0,"2021-11-20 13:16:47.723344",0.6199665284144655,0.636024874174965,0.9564338576973979,0.6251218663596696,0.5037545771975592,0.5216410670993036,0.35041720715542823
11.0,"","","val",12888.0,"2021-11-20 13:17:14.449808",0.5896439754145889,0.5822838965632984,0.9443647090934972,0.5869931281305154,0.46871857123922145,0.4836716588180644,0.3128135329058858
12.0,0.06074231490492821,0.0018180624722295999,"train",12900.0,"2021-11-20 13:17:19.351535","","","","","","",""
12.0,0.03585405647754669,0.001820249884014933,"train",12920.0,"2021-11-20 13:17:23.700434","","","","","","",""
12.0,0.04191352799534798,0.001822425425663144,"train",12940.0,"2021-11-20 13:17:27.395757","","","","","","",""
12.0,0.0451592318713665,0.0018245890640771725,"train",12960.0,"2021-11-20 13:17:31.044589","","","","","","",""
12.0,0.04285125806927681,0.0018267407663410452,"train",12980.0,"2021-11-20 13:17:34.644595","","","","","","",""
12.0,0.07779315859079361,0.0018288804997203755,"train",13000.0,"2021-11-20 13:17:38.228745","","","","","","",""
12.0,0.04808023199439049,0.0018310082316628634,"train",13020.0,"2021-11-20 13:17:42.570307","","","","","","",""
12.0,0.043436117470264435,0.0018331239297987893,"train",13040.0,"2021-11-20 13:17:46.223619","","","","","","",""
12.0,0.07333146780729294,0.0018352275619415066,"train",13060.0,"2021-11-20 13:17:49.850047","","","","","","",""
12.0,0.04668552428483963,0.0018373190960879326,"train",13080.0,"2021-11-20 13:17:53.504085","","","","","","",""
12.0,0.060590747743844986,0.0018393985004190336,"train",13100.0,"2021-11-20 13:17:57.129874","","","","","","",""
12.0,0.06719572097063065,0.00184146574330031,"train",13120.0,"2021-11-20 13:18:01.405565","","","","","","",""
12.0,0.04518043249845505,0.001843520793282278,"train",13140.0,"2021-11-20 13:18:05.033582","","","","","","",""
12.0,0.046892616897821426,0.0018455636191009464,"train",13160.0,"2021-11-20 13:18:08.707736","","","","","","",""
12.0,0.046580590307712555,0.001847594189678294,"train",13180.0,"2021-11-20 13:18:12.377152","","","","","","",""
12.0,0.03838102146983147,0.0018496124741227415,"train",13200.0,"2021-11-20 13:18:16.026143","","","","","","",""
12.0,0.062400225549936295,0.001851618441729622,"train",13220.0,"2021-11-20 13:18:20.407718","","","","","","",""
12.0,0.08068793267011642,0.0018536120619816467,"train",13240.0,"2021-11-20 13:18:23.991194","","","","","","",""
12.0,0.07801380753517151,0.0018555933045493712,"train",13260.0,"2021-11-20 13:18:27.657700","","","","","","",""
12.0,0.04731310158967972,0.0018575621392916554,"train",13280.0,"2021-11-20 13:18:31.333191","","","","","","",""
12.0,0.04563867300748825,0.0018595185362561225,"train",13300.0,"2021-11-20 13:18:35.025294","","","","","","",""
12.0,0.03975953534245491,0.0018614624656796155,"train",13320.0,"2021-11-20 13:18:39.207539","","","","","","",""
12.0,0.07632477581501007,0.0018633938979886484,"train",13340.0,"2021-11-20 13:18:42.759612","","","","","","",""
12.0,0.06082363426685333,0.0018653128037998568,"train",13360.0,"2021-11-20 13:18:46.446265","","","","","","",""
12.0,0.07274524122476578,0.0018672191539204459,"train",13380.0,"2021-11-20 13:18:50.128267","","","","","","",""
12.0,0.035981882363557816,0.0018691129193486335,"train",13400.0,"2021-11-20 13:18:54.414147","","","","","","",""
12.0,0.0401696115732193,0.0018709940712740908,"train",13420.0,"2021-11-20 13:18:58.080035","","","","","","",""
12.0,0.05078793689608574,0.0018728625810783823,"train",13440.0,"2021-11-20 13:19:01.744230","","","","","","",""
12.0,0.045720119029283524,0.0018747184203353996,"train",13460.0,"2021-11-20 13:19:05.462465","","","","","","",""
12.0,0.0570698156952858,0.0018765615608117947,"train",13480.0,"2021-11-20 13:19:09.142255","","","","","","",""
12.0,0.06027984991669655,0.0018783919744674096,"train",13500.0,"2021-11-20 13:19:13.286583","","","","","","",""
12.0,0.05058798938989639,0.0018802096334557027,"train",13520.0,"2021-11-20 13:19:17.103213","","","","","","",""
12.0,0.05563417822122574,0.0018820145101241712,"train",13540.0,"2021-11-20 13:19:20.948898","","","","","","",""
12.0,0.04507191479206085,0.0018838065770147745,"train",13560.0,"2021-11-20 13:19:24.798135","","","","","","",""
12.0,0.051082219928503036,0.0018855858068643496,"train",13580.0,"2021-11-20 13:19:28.704426","","","","","","",""
12.0,0.04390157014131546,0.001887352172605026,"train",13600.0,"2021-11-20 13:19:33.134738","","","","","","",""
12.0,0.03064589947462082,0.0018891056473646398,"train",13620.0,"2021-11-20 13:19:36.967949","","","","","","",""
12.0,0.0543220229446888,0.0018908462044671395,"train",13640.0,"2021-11-20 13:19:40.766986","","","","","","",""
12.0,0.07380212098360062,0.001892573817432993,"train",13660.0,"2021-11-20 13:19:44.485131","","","","","","",""
12.0,0.09398135542869568,0.0018942884599795914,"train",13680.0,"2021-11-20 13:19:48.240131","","","","","","",""
12.0,0.0741511881351471,0.001895990106021648,"train",13700.0,"2021-11-20 13:19:52.549643","","","","","","",""
12.0,0.07234185189008713,0.0018976787296715943,"train",13720.0,"2021-11-20 13:19:56.294608","","","","","","",""
12.0,0.04712219908833504,0.0018993543052399757,"train",13740.0,"2021-11-20 13:20:00.089360","","","","","","",""
12.0,0.044200457632541656,0.0019010168072358413,"train",13760.0,"2021-11-20 13:20:03.792198","","","","","","",""
12.0,0.053889960050582886,0.0019026662103671305,"train",13780.0,"2021-11-20 13:20:07.378897","","","","","","",""
12.0,0.032625723630189896,0.0019043024895410605,"train",13800.0,"2021-11-20 13:20:11.434560","","","","","","",""
12.0,0.03965312987565994,0.001905925619864506,"train",13820.0,"2021-11-20 13:20:15.072399","","","","","","",""
12.0,0.057468727231025696,0.001907535576644378,"train",13840.0,"2021-11-20 13:20:18.727605","","","","","","",""
12.0,0.05509496480226517,0.0019091323353880008,"train",13860.0,"2021-11-20 13:20:22.450923","","","","","","",""
12.0,0.04395095258951187,0.0019107158718034828,"train",13880.0,"2021-11-20 13:20:26.770570","","","","","","",""
12.0,0.06862372159957886,0.001912286161800088,"train",13900.0,"2021-11-20 13:20:30.427387","","","","","","",""
12.0,0.08079904317855835,0.0019138431814886008,"train",13920.0,"2021-11-20 13:20:34.063253","","","","","","",""
12.0,0.0614117756485939,0.0019153869071816896,"train",13940.0,"2021-11-20 13:20:37.690727","","","","","","",""
12.0,0.06515159457921982,0.0019169173153942693,"train",13960.0,"2021-11-20 13:20:41.279640","","","","","","",""
12.0,"","","train",13962.0,"2021-11-20 13:22:14.499874",0.6270683256930801,0.6541166593173533,0.9583699789347949,0.6502367906109461,0.5460667982101485,0.5668894094127789,0.37526514249387155
12.0,"","","val",13962.0,"2021-11-20 13:22:41.082533",0.594456685608257,0.5870343404438892,0.9453732349028926,0.6078726328549348,0.5004754330551764,0.5193354109162219,0.3284087690053323
13.0,0.07181794941425323,0.0019184343828438557,"train",13980.0,"2021-11-20 13:22:47.741480","","","","","","",""
13.0,0.054540637880563736,0.0019199380864509208,"train",14000.0,"2021-11-20 13:22:51.466464","","","","","","",""
13.0,0.052548300474882126,0.0019214284033392457,"train",14020.0,"2021-11-20 13:22:55.160711","","","","","","",""
13.0,0.043070144951343536,0.0019229053108362649,"train",14040.0,"2021-11-20 13:22:58.877879","","","","","","",""
13.0,0.04411628842353821,0.0019243687864734145,"train",14060.0,"2021-11-20 13:23:02.612122","","","","","","",""
13.0,0.05611095204949379,0.0019258188079864732,"train",14080.0,"2021-11-20 13:23:06.740555","","","","","","",""
13.0,0.05616353824734688,0.0019272553533158999,"train",14100.0,"2021-11-20 13:23:10.331555","","","","","","",""
13.0,0.047316864132881165,0.0019286784006071697,"train",14120.0,"2021-11-20 13:23:13.957012","","","","","","",""
13.0,0.039935942739248276,0.0019300879282111083,"train",14140.0,"2021-11-20 13:23:17.570568","","","","","","",""
13.0,0.051243577152490616,0.0019314839146842185,"train",14160.0,"2021-11-20 13:23:21.205265","","","","","","",""
13.0,0.04298153519630432,0.0019328663387890076,"train",14180.0,"2021-11-20 13:23:25.226230","","","","","","",""
13.0,0.050021786242723465,0.0019342351794943119,"train",14200.0,"2021-11-20 13:23:28.713352","","","","","","",""
13.0,0.05231742933392525,0.0019355904159756138,"train",14220.0,"2021-11-20 13:23:32.310918","","","","","","",""
13.0,0.055340226739645004,0.0019369320276153613,"train",14240.0,"2021-11-20 13:23:35.867674","","","","","","",""
13.0,0.060718584805727005,0.00193825999400328,"train",14260.0,"2021-11-20 13:23:39.459046","","","","","","",""
13.0,0.0909256711602211,0.0019395742949366843,"train",14280.0,"2021-11-20 13:23:43.628234","","","","","","",""
13.0,0.04531965032219887,0.0019408749104207845,"train",14300.0,"2021-11-20 13:23:47.337188","","","","","","",""
13.0,0.07051033526659012,0.0019421618206689913,"train",14320.0,"2021-11-20 13:23:50.883773","","","","","","",""
13.0,0.08225834369659424,0.0019434350061032163,"train",14340.0,"2021-11-20 13:23:54.475800","","","","","","",""
13.0,0.04793792590498924,0.0019446944473541703,"train",14360.0,"2021-11-20 13:23:58.645835","","","","","","",""
13.0,0.04598698392510414,0.0019459401252616573,"train",14380.0,"2021-11-20 13:24:02.285485","","","","","","",""
13.0,0.04199214279651642,0.001947172020874868,"train",14400.0,"2021-11-20 13:24:05.892180","","","","","","",""
13.0,0.04409557208418846,0.0019483901154526647,"train",14420.0,"2021-11-20 13:24:09.524579","","","","","","",""
13.0,0.04685206711292267,0.0019495943904638694,"train",14440.0,"2021-11-20 13:24:13.137061","","","","","","",""
13.0,0.06005134806036949,0.0019507848275875444,"train",14460.0,"2021-11-20 13:24:17.301924","","","","","","",""
13.0,0.04669768363237381,0.0019519614087132712,"train",14480.0,"2021-11-20 13:24:21.016925","","","","","","",""
13.0,0.06852249801158905,0.0019531241159414263,"train",14500.0,"2021-11-20 13:24:24.647690","","","","","","",""
13.0,0.045674849301576614,0.001954272931583453,"train",14520.0,"2021-11-20 13:24:28.190477","","","","","","",""
13.0,0.09137478470802307,0.0019554078381621306,"train",14540.0,"2021-11-20 13:24:31.783572","","","","","","",""
13.0,0.06488413363695145,0.0019565288184118417,"train",14560.0,"2021-11-20 13:24:35.995804","","","","","","",""
13.0,0.07717207819223404,0.0019576358552788314,"train",14580.0,"2021-11-20 13:24:39.673698","","","","","","",""
13.0,0.03340606018900871,0.0019587289319214713,"train",14600.0,"2021-11-20 13:24:43.367166","","","","","","",""
13.0,0.062079716473817825,0.0019598080317105113,"train",14620.0,"2021-11-20 13:24:47.130285","","","","","","",""
13.0,0.040870994329452515,0.001960873138229337,"train",14640.0,"2021-11-20 13:24:51.019562","","","","","","",""
13.0,0.049145109951496124,0.0019619242352742153,"train",14660.0,"2021-11-20 13:24:55.347016","","","","","","",""
13.0,0.03866981342434883,0.001962961306854543,"train",14680.0,"2021-11-20 13:24:59.124378","","","","","","",""
13.0,0.05973534286022186,0.0019639843371930905,"train",14700.0,"2021-11-20 13:25:02.806702","","","","","","",""
13.0,0.06309185177087784,0.001964993310726241,"train",14720.0,"2021-11-20 13:25:06.493529","","","","","","",""
13.0,0.07028824836015701,0.0019659882121042262,"train",14740.0,"2021-11-20 13:25:10.223461","","","","","","",""
13.0,0.05247367545962334,0.001966969026191363,"train",14760.0,"2021-11-20 13:25:14.497080","","","","","","",""
13.0,0.04730081558227539,0.0019679357380662805,"train",14780.0,"2021-11-20 13:25:18.185654","","","","","","",""
13.0,0.03650841489434242,0.001968888333022148,"train",14800.0,"2021-11-20 13:25:21.820293","","","","","","",""
13.0,0.043705493211746216,0.0019698267965669,"train",14820.0,"2021-11-20 13:25:25.425805","","","","","","",""
13.0,0.052033938467502594,0.0019707511144234557,"train",14840.0,"2021-11-20 13:25:29.605022","","","","","","",""
13.0,0.05639437586069107,0.001971661272529935,"train",14860.0,"2021-11-20 13:25:33.270833","","","","","","",""
13.0,0.03601458668708801,0.001972557257039875,"train",14880.0,"2021-11-20 13:25:36.912653","","","","","","",""
13.0,0.04398613050580025,0.0019734390543224385,"train",14900.0,"2021-11-20 13:25:40.597838","","","","","","",""
13.0,0.06776683032512665,0.001974306650962622,"train",14920.0,"2021-11-20 13:25:44.292885","","","","","","",""
13.0,0.04698694497346878,0.0019751600337614608,"train",14940.0,"2021-11-20 13:25:48.405378","","","","","","",""
13.0,0.04359129071235657,0.0019759991897362284,"train",14960.0,"2021-11-20 13:25:52.093589","","","","","","",""
13.0,0.045520052313804626,0.0019768241061206343,"train",14980.0,"2021-11-20 13:25:55.781120","","","","","","",""
13.0,0.07912863790988922,0.0019776347703650186,"train",15000.0,"2021-11-20 13:25:59.445113","","","","","","",""
13.0,0.04771515354514122,0.001978431170136543,"train",15020.0,"2021-11-20 13:26:03.192851","","","","","","",""
13.0,"","","train",15036.0,"2021-11-20 13:27:39.883964",0.6358291493851416,0.6616067850628828,0.9611307253376664,0.6496477803714967,0.547497956134695,0.5688632944582103,0.38182253643478065
13.0,"","","val",15036.0,"2021-11-20 13:28:06.229101",0.6011248985271948,0.5980651906481775,0.9486858431838395,0.6032946414744088,0.5014285667799968,0.518893035416656,0.3334574929812542
14.0,0.06954719871282578,0.0019792132933193784,"train",15040.0,"2021-11-20 13:28:09.741581","","","","","","",""
14.0,0.07680868357419968,0.001979981128014888,"train",15060.0,"2021-11-20 13:28:13.385744","","","","","","",""
14.0,0.06567177921533585,0.001980734662541811,"train",15080.0,"2021-11-20 13:28:16.974750","","","","","","",""
14.0,0.042715221643447876,0.0019814738854364374,"train",15100.0,"2021-11-20 13:28:20.496675","","","","","","",""
14.0,0.06256179511547089,0.0019821987854527832,"train",15120.0,"2021-11-20 13:28:24.009742","","","","","","",""
14.0,0.03520318865776062,0.0019829093515627634,"train",15140.0,"2021-11-20 13:28:28.122671","","","","","","",""
14.0,0.06238190084695816,0.001983605572956358,"train",15160.0,"2021-11-20 13:28:31.783954","","","","","","",""
14.0,0.06154166907072067,0.001984287439041775,"train",15180.0,"2021-11-20 13:28:35.462363","","","","","","",""
14.0,0.04131477698683739,0.001984954939445616,"train",15200.0,"2021-11-20 13:28:39.148707","","","","","","",""
14.0,0.04995138943195343,0.0019856080640130295,"train",15220.0,"2021-11-20 13:28:42.825068","","","","","","",""
14.0,0.04486386850476265,0.0019862468028078676,"train",15240.0,"2021-11-20 13:28:47.066732","","","","","","",""
14.0,0.04320996627211571,0.001986871146112837,"train",15260.0,"2021-11-20 13:28:50.642855","","","","","","",""
14.0,0.04881596565246582,0.0019874810844296466,"train",15280.0,"2021-11-20 13:28:54.175509","","","","","","",""
14.0,0.05089927837252617,0.0019880766084791517,"train",15300.0,"2021-11-20 13:28:57.824001","","","","","","",""
14.0,0.08605625480413437,0.0019886577092014953,"train",15320.0,"2021-11-20 13:29:01.999088","","","","","","",""
14.0,0.075555719435215,0.001989224377756247,"train",15340.0,"2021-11-20 13:29:05.608377","","","","","","",""
14.0,0.06855352967977524,0.0019897766055225353,"train",15360.0,"2021-11-20 13:29:09.240800","","","","","","",""
14.0,0.046464018523693085,0.0019903143840991813,"train",15380.0,"2021-11-20 13:29:12.873116","","","","","","",""
14.0,0.05092095211148262,0.0019908377053048246,"train",15400.0,"2021-11-20 13:29:16.459875","","","","","","",""
14.0,0.040063805878162384,0.001991346561178048,"train",15420.0,"2021-11-20 13:29:20.452722","","","","","","",""
14.0,0.05135636031627655,0.0019918409439775003,"train",15440.0,"2021-11-20 13:29:23.996660","","","","","","",""
14.0,0.030496779829263687,0.0019923208461820117,"train",15460.0,"2021-11-20 13:29:27.579570","","","","","","",""
14.0,0.08322633802890778,0.001992786260490709,"train",15480.0,"2021-11-20 13:29:31.219459","","","","","","",""
14.0,0.030156197026371956,0.0019932371798231287,"train",15500.0,"2021-11-20 13:29:34.787458","","","","","","",""
14.0,0.04085063189268112,0.0019936735973193212,"train",15520.0,"2021-11-20 13:29:38.917426","","","","","","",""
14.0,0.05706740915775299,0.001994095506339958,"train",15540.0,"2021-11-20 13:29:42.400968","","","","","","",""
14.0,0.04964229837059975,0.001994502900466431,"train",15560.0,"2021-11-20 13:29:45.878475","","","","","","",""
14.0,0.06148109212517738,0.0019948957735009517,"train",15580.0,"2021-11-20 13:29:49.403451","","","","","","",""
14.0,0.061405669897794724,0.0019952741194666436,"train",15600.0,"2021-11-20 13:29:52.964977","","","","","","",""
14.0,0.06322506070137024,0.0019956379326076354,"train",15620.0,"2021-11-20 13:29:57.069637","","","","","","",""
14.0,0.0693061575293541,0.001995987207389146,"train",15640.0,"2021-11-20 13:30:00.691027","","","","","","",""
14.0,0.04994510859251022,0.0019963219384975706,"train",15660.0,"2021-11-20 13:30:04.370094","","","","","","",""
14.0,0.03322948142886162,0.001996642120840561,"train",15680.0,"2021-11-20 13:30:07.934811","","","","","","",""
14.0,0.049184322357177734,0.001996947749547103,"train",15700.0,"2021-11-20 13:30:11.503622","","","","","","",""
14.0,0.03049321472644806,0.0019972388199675905,"train",15720.0,"2021-11-20 13:30:15.527143","","","","","","",""
14.0,0.050707168877124786,0.001997515327673896,"train",15740.0,"2021-11-20 13:30:19.021908","","","","","","",""
14.0,0.06705868244171143,0.0019977772684594388,"train",15760.0,"2021-11-20 13:30:22.512503","","","","","","",""
14.0,0.07138168811798096,0.0019980246383392475,"train",15780.0,"2021-11-20 13:30:26.135236","","","","","","",""
14.0,0.0452757328748703,0.0019982574335500225,"train",15800.0,"2021-11-20 13:30:30.332176","","","","","","",""
14.0,0.03604237362742424,0.001998475650550192,"train",15820.0,"2021-11-20 13:30:33.873437","","","","","","",""
14.0,0.037885475903749466,0.0019986792860199657,"train",15840.0,"2021-11-20 13:30:37.471679","","","","","","",""
14.0,0.03911266103386879,0.001998868336861386,"train",15860.0,"2021-11-20 13:30:41.130127","","","","","","",""
14.0,0.04199162870645523,0.001999042800198376,"train",15880.0,"2021-11-20 13:30:44.845794","","","","","","",""
14.0,0.04397812485694885,0.00199920267337678,"train",15900.0,"2021-11-20 13:30:49.058026","","","","","","",""
14.0,0.060033168643713,0.0019993479539644077,"train",15920.0,"2021-11-20 13:30:52.698298","","","","","","",""
14.0,0.06429257243871689,0.0019994786397510697,"train",15940.0,"2021-11-20 13:30:56.416878","","","","","","",""
14.0,0.04118790850043297,0.0019995947287486096,"train",15960.0,"2021-11-20 13:31:00.130721","","","","","","",""
14.0,0.06323768198490143,0.0019996962191909367,"train",15980.0,"2021-11-20 13:31:03.765903","","","","","","",""
14.0,0.07794090360403061,0.0019997831095340513,"train",16000.0,"2021-11-20 13:31:07.788593","","","","","","",""
14.0,0.07291188836097717,0.001999855398456069,"train",16020.0,"2021-11-20 13:31:11.484620","","","","","","",""
14.0,0.07041741907596588,0.00199991308485724,"train",16040.0,"2021-11-20 13:31:15.143520","","","","","","",""
14.0,0.06130857393145561,0.001999956167859967,"train",16060.0,"2021-11-20 13:31:18.807515","","","","","","",""
14.0,0.04545158892869949,0.0019999846468088172,"train",16080.0,"2021-11-20 13:31:22.502336","","","","","","",""
14.0,0.06588049978017807,0.0019999985212705335,"train",16100.0,"2021-11-20 13:31:26.714769","","","","","","",""
14.0,"","","train",16110.0,"2021-11-20 13:33:02.116614",0.6490577021028887,0.6757288458166203,0.9638455303296275,0.6726965552161299,0.5772054987087736,0.5969008218643508,0.4061777361788779
14.0,"","","val",16110.0,"2021-11-20 13:33:28.515258",0.613765510843094,0.6005374288216676,0.9502416181152553,0.6256873350599897,0.5248967959218871,0.542965039652979,0.34925954011006516
15.0,0.05839557573199272,0.0019999995774202316,"train",16120.0,"2021-11-20 13:33:33.123931","","","","","","",""
15.0,0.033955592662096024,0.0019999966438102564,"train",16140.0,"2021-11-20 13:33:36.735201","","","","","","",""
15.0,0.03814051300287247,0.0019999909162942875,"train",16160.0,"2021-11-20 13:33:40.402132","","","","","","",""
15.0,0.08609773218631744,0.001999982394888327,"train",16180.0,"2021-11-20 13:33:44.734252","","","","","","",""
15.0,0.06408751010894775,0.0019999710796161823,"train",16200.0,"2021-11-20 13:33:48.472196","","","","","","",""
15.0,0.04603367671370506,0.0019999569705094686,"train",16220.0,"2021-11-20 13:33:52.143753","","","","","","",""
15.0,0.05327272787690163,0.001999940067607605,"train",16240.0,"2021-11-20 13:33:55.842704","","","","","","",""
15.0,0.06899946182966232,0.001999920370957817,"train",16260.0,"2021-11-20 13:33:59.504103","","","","","","",""
15.0,0.06324683874845505,0.0019998978806151355,"train",16280.0,"2021-11-20 13:34:03.629480","","","","","","",""
15.0,0.05370146781206131,0.0019998725966423976,"train",16300.0,"2021-11-20 13:34:07.213363","","","","","","",""
15.0,0.06541803479194641,0.001999844519110244,"train",16320.0,"2021-11-20 13:34:10.844174","","","","","","",""
15.0,0.0356028750538826,0.001999813648097122,"train",16340.0,"2021-11-20 13:34:14.540071","","","","","","",""
15.0,0.03648541495203972,0.001999779983689282,"train",16360.0,"2021-11-20 13:34:18.277627","","","","","","",""
15.0,0.05717052146792412,0.0019997435259807806,"train",16380.0,"2021-11-20 13:34:22.475360","","","","","","",""
15.0,0.042021799832582474,0.001999704275073478,"train",16400.0,"2021-11-20 13:34:26.218961","","","","","","",""
15.0,0.05368944630026817,0.0019996622310770383,"train",16420.0,"2021-11-20 13:34:29.921450","","","","","","",""
15.0,0.046837449073791504,0.0019996173941089286,"train",16440.0,"2021-11-20 13:34:33.603799","","","","","","",""
15.0,0.0761571079492569,0.0019995697642944212,"train",16460.0,"2021-11-20 13:34:37.326069","","","","","","",""
15.0,0.0701933279633522,0.0019995193417665894,"train",16480.0,"2021-11-20 13:34:41.577935","","","","","","",""
15.0,0.041644878685474396,0.0019994661266663108,"train",16500.0,"2021-11-20 13:34:45.233708","","","","","","",""
15.0,0.08585185557603836,0.001999410119142264,"train",16520.0,"2021-11-20 13:34:48.805227","","","","","","",""
15.0,0.07438716292381287,0.0019993513193509297,"train",16540.0,"2021-11-20 13:34:52.369826","","","","","","",""
15.0,0.08338795602321625,0.0019992897274565906,"train",16560.0,"2021-11-20 13:34:55.883276","","","","","","",""
15.0,0.06627586483955383,0.0019992253436313303,"train",16580.0,"2021-11-20 13:35:00.035747","","","","","","",""
15.0,0.05177103728055954,0.0019991581680550313,"train",16600.0,"2021-11-20 13:35:03.718077","","","","","","",""
15.0,0.055297449231147766,0.0019990882009153785,"train",16620.0,"2021-11-20 13:35:07.344829","","","","","","",""
15.0,0.07484253495931625,0.001999015442407854,"train",16640.0,"2021-11-20 13:35:10.991589","","","","","","",""
15.0,0.04310876131057739,0.0019989398927357403,"train",16660.0,"2021-11-20 13:35:15.178400","","","","","","",""
15.0,0.03612564876675606,0.0019988615521101174,"train",16680.0,"2021-11-20 13:35:18.815416","","","","","","",""
15.0,0.07493174076080322,0.0019987804207498637,"train",16700.0,"2021-11-20 13:35:22.449659","","","","","","",""
15.0,0.04537240415811539,0.0019986964988816533,"train",16720.0,"2021-11-20 13:35:26.143369","","","","","","",""
15.0,0.04116067290306091,0.0019986097867399585,"train",16740.0,"2021-11-20 13:35:29.829538","","","","","","",""
15.0,0.057491157203912735,0.0019985202845670463,"train",16760.0,"2021-11-20 13:35:33.745273","","","","","","",""
15.0,0.05034579709172249,0.0019984279926129798,"train",16780.0,"2021-11-20 13:35:37.292757","","","","","","",""
15.0,0.050318390130996704,0.001998332911135615,"train",16800.0,"2021-11-20 13:35:40.934839","","","","","","",""
15.0,0.048460301011800766,0.0019982350404006036,"train",16820.0,"2021-11-20 13:35:44.548306","","","","","","",""
15.0,0.07806942611932755,0.0019981343806813883,"train",16840.0,"2021-11-20 13:35:48.394963","","","","","","",""
15.0,0.03320552036166191,0.001998030932259205,"train",16860.0,"2021-11-20 13:35:52.759452","","","","","","",""
15.0,0.043484508991241455,0.0019979246954230823,"train",16880.0,"2021-11-20 13:35:56.488758","","","","","","",""
15.0,0.051067087799310684,0.0019978156704698363,"train",16900.0,"2021-11-20 13:36:00.202674","","","","","","",""
15.0,0.044804878532886505,0.001997703857704076,"train",16920.0,"2021-11-20 13:36:03.844313","","","","","","",""
15.0,0.06009504199028015,0.0019975892574381976,"train",16940.0,"2021-11-20 13:36:07.471289","","","","","","",""
15.0,0.05213148146867752,0.001997471869992386,"train",16960.0,"2021-11-20 13:36:11.686432","","","","","","",""
15.0,0.05373314023017883,0.0019973516956946127,"train",16980.0,"2021-11-20 13:36:15.358043","","","","","","",""
15.0,0.0696219876408577,0.0019972287348806366,"train",17000.0,"2021-11-20 13:36:18.996248","","","","","","",""
15.0,0.06931453198194504,0.0019971029878940003,"train",17020.0,"2021-11-20 13:36:22.626104","","","","","","",""
15.0,0.035941120237112045,0.0019969744550860317,"train",17040.0,"2021-11-20 13:36:26.329718","","","","","","",""
15.0,0.03317878022789955,0.0019968431368158433,"train",17060.0,"2021-11-20 13:36:30.601116","","","","","","",""
15.0,0.046219874173402786,0.001996709033450327,"train",17080.0,"2021-11-20 13:36:34.193159","","","","","","",""
15.0,0.04473864287137985,0.0019965721453641585,"train",17100.0,"2021-11-20 13:36:37.826656","","","","","","",""
15.0,0.043044645339250565,0.0019964324729397935,"train",17120.0,"2021-11-20 13:36:41.458063","","","","","","",""
15.0,0.04023713991045952,0.0019962900165674657,"train",17140.0,"2021-11-20 13:36:45.506665","","","","","","",""
15.0,0.04069323465228081,0.0019961447766451887,"train",17160.0,"2021-11-20 13:36:49.112199","","","","","","",""
15.0,0.06189345195889473,0.001995996753578751,"train",17180.0,"2021-11-20 13:36:52.726011","","","","","","",""
15.0,"","","train",17184.0,"2021-11-20 13:38:26.751966",0.6611074728952921,0.6941119143321222,0.968229611219363,0.7044920939046647,0.5932635446125687,0.6170330661179192,0.42113381718564447
15.0,"","","val",17184.0,"2021-11-20 13:38:52.189436",0.6189841122579148,0.6117296964648898,0.953737987785937,0.6506090522461089,0.5369661913350708,0.5578501496264432,0.3596341760685806
16.0,0.03236401081085205,0.001995845947781719,"train",17200.0,"2021-11-20 13:38:57.887593","","","","","","",""
16.0,0.0499807670712471,0.001995692359675433,"train",17220.0,"2021-11-20 13:39:01.413368","","","","","","",""
16.0,0.08257783949375153,0.0019955359896890066,"train",17240.0,"2021-11-20 13:39:05.563170","","","","","","",""
16.0,0.05064263939857483,0.0019953768382593258,"train",17260.0,"2021-11-20 13:39:09.107176","","","","","","",""
16.0,0.058929119259119034,0.0019952149058310486,"train",17280.0,"2021-11-20 13:39:12.664193","","","","","","",""
16.0,0.05073133111000061,0.001995050192856602,"train",17300.0,"2021-11-20 13:39:16.223426","","","","","","",""
16.0,0.04446594417095184,0.001994882699796182,"train",17320.0,"2021-11-20 13:39:19.863281","","","","","","",""
16.0,0.04007836803793907,0.001994712427117752,"train",17340.0,"2021-11-20 13:39:24.094727","","","","","","",""
16.0,0.03367108479142189,0.0019945393752970413,"train",17360.0,"2021-11-20 13:39:27.831221","","","","","","",""
16.0,0.07406625151634216,0.001994363544817544,"train",17380.0,"2021-11-20 13:39:31.605374","","","","","","",""
16.0,0.044604286551475525,0.001994184936170517,"train",17400.0,"2021-11-20 13:39:35.255010","","","","","","",""
16.0,0.03704552724957466,0.0019940035498549804,"train",17420.0,"2021-11-20 13:39:38.938726","","","","","","",""
16.0,0.030728789046406746,0.0019938193863777145,"train",17440.0,"2021-11-20 13:39:43.060756","","","","","","",""
16.0,0.04040157422423363,0.001993632446253258,"train",17460.0,"2021-11-20 13:39:46.675040","","","","","","",""
16.0,0.044363297522068024,0.0019934427300039074,"train",17480.0,"2021-11-20 13:39:50.293583","","","","","","",""
16.0,0.05111182481050491,0.001993250238159717,"train",17500.0,"2021-11-20 13:39:53.951792","","","","","","",""
16.0,0.05838853865861893,0.0019930549712584944,"train",17520.0,"2021-11-20 13:39:57.643518","","","","","","",""
16.0,0.039504505693912506,0.001992856929845801,"train",17540.0,"2021-11-20 13:40:01.876623","","","","","","",""
16.0,0.06232300400733948,0.0019926561144749497,"train",17560.0,"2021-11-20 13:40:05.614725","","","","","","",""
16.0,0.03488905727863312,0.001992452525707004,"train",17580.0,"2021-11-20 13:40:09.344130","","","","","","",""
16.0,0.057628825306892395,0.0019922461641107767,"train",17600.0,"2021-11-20 13:40:13.098934","","","","","","",""
16.0,0.034318119287490845,0.001992037030262826,"train",17620.0,"2021-11-20 13:40:17.224939","","","","","","",""
16.0,0.03605018928647041,0.0019918251247474567,"train",17640.0,"2021-11-20 13:40:20.942605","","","","","","",""
16.0,0.07387997210025787,0.001991610448156718,"train",17660.0,"2021-11-20 13:40:24.625193","","","","","","",""
16.0,0.06800485402345657,0.0019913930010903996,"train",17680.0,"2021-11-20 13:40:28.392397","","","","","","",""
16.0,0.055702611804008484,0.001991172784156033,"train",17700.0,"2021-11-20 13:40:32.098856","","","","","","",""
16.0,0.049386635422706604,0.0019909497979688877,"train",17720.0,"2021-11-20 13:40:36.426685","","","","","","",""
16.0,0.043064460158348083,0.0019907240431519713,"train",17740.0,"2021-11-20 13:40:40.193045","","","","","","",""
16.0,0.03588810935616493,0.001990495520336026,"train",17760.0,"2021-11-20 13:40:43.879958","","","","","","",""
16.0,0.0466882586479187,0.0019902642301595284,"train",17780.0,"2021-11-20 13:40:47.608889","","","","","","",""
16.0,0.041683923453092575,0.001990030173268685,"train",17800.0,"2021-11-20 13:40:51.311405","","","","","","",""
16.0,0.036414992064237595,0.0019897933503174345,"train",17820.0,"2021-11-20 13:40:55.430549","","","","","","",""
16.0,0.04502025991678238,0.0019895537619674425,"train",17840.0,"2021-11-20 13:40:58.930448","","","","","","",""
16.0,0.07123976945877075,0.001989311408888101,"train",17860.0,"2021-11-20 13:41:02.530521","","","","","","",""
16.0,0.06288496404886246,0.001989066291756527,"train",17880.0,"2021-11-20 13:41:06.107373","","","","","","",""
16.0,0.04536210000514984,0.00198881841125756,"train",17900.0,"2021-11-20 13:41:09.597113","","","","","","",""
16.0,0.03944315016269684,0.0019885677680837595,"train",17920.0,"2021-11-20 13:41:13.582991","","","","","","",""
16.0,0.03656722232699394,0.001988314362935404,"train",17940.0,"2021-11-20 13:41:17.206317","","","","","","",""
16.0,0.05396797135472298,0.0019880581965204896,"train",17960.0,"2021-11-20 13:41:20.791925","","","","","","",""
16.0,0.03727477043867111,0.0019877992695547255,"train",17980.0,"2021-11-20 13:41:24.325788","","","","","","",""
16.0,0.07264043390750885,0.0019875375827615354,"train",18000.0,"2021-11-20 13:41:27.921828","","","","","","",""
16.0,0.04453536868095398,0.0019872731368720527,"train",18020.0,"2021-11-20 13:41:32.074678","","","","","","",""
16.0,0.03696919605135918,0.00198700593262512,"train",18040.0,"2021-11-20 13:41:35.683068","","","","","","",""
16.0,0.05196588486433029,0.001986735970767286,"train",18060.0,"2021-11-20 13:41:39.338309","","","","","","",""
16.0,0.07765134423971176,0.001986463252052804,"train",18080.0,"2021-11-20 13:41:43.031448","","","","","","",""
16.0,0.044540442526340485,0.0019861877772436305,"train",18100.0,"2021-11-20 13:41:47.294399","","","","","","",""
16.0,0.06438607722520828,0.001985909547109422,"train",18120.0,"2021-11-20 13:41:50.989569","","","","","","",""
16.0,0.04199124127626419,0.001985628562427533,"train",18140.0,"2021-11-20 13:41:54.718930","","","","","","",""
16.0,0.05362711846828461,0.001985344823983014,"train",18160.0,"2021-11-20 13:41:58.442007","","","","","","",""
16.0,0.04461587592959404,0.001985058332568609,"train",18180.0,"2021-11-20 13:42:02.094641","","","","","","",""
16.0,0.052296802401542664,0.001984769088984755,"train",18200.0,"2021-11-20 13:42:06.091486","","","","","","",""
16.0,0.0730668380856514,0.001984477094039576,"train",18220.0,"2021-11-20 13:42:09.736987","","","","","","",""
16.0,0.048492431640625,0.001984182348548885,"train",18240.0,"2021-11-20 13:42:13.380590","","","","","","",""
16.0,"","","train",18258.0,"2021-11-20 13:43:49.124413",0.6637851997380485,0.7020965310323402,0.9682786206218243,0.6948606725937687,0.5727923855439001,0.6000676781703214,0.4120117501124595
16.0,"","","val",18258.0,"2021-11-20 13:44:15.695841",0.6178244230546214,0.612438623613168,0.9502778364354613,0.6396731993103498,0.5124060601150597,0.534397506247686,0.3469161535353191
17.0,0.04369122534990311,0.00198388485333618,"train",18260.0,"2021-11-20 13:44:18.842489","","","","","","",""
17.0,0.038447342813014984,0.0019835846092326396,"train",18280.0,"2021-11-20 13:44:22.732107","","","","","","",""
17.0,0.063462033867836,0.0019832816170771246,"train",18300.0,"2021-11-20 13:44:27.141111","","","","","","",""
17.0,0.05458999052643776,0.001982975877716172,"train",18320.0,"2021-11-20 13:44:30.977396","","","","","","",""
17.0,0.043260641396045685,0.0019826673920039957,"train",18340.0,"2021-11-20 13:44:34.861471","","","","","","",""
17.0,0.0498259998857975,0.0019823561608024822,"train",18360.0,"2021-11-20 13:44:38.759377","","","","","","",""
17.0,0.06338238716125488,0.0019820421849811886,"train",18380.0,"2021-11-20 13:44:42.523662","","","","","","",""
17.0,0.03315120190382004,0.0019817254654173402,"train",18400.0,"2021-11-20 13:44:46.701939","","","","","","",""
17.0,0.04642018675804138,0.0019814060029958278,"train",18420.0,"2021-11-20 13:44:50.346316","","","","","","",""
17.0,0.0514947734773159,0.001981083798609206,"train",18440.0,"2021-11-20 13:44:54.077393","","","","","","",""
17.0,0.03281053900718689,0.0019807588531576908,"train",18460.0,"2021-11-20 13:44:57.794797","","","","","","",""
17.0,0.03926689922809601,0.0019804311675491555,"train",18480.0,"2021-11-20 13:45:01.399839","","","","","","",""
17.0,0.0760163739323616,0.00198010074269913,"train",18500.0,"2021-11-20 13:45:05.538570","","","","","","",""
17.0,0.034793730825185776,0.0019797675795307965,"train",18520.0,"2021-11-20 13:45:09.097950","","","","","","",""
17.0,0.027664296329021454,0.0019794316789749885,"train",18540.0,"2021-11-20 13:45:12.708608","","","","","","",""
17.0,0.06690210849046707,0.0019790930419701877,"train",18560.0,"2021-11-20 13:45:16.287446","","","","","","",""
17.0,0.08147485554218292,0.0019787516694625214,"train",18580.0,"2021-11-20 13:45:20.321128","","","","","","",""
17.0,0.049397241324186325,0.0019784075624057584,"train",18600.0,"2021-11-20 13:45:23.909021","","","","","","",""
17.0,0.040904451161623,0.0019780607217613094,"train",18620.0,"2021-11-20 13:45:27.517618","","","","","","",""
17.0,0.04224221780896187,0.001977711148498221,"train",18640.0,"2021-11-20 13:45:31.080300","","","","","","",""
17.0,0.05048837140202522,0.0019773588435931756,"train",18660.0,"2021-11-20 13:45:34.689682","","","","","","",""
17.0,0.0416090302169323,0.0019770038080304873,"train",18680.0,"2021-11-20 13:45:38.833134","","","","","","",""
17.0,0.05472779646515846,0.001976646042802099,"train",18700.0,"2021-11-20 13:45:42.464397","","","","","","",""
17.0,0.04511939734220505,0.0019762855489075808,"train",18720.0,"2021-11-20 13:45:46.028849","","","","","","",""
17.0,0.0637386292219162,0.001975922327354126,"train",18740.0,"2021-11-20 13:45:49.589518","","","","","","",""
17.0,0.03569810464978218,0.001975556379156549,"train",18760.0,"2021-11-20 13:45:53.168766","","","","","","",""
17.0,0.02826121263206005,0.0019751877053372823,"train",18780.0,"2021-11-20 13:45:57.284611","","","","","","",""
17.0,0.0677366629242897,0.001974816306926373,"train",18800.0,"2021-11-20 13:46:00.960232","","","","","","",""
17.0,0.05960153788328171,0.001974442184961482,"train",18820.0,"2021-11-20 13:46:04.619843","","","","","","",""
17.0,0.04042259231209755,0.0019740653404878776,"train",18840.0,"2021-11-20 13:46:08.315751","","","","","","",""
17.0,0.045871805399656296,0.0019736857745584362,"train",18860.0,"2021-11-20 13:46:11.992297","","","","","","",""
17.0,0.06401870399713516,0.0019733034882336367,"train",18880.0,"2021-11-20 13:46:16.154458","","","","","","",""
17.0,0.0364585779607296,0.0019729184825815586,"train",18900.0,"2021-11-20 13:46:19.843521","","","","","","",""
17.0,0.03765498474240303,0.0019725307586778806,"train",18920.0,"2021-11-20 13:46:23.518866","","","","","","",""
17.0,0.034778524190187454,0.001972140317605874,"train",18940.0,"2021-11-20 13:46:27.229128","","","","","","",""
17.0,0.0440923348069191,0.0019717471604564028,"train",18960.0,"2021-11-20 13:46:30.961365","","","","","","",""
17.0,0.04621963948011398,0.0019713512883279185,"train",18980.0,"2021-11-20 13:46:35.223075","","","","","","",""
17.0,0.06925322860479355,0.00197095270232646,"train",19000.0,"2021-11-20 13:46:38.908870","","","","","","",""
17.0,0.04382363706827164,0.001970551403565646,"train",19020.0,"2021-11-20 13:46:42.638949","","","","","","",""
17.0,0.039505913853645325,0.0019701473931666765,"train",19040.0,"2021-11-20 13:46:46.352552","","","","","","",""
17.0,0.03464405983686447,0.001969740672258327,"train",19060.0,"2021-11-20 13:46:50.580798","","","","","","",""
17.0,0.05245679244399071,0.0019693312419769454,"train",19080.0,"2021-11-20 13:46:54.270176","","","","","","",""
17.0,0.06741620600223541,0.0019689191034664498,"train",19100.0,"2021-11-20 13:46:57.948966","","","","","","",""
17.0,0.04376883804798126,0.0019685042578783257,"train",19120.0,"2021-11-20 13:47:01.684304","","","","","","",""
17.0,0.03737437725067139,0.00196808670637162,"train",19140.0,"2021-11-20 13:47:05.348158","","","","","","",""
17.0,0.05152800679206848,0.001967666450112942,"train",19160.0,"2021-11-20 13:47:09.452871","","","","","","",""
17.0,0.07002073526382446,0.001967243490276456,"train",19180.0,"2021-11-20 13:47:13.149213","","","","","","",""
17.0,0.06895557045936584,0.0019668178280438818,"train",19200.0,"2021-11-20 13:47:16.834166","","","","","","",""
17.0,0.04067971929907799,0.0019663894646044875,"train",19220.0,"2021-11-20 13:47:20.475913","","","","","","",""
17.0,0.06391619145870209,0.001965958401155089,"train",19240.0,"2021-11-20 13:47:24.211120","","","","","","",""
17.0,0.036881931126117706,0.0019655246389000463,"train",19260.0,"2021-11-20 13:47:28.476027","","","","","","",""
17.0,0.04451852664351463,0.0019650881790512597,"train",19280.0,"2021-11-20 13:47:32.256636","","","","","","",""
17.0,0.04518338665366173,0.001964649022828165,"train",19300.0,"2021-11-20 13:47:35.968653","","","","","","",""
17.0,0.0344882495701313,0.0019642071714577325,"train",19320.0,"2021-11-20 13:47:39.662948","","","","","","",""
17.0,"","","train",19332.0,"2021-11-20 13:49:19.883106",0.6621407261878774,0.7118051861398255,0.9683681915988789,0.6999263405739518,0.5836807671146242,0.622881659523104,0.42007201124640364
17.0,"","","val",19332.0,"2021-11-20 13:49:45.233043",0.6131276817812826,0.620188666446505,0.9514574766829555,0.6417087047352961,0.5194732012234016,0.5492896119181788,0.3512898582584628
18.0,0.06116544455289841,0.0019637626261744634,"train",19340.0,"2021-11-20 13:49:49.510877","","","","","","",""
18.0,0.04161208122968674,0.001963315388220384,"train",19360.0,"2021-11-20 13:49:53.759165","","","","","","",""
18.0,0.06128111481666565,0.0019628654588450443,"train",19380.0,"2021-11-20 13:49:57.513928","","","","","","",""
18.0,0.06698983907699585,0.001962412839305514,"train",19400.0,"2021-11-20 13:50:01.264460","","","","","","",""
18.0,0.03444183990359306,0.0019619575308663785,"train",19420.0,"2021-11-20 13:50:05.030329","","","","","","",""
18.0,0.0371476374566555,0.001961499534799737,"train",19440.0,"2021-11-20 13:50:08.781787","","","","","","",""
18.0,0.03114434890449047,0.001961038852385196,"train",19460.0,"2021-11-20 13:50:13.098399","","","","","","",""
18.0,0.046375904232263565,0.0019605754849098683,"train",19480.0,"2021-11-20 13:50:16.813763","","","","","","",""
18.0,0.07701647281646729,0.0019601094336683693,"train",19500.0,"2021-11-20 13:50:20.501658","","","","","","",""
18.0,0.030348511412739754,0.0019596406999628116,"train",19520.0,"2021-11-20 13:50:24.192104","","","","","","",""
18.0,0.06556092947721481,0.0019591692851028022,"train",19540.0,"2021-11-20 13:50:28.372212","","","","","","",""
18.0,0.07080748677253723,0.001958695190405441,"train",19560.0,"2021-11-20 13:50:32.000020","","","","","","",""
18.0,0.034493736922740936,0.001958218417195312,"train",19580.0,"2021-11-20 13:50:35.697962","","","","","","",""
18.0,0.036616209894418716,0.001957738966804486,"train",19600.0,"2021-11-20 13:50:39.408602","","","","","","",""
18.0,0.04883699491620064,0.001957256840572511,"train",19620.0,"2021-11-20 13:50:43.136490","","","","","","",""
18.0,0.07407015562057495,0.0019567720398464133,"train",19640.0,"2021-11-20 13:50:47.380203","","","","","","",""
18.0,0.03194113448262215,0.00195628456598069,"train",19660.0,"2021-11-20 13:50:51.043602","","","","","","",""
18.0,0.043060094118118286,0.001955794420337307,"train",19680.0,"2021-11-20 13:50:54.761881","","","","","","",""
18.0,0.03013639897108078,0.0019553016042856957,"train",19700.0,"2021-11-20 13:50:58.410904","","","","","","",""
18.0,0.06161486357450485,0.001954806119202748,"train",19720.0,"2021-11-20 13:51:02.099108","","","","","","",""
18.0,0.03313501179218292,0.001954307966472812,"train",19740.0,"2021-11-20 13:51:06.305273","","","","","","",""
18.0,0.0656343474984169,0.0019538071474876914,"train",19760.0,"2021-11-20 13:51:10.028645","","","","","","",""
18.0,0.03358013555407524,0.001953303663646636,"train",19780.0,"2021-11-20 13:51:13.680952","","","","","","",""
18.0,0.04117525741457939,0.0019527975163563436,"train",19800.0,"2021-11-20 13:51:17.364295","","","","","","",""
18.0,0.032066889107227325,0.0019522887070309524,"train",19820.0,"2021-11-20 13:51:21.109658","","","","","","",""
18.0,0.06280442327260971,0.0019517772370920379,"train",19840.0,"2021-11-20 13:51:25.404612","","","","","","",""
18.0,0.05417307838797569,0.0019512631079686104,"train",19860.0,"2021-11-20 13:51:29.157177","","","","","","",""
18.0,0.030628470703959465,0.001950746321097108,"train",19880.0,"2021-11-20 13:51:32.839849","","","","","","",""
18.0,0.04498942568898201,0.0019502268779213957,"train",19900.0,"2021-11-20 13:51:36.523524","","","","","","",""
18.0,0.07112634181976318,0.0019497047798927598,"train",19920.0,"2021-11-20 13:51:40.178929","","","","","","",""
18.0,0.040909282863140106,0.001949180028469903,"train",19940.0,"2021-11-20 13:51:44.266246","","","","","","",""
18.0,0.045837316662073135,0.0019486526251189435,"train",19960.0,"2021-11-20 13:51:47.995101","","","","","","",""
18.0,0.053977061063051224,0.0019481225713134064,"train",19980.0,"2021-11-20 13:51:51.659361","","","","","","",""
18.0,0.04907272756099701,0.0019475898685342235,"train",20000.0,"2021-11-20 13:51:55.292360","","","","","","",""
18.0,0.045372992753982544,0.0019470545182697272,"train",20020.0,"2021-11-20 13:51:59.500327","","","","","","",""
18.0,0.05359555408358574,0.001946516522015647,"train",20040.0,"2021-11-20 13:52:03.183182","","","","","","",""
18.0,0.05400601029396057,0.0019459758812751047,"train",20060.0,"2021-11-20 13:52:06.791871","","","","","","",""
18.0,0.03595107048749924,0.0019454325975586106,"train",20080.0,"2021-11-20 13:52:10.421317","","","","","","",""
18.0,0.0517500564455986,0.0019448866723840602,"train",20100.0,"2021-11-20 13:52:14.043209","","","","","","",""
18.0,0.05562705919146538,0.001944338107276728,"train",20120.0,"2021-11-20 13:52:18.226048","","","","","","",""
18.0,0.052304890006780624,0.0019437869037692644,"train",20140.0,"2021-11-20 13:52:21.931794","","","","","","",""
18.0,0.041762903332710266,0.0019432330634016912,"train",20160.0,"2021-11-20 13:52:25.584453","","","","","","",""
18.0,0.03630515933036804,0.0019426765877213986,"train",20180.0,"2021-11-20 13:52:29.234715","","","","","","",""
18.0,0.037366874516010284,0.0019421174782831383,"train",20200.0,"2021-11-20 13:52:32.837409","","","","","","",""
18.0,0.06060585752129555,0.0019415557366490208,"train",20220.0,"2021-11-20 13:52:36.934911","","","","","","",""
