"epoch","loss","lr","part","step","time","accuracy","auprc","auroc","challenge_metric","f_beta_measure","f_measure","g_beta_measure"
0.0,0.46973204612731934,8.000659038103321e-05,"train",20.0,"2021-11-20 17:00:06.128089","","","","","","",""
0.0,0.28722071647644043,8.002776712658739e-05,"train",40.0,"2021-11-20 17:00:09.280845","","","","","","",""
0.0,0.14343471825122833,8.006354817041922e-05,"train",60.0,"2021-11-20 17:00:12.437125","","","","","","",""
0.0,0.12571056187152863,8.011393296818311e-05,"train",80.0,"2021-11-20 17:00:15.589077","","","","","","",""
0.0,0.14554846286773682,8.017892075336199e-05,"train",100.0,"2021-11-20 17:00:18.743028","","","","","","",""
0.0,0.124763123691082,8.025851053728079e-05,"train",120.0,"2021-11-20 17:00:22.384917","","","","","","",""
0.0,0.1295051872730255,8.035270110911988e-05,"train",140.0,"2021-11-20 17:00:25.566133","","","","","","",""
0.0,0.11774946004152298,8.046149103593456e-05,"train",160.0,"2021-11-20 17:00:28.736838","","","","","","",""
0.0,0.13728348910808563,8.058487866267655e-05,"train",180.0,"2021-11-20 17:00:31.884329","","","","","","",""
0.0,0.1339970827102661,8.072286211221872e-05,"train",200.0,"2021-11-20 17:00:35.008319","","","","","","",""
0.0,0.12272457778453827,8.087543928538454e-05,"train",220.0,"2021-11-20 17:00:38.138721","","","","","","",""
0.0,0.1314697116613388,8.10426078609787e-05,"train",240.0,"2021-11-20 17:00:41.830670","","","","","","",""
0.0,0.12580963969230652,8.122436529582437e-05,"train",260.0,"2021-11-20 17:00:44.949102","","","","","","",""
0.0,0.12240533530712128,8.142070882479987e-05,"train",280.0,"2021-11-20 17:00:48.086850","","","","","","",""
0.0,0.1157587543129921,8.163163546088159e-05,"train",300.0,"2021-11-20 17:00:51.301790","","","","","","",""
0.0,0.10246468335390091,8.18571419951902e-05,"train",320.0,"2021-11-20 17:00:54.475541","","","","","","",""
0.0,0.11437806487083435,8.209722499703787e-05,"train",340.0,"2021-11-20 17:00:57.615932","","","","","","",""
0.0,0.14370547235012054,8.235188081398169e-05,"train",360.0,"2021-11-20 17:01:01.265154","","","","","","",""
0.0,0.125848650932312,8.262110557187932e-05,"train",380.0,"2021-11-20 17:01:04.445189","","","","","","",""
0.0,0.1207086369395256,8.290489517494694e-05,"train",400.0,"2021-11-20 17:01:07.538343","","","","","","",""
0.0,0.11823862791061401,8.320324530582146e-05,"train",420.0,"2021-11-20 17:01:10.607707","","","","","","",""
0.0,0.11256983876228333,8.351615142562817e-05,"train",440.0,"2021-11-20 17:01:13.707081","","","","","","",""
0.0,0.11748602241277695,8.384360877404756e-05,"train",460.0,"2021-11-20 17:01:16.919091","","","","","","",""
0.0,0.11234584450721741,8.418561236938921e-05,"train",480.0,"2021-11-20 17:01:20.624791","","","","","","",""
0.0,0.111626997590065,8.454215700866644e-05,"train",500.0,"2021-11-20 17:01:23.738164","","","","","","",""
0.0,0.11683709919452667,8.491323726767604e-05,"train",520.0,"2021-11-20 17:01:26.871383","","","","","","",""
0.0,0.12277238816022873,8.529884750108118e-05,"train",540.0,"2021-11-20 17:01:29.994833","","","","","","",""
0.0,0.10830222070217133,8.569898184249678e-05,"train",560.0,"2021-11-20 17:01:33.125360","","","","","","",""
0.0,0.1219632551074028,8.611363420457869e-05,"train",580.0,"2021-11-20 17:01:36.264410","","","","","","",""
0.0,0.1039467453956604,8.654279827911685e-05,"train",600.0,"2021-11-20 17:01:39.892767","","","","","","",""
0.0,0.11219335347414017,8.698646753713016e-05,"train",620.0,"2021-11-20 17:01:42.995823","","","","","","",""
0.0,0.09916462004184723,8.744463522896697e-05,"train",640.0,"2021-11-20 17:01:46.112819","","","","","","",""
0.0,0.1105021983385086,8.791729438440733e-05,"train",660.0,"2021-11-20 17:01:49.271253","","","","","","",""
0.0,0.102918341755867,8.840443781276937e-05,"train",680.0,"2021-11-20 17:01:52.481977","","","","","","",""
0.0,0.09198359400033951,8.890605810301755e-05,"train",700.0,"2021-11-20 17:01:55.721704","","","","","","",""
0.0,0.08298724889755249,8.942214762387691e-05,"train",720.0,"2021-11-20 17:01:59.476358","","","","","","",""
0.0,0.09749887883663177,8.995269852394802e-05,"train",740.0,"2021-11-20 17:02:02.639341","","","","","","",""
0.0,0.10127009451389313,9.049770273182709e-05,"train",760.0,"2021-11-20 17:02:05.782516","","","","","","",""
0.0,0.10348771512508392,9.105715195622806e-05,"train",780.0,"2021-11-20 17:02:08.946535","","","","","","",""
0.0,0.09369969367980957,9.16310376861101e-05,"train",800.0,"2021-11-20 17:02:12.128518","","","","","","",""
0.0,0.10841917246580124,9.221935119080576e-05,"train",820.0,"2021-11-20 17:02:15.791171","","","","","","",""
0.0,0.09015928208827972,9.282208352015368e-05,"train",840.0,"2021-11-20 17:02:19.005293","","","","","","",""
0.0,0.0974368080496788,9.343922550463608e-05,"train",860.0,"2021-11-20 17:02:22.164819","","","","","","",""
0.0,0.08929767459630966,9.40707677555175e-05,"train",880.0,"2021-11-20 17:02:25.215487","","","","","","",""
0.0,0.09046056866645813,9.471670066498687e-05,"train",900.0,"2021-11-20 17:02:28.296482","","","","","","",""
0.0,0.07693584263324738,9.537701440630493e-05,"train",920.0,"2021-11-20 17:02:31.428279","","","","","","",""
0.0,0.08445976674556732,9.605169893395367e-05,"train",940.0,"2021-11-20 17:02:35.077468","","","","","","",""
0.0,0.10041741281747818,9.674074398378766e-05,"train",960.0,"2021-11-20 17:02:38.229556","","","","","","",""
0.0,0.10148949176073074,9.744413907319168e-05,"train",980.0,"2021-11-20 17:02:41.452858","","","","","","",""
0.0,0.09807601571083069,9.816187350124078e-05,"train",1000.0,"2021-11-20 17:02:44.707055","","","","","","",""
0.0,0.09429112076759338,9.889393634885985e-05,"train",1020.0,"2021-11-20 17:02:47.900627","","","","","","",""
0.0,0.10970088839530945,9.964031647899407e-05,"train",1040.0,"2021-11-20 17:02:51.101961","","","","","","",""
0.0,0.09700478613376617,0.00010040100253677544,"train",1060.0,"2021-11-20 17:02:54.803146","","","","","","",""
0.0,"","","train",1075.0,"2021-11-20 17:04:32.462887",0.4111038346794732,0.22510497260732681,0.7935079944534468,0.30945663779886085,0.15118953481694383,0.1457459461034323,0.09946302978486896
0.0,"","","val",1075.0,"2021-11-20 17:04:57.909010",0.40664501913487183,0.22112281652014226,0.7931845918798957,0.3040730952983303,0.14912991884607948,0.1437970114854205,0.0968997789276444
1.0,0.08550544083118439,0.00010117598294969604,"train",1080.0,"2021-11-20 17:05:01.408474","","","","","","",""
1.0,0.08227236568927765,0.00010196524592778408,"train",1100.0,"2021-11-20 17:05:04.631873","","","","","","",""
1.0,0.10845590382814407,0.00010276877946378479,"train",1120.0,"2021-11-20 17:05:07.814151","","","","","","",""
1.0,0.07068680971860886,0.00010358657133334036,"train",1140.0,"2021-11-20 17:05:10.969902","","","","","","",""
1.0,0.08313703536987305,0.00010441860909517838,"train",1160.0,"2021-11-20 17:05:14.121784","","","","","","",""
1.0,0.09423896670341492,0.00010526488009129963,"train",1180.0,"2021-11-20 17:05:17.872391","","","","","","",""
1.0,0.06808467954397202,0.0001061253714471713,"train",1200.0,"2021-11-20 17:05:21.025496","","","","","","",""
1.0,0.08433213084936142,0.00010700007007192255,"train",1220.0,"2021-11-20 17:05:24.165139","","","","","","",""
1.0,0.08680655807256699,0.00010788896265854402,"train",1240.0,"2021-11-20 17:05:27.298916","","","","","","",""
1.0,0.07089166343212128,0.00010879203568408993,"train",1260.0,"2021-11-20 17:05:30.434658","","","","","","",""
1.0,0.08270203322172165,0.00010970927540988385,"train",1280.0,"2021-11-20 17:05:34.193804","","","","","","",""
1.0,0.08500967174768448,0.00011064066788172774,"train",1300.0,"2021-11-20 17:05:37.375808","","","","","","",""
1.0,0.08024328202009201,0.00011158619893011424,"train",1320.0,"2021-11-20 17:05:40.502338","","","","","","",""
1.0,0.11242160946130753,0.00011254585417044306,"train",1340.0,"2021-11-20 17:05:43.641882","","","","","","",""
1.0,0.09301768988370895,0.00011351961900323785,"train",1360.0,"2021-11-20 17:05:46.787054","","","","","","",""
1.0,0.10761632025241852,0.00011450747861437016,"train",1380.0,"2021-11-20 17:05:50.009105","","","","","","",""
1.0,0.075485959649086,0.00011550941797528413,"train",1400.0,"2021-11-20 17:05:53.677738","","","","","","",""
1.0,0.07432039827108383,0.0001165254218432252,"train",1420.0,"2021-11-20 17:05:56.866023","","","","","","",""
1.0,0.0748341828584671,0.00011755547476147133,"train",1440.0,"2021-11-20 17:06:00.044911","","","","","","",""
1.0,0.08766501396894455,0.0001185995610595693,"train",1460.0,"2021-11-20 17:06:03.257753","","","","","","",""
1.0,0.08484866470098495,0.00011965766485357303,"train",1480.0,"2021-11-20 17:06:06.499835","","","","","","",""
1.0,0.0775291919708252,0.00012072977004628387,"train",1500.0,"2021-11-20 17:06:09.742844","","","","","","",""
1.0,0.07668051868677139,0.00012181586032749625,"train",1520.0,"2021-11-20 17:06:13.547193","","","","","","",""
1.0,0.08026407659053802,0.00012291591917424705,"train",1540.0,"2021-11-20 17:06:16.778707","","","","","","",""
1.0,0.07377825677394867,0.00012402992985106475,"train",1560.0,"2021-11-20 17:06:19.994642","","","","","","",""
1.0,0.09672587364912033,0.00012515787541022595,"train",1580.0,"2021-11-20 17:06:23.191064","","","","","","",""
1.0,0.08971724659204483,0.0001262997386920117,"train",1600.0,"2021-11-20 17:06:26.432940","","","","","","",""
1.0,0.07605558633804321,0.00012745550232496987,"train",1620.0,"2021-11-20 17:06:29.679617","","","","","","",""
1.0,0.0734671875834465,0.00012862514872617856,"train",1640.0,"2021-11-20 17:06:33.442169","","","","","","",""
1.0,0.07627176493406296,0.00012980866010151352,"train",1660.0,"2021-11-20 17:06:36.646595","","","","","","",""
1.0,0.08563175797462463,0.00013100601844591962,"train",1680.0,"2021-11-20 17:06:39.799710","","","","","","",""
1.0,0.06800924241542816,0.00013221720554368408,"train",1700.0,"2021-11-20 17:06:42.932604","","","","","","",""
1.0,0.07562502473592758,0.000133442202968714,"train",1720.0,"2021-11-20 17:06:46.208352","","","","","","",""
1.0,0.08020999282598495,0.0001346809920848163,"train",1740.0,"2021-11-20 17:06:49.461152","","","","","","",""
1.0,0.07621883600950241,0.0001359335540459818,"train",1760.0,"2021-11-20 17:06:53.270683","","","","","","",""
1.0,0.08648047596216202,0.00013719986979667063,"train",1780.0,"2021-11-20 17:06:56.515150","","","","","","",""
1.0,0.07872455567121506,0.0001384799200721046,"train",1800.0,"2021-11-20 17:06:59.760997","","","","","","",""
1.0,0.09112530946731567,0.0001397736853985575,"train",1820.0,"2021-11-20 17:07:02.993515","","","","","","",""
1.0,0.07352616637945175,0.00014108114609365317,"train",1840.0,"2021-11-20 17:07:06.229736","","","","","","",""
1.0,0.07243646681308746,0.00014240228226666406,"train",1860.0,"2021-11-20 17:07:09.948731","","","","","","",""
1.0,0.06772522628307343,0.00014373707381881424,"train",1880.0,"2021-11-20 17:07:13.194494","","","","","","",""
1.0,0.0812055841088295,0.00014508550044358532,"train",1900.0,"2021-11-20 17:07:16.479056","","","","","","",""
1.0,0.09383907914161682,0.0001464475416270252,"train",1920.0,"2021-11-20 17:07:19.730188","","","","","","",""
1.0,0.0944519191980362,0.0001478231766480595,"train",1940.0,"2021-11-20 17:07:22.940210","","","","","","",""
1.0,0.06289925426244736,0.00014921238457880773,"train",1960.0,"2021-11-20 17:07:26.166481","","","","","","",""
1.0,0.05554515868425369,0.0001506151442849015,"train",1980.0,"2021-11-20 17:07:29.961915","","","","","","",""
1.0,0.06626647710800171,0.0001520314344258056,"train",2000.0,"2021-11-20 17:07:33.173025","","","","","","",""
1.0,0.07418426126241684,0.00015346123345514294,"train",2020.0,"2021-11-20 17:07:36.420559","","","","","","",""
1.0,0.07385005056858063,0.0001549045196210222,"train",2040.0,"2021-11-20 17:07:39.647158","","","","","","",""
1.0,0.0782923549413681,0.0001563612709663696,"train",2060.0,"2021-11-20 17:07:42.847302","","","","","","",""
1.0,0.079883873462677,0.000157831465329261,"train",2080.0,"2021-11-20 17:07:46.050948","","","","","","",""
1.0,0.07660495489835739,0.0001593150803432615,"train",2100.0,"2021-11-20 17:07:49.782131","","","","","","",""
1.0,0.07268251478672028,0.0001608120934377638,"train",2120.0,"2021-11-20 17:07:52.988991","","","","","","",""
1.0,0.08486711233854294,0.00016232248183833215,"train",2140.0,"2021-11-20 17:07:56.233166","","","","","","",""
1.0,"","","train",2149.0,"2021-11-20 17:09:32.697643",0.4453467219675471,0.3234772442909723,0.8613750711423941,0.4064348404491199,0.2165549755705807,0.20970637066312203,0.14401729851788098
1.0,"","","val",2149.0,"2021-11-20 17:09:59.742377",0.4394642235880784,0.3170309412988494,0.8586246215170387,0.3980705345680069,0.21307572838646235,0.20682467627543627,0.1403297015805932
2.0,0.08695729076862335,0.00016384622256704882,"train",2160.0,"2021-11-20 17:10:04.239561","","","","","","",""
2.0,0.07499769330024719,0.00016538329244286448,"train",2180.0,"2021-11-20 17:10:07.423373","","","","","","",""
2.0,0.08017690479755402,0.00016693366808194997,"train",2200.0,"2021-11-20 17:10:10.588312","","","","","","",""
2.0,0.0966397076845169,0.00016849732589805148,"train",2220.0,"2021-11-20 17:10:14.365644","","","","","","",""
2.0,0.07297199219465256,0.00017007424210285045,"train",2240.0,"2021-11-20 17:10:17.477057","","","","","","",""
2.0,0.07581312209367752,0.00017166439270632598,"train",2260.0,"2021-11-20 17:10:20.602077","","","","","","",""
2.0,0.08526730537414551,0.00017326775351711736,"train",2280.0,"2021-11-20 17:10:23.709604","","","","","","",""
2.0,0.095372274518013,0.00017488430014289528,"train",2300.0,"2021-11-20 17:10:26.851306","","","","","","",""
2.0,0.06261756271123886,0.00017651400799073027,"train",2320.0,"2021-11-20 17:10:29.991255","","","","","","",""
2.0,0.06994499266147614,0.00017815685226746847,"train",2340.0,"2021-11-20 17:10:33.752948","","","","","","",""
2.0,0.06957799941301346,0.0001798128079801072,"train",2360.0,"2021-11-20 17:10:36.874143","","","","","","",""
2.0,0.07605912536382675,0.0001814818499361777,"train",2380.0,"2021-11-20 17:10:40.036728","","","","","","",""
2.0,0.07195482403039932,0.0001831639527441263,"train",2400.0,"2021-11-20 17:10:43.168151","","","","","","",""
2.0,0.0767187550663948,0.00018485909081370085,"train",2420.0,"2021-11-20 17:10:46.291050","","","","","","",""
2.0,0.06555181741714478,0.00018656723835634085,"train",2440.0,"2021-11-20 17:10:49.907678","","","","","","",""
2.0,0.07643391937017441,0.0001882883693855701,"train",2460.0,"2021-11-20 17:10:53.038582","","","","","","",""
2.0,0.06033829227089882,0.00019002245771738958,"train",2480.0,"2021-11-20 17:10:56.271054","","","","","","",""
2.0,0.07687907665967941,0.0001917694769706798,"train",2500.0,"2021-11-20 17:10:59.504316","","","","","","",""
2.0,0.0646996721625328,0.00019352940056759798,"train",2520.0,"2021-11-20 17:11:02.737181","","","","","","",""
2.0,0.06714319437742233,0.00019530220173398548,"train",2540.0,"2021-11-20 17:11:05.964414","","","","","","",""
2.0,0.07002424448728561,0.00019708785349977376,"train",2560.0,"2021-11-20 17:11:09.804929","","","","","","",""
2.0,0.08937850594520569,0.00019888632869939486,"train",2580.0,"2021-11-20 17:11:13.003138","","","","","","",""
2.0,0.06328713893890381,0.00020069759997219444,"train",2600.0,"2021-11-20 17:11:16.191699","","","","","","",""
2.0,0.0799630805850029,0.00020252163976284838,"train",2620.0,"2021-11-20 17:11:19.389811","","","","","","",""
2.0,0.06869976222515106,0.00020435842032178234,"train",2640.0,"2021-11-20 17:11:22.597290","","","","","","",""
2.0,0.0759122371673584,0.00020620791370559266,"train",2660.0,"2021-11-20 17:11:25.772294","","","","","","",""
2.0,0.07305724918842316,0.00020807009177747308,"train",2680.0,"2021-11-20 17:11:29.504889","","","","","","",""
2.0,0.06504775583744049,0.00020994492620764194,"train",2700.0,"2021-11-20 17:11:32.677064","","","","","","",""
2.0,0.06300130486488342,0.00021183238847377215,"train",2720.0,"2021-11-20 17:11:35.838148","","","","","","",""
2.0,0.0493571013212204,0.00021373244986142774,"train",2740.0,"2021-11-20 17:11:38.983488","","","","","","",""
2.0,0.06073635444045067,0.0002156450814644979,"train",2760.0,"2021-11-20 17:11:42.148361","","","","","","",""
2.0,0.0705815926194191,0.00021757025418563895,"train",2780.0,"2021-11-20 17:11:45.275368","","","","","","",""
2.0,0.07534550875425339,0.0002195079387367154,"train",2800.0,"2021-11-20 17:11:48.968039","","","","","","",""
2.0,0.05973850190639496,0.00022145810563924638,"train",2820.0,"2021-11-20 17:11:52.181907","","","","","","",""
2.0,0.05992728844285011,0.0002234207252248537,"train",2840.0,"2021-11-20 17:11:55.397187","","","","","","",""
2.0,0.07575096189975739,0.00022539576763571344,"train",2860.0,"2021-11-20 17:11:58.593446","","","","","","",""
2.0,0.0720319151878357,0.00022738320282501031,"train",2880.0,"2021-11-20 17:12:01.754014","","","","","","",""
2.0,0.07916492223739624,0.0002293830005573945,"train",2900.0,"2021-11-20 17:12:04.960803","","","","","","",""
2.0,0.06753155589103699,0.00023139513040944162,"train",2920.0,"2021-11-20 17:12:08.743126","","","","","","",""
2.0,0.05141760781407356,0.0002334195617701158,"train",2940.0,"2021-11-20 17:12:11.962545","","","","","","",""
2.0,0.07274403423070908,0.00023545626384123487,"train",2960.0,"2021-11-20 17:12:15.228643","","","","","","",""
2.0,0.0708455964922905,0.0002375052056379399,"train",2980.0,"2021-11-20 17:12:18.458225","","","","","","",""
2.0,0.07107638567686081,0.00023956635598916531,"train",3000.0,"2021-11-20 17:12:21.593554","","","","","","",""
2.0,0.07340749353170395,0.00024163968353811465,"train",3020.0,"2021-11-20 17:12:25.231529","","","","","","",""
2.0,0.08111614733934402,0.00024372515674273487,"train",3040.0,"2021-11-20 17:12:28.406861","","","","","","",""
2.0,0.0815315842628479,0.00024582274387620036,"train",3060.0,"2021-11-20 17:12:31.599888","","","","","","",""
2.0,0.08703143149614334,0.00024793241302739134,"train",3080.0,"2021-11-20 17:12:34.803318","","","","","","",""
2.0,0.0627494603395462,0.00025005413210138234,"train",3100.0,"2021-11-20 17:12:37.998348","","","","","","",""
2.0,0.0659371092915535,0.0002521878688199295,"train",3120.0,"2021-11-20 17:12:41.214370","","","","","","",""
2.0,0.0703367367386818,0.00025433359072196053,"train",3140.0,"2021-11-20 17:12:44.931239","","","","","","",""
2.0,0.06308969110250473,0.00025649126516407036,"train",3160.0,"2021-11-20 17:12:48.079273","","","","","","",""
2.0,0.0649198666214943,0.00025866085932101665,"train",3180.0,"2021-11-20 17:12:51.212737","","","","","","",""
2.0,0.06757020205259323,0.00026084234018621975,"train",3200.0,"2021-11-20 17:12:54.350001","","","","","","",""
2.0,0.07451789081096649,0.0002630356745722637,"train",3220.0,"2021-11-20 17:12:57.486413","","","","","","",""
2.0,"","","train",3223.0,"2021-11-20 17:14:33.392715",0.47806155861165683,0.3959180497179181,0.884725015536231,0.4720928834003298,0.3183053275017549,0.3182256494021238,0.21325019815980167
2.0,"","","val",3223.0,"2021-11-20 17:14:58.810086",0.47147164559897947,0.39089194393707005,0.8797097281279201,0.462490721722093,0.3139107035430285,0.3117788635437089,0.20943661146354614
3.0,0.06745463609695435,0.00026524082911140293,"train",3240.0,"2021-11-20 17:15:04.330390","","","","","","",""
3.0,0.0587487556040287,0.0002674577702560688,"train",3260.0,"2021-11-20 17:15:08.158186","","","","","","",""
3.0,0.06991136074066162,0.00026968646427937893,"train",3280.0,"2021-11-20 17:15:11.295670","","","","","","",""
3.0,0.059199847280979156,0.0002719268772756532,"train",3300.0,"2021-11-20 17:15:14.419771","","","","","","",""
3.0,0.06282518804073334,0.00027417897516092654,"train",3320.0,"2021-11-20 17:15:17.529007","","","","","","",""
3.0,0.06696294993162155,0.00027644272367346946,"train",3340.0,"2021-11-20 17:15:20.648860","","","","","","",""
3.0,0.055999625474214554,0.0002787180883743077,"train",3360.0,"2021-11-20 17:15:23.810476","","","","","","",""
3.0,0.059622593224048615,0.0002810050346477482,"train",3380.0,"2021-11-20 17:15:27.606057","","","","","","",""
3.0,0.06862099468708038,0.0002833035277019034,"train",3400.0,"2021-11-20 17:15:30.799854","","","","","","",""
3.0,0.06830321252346039,0.0002856135325692221,"train",3420.0,"2021-11-20 17:15:34.024869","","","","","","",""
3.0,0.06748440116643906,0.00028793501410702155,"train",3440.0,"2021-11-20 17:15:37.213639","","","","","","",""
3.0,0.052890609949827194,0.0002902679369980207,"train",3460.0,"2021-11-20 17:15:40.428641","","","","","","",""
3.0,0.06597917526960373,0.0002926122657508788,"train",3480.0,"2021-11-20 17:15:43.621904","","","","","","",""
3.0,0.060558103024959564,0.00029496796470073437,"train",3500.0,"2021-11-20 17:15:47.235892","","","","","","",""
3.0,0.06559843569993973,0.00029733499800974885,"train",3520.0,"2021-11-20 17:15:50.317389","","","","","","",""
3.0,0.06824353337287903,0.0002997133296676511,"train",3540.0,"2021-11-20 17:15:53.393489","","","","","","",""
3.0,0.06286749988794327,0.00030210292349228574,"train",3560.0,"2021-11-20 17:15:56.484844","","","","","","",""
3.0,0.05993911623954773,0.0003045037431301616,"train",3580.0,"2021-11-20 17:15:59.619161","","","","","","",""
3.0,0.06708215922117233,0.0003069157520570085,"train",3600.0,"2021-11-20 17:16:03.294256","","","","","","",""
3.0,0.055653516203165054,0.00030933891357832945,"train",3620.0,"2021-11-20 17:16:06.423043","","","","","","",""
3.0,0.059657152742147446,0.000311773190829961,"train",3640.0,"2021-11-20 17:16:09.545352","","","","","","",""
3.0,0.071652851998806,0.0003142185467786326,"train",3660.0,"2021-11-20 17:16:12.748297","","","","","","",""
3.0,0.05348607525229454,0.00031667494422253097,"train",3680.0,"2021-11-20 17:16:15.918002","","","","","","",""
3.0,0.06930454075336456,0.0003191423457918662,"train",3700.0,"2021-11-20 17:16:19.063774","","","","","","",""
3.0,0.08042417466640472,0.0003216207139494398,"train",3720.0,"2021-11-20 17:16:22.660741","","","","","","",""
3.0,0.0840301364660263,0.00032411001099121517,"train",3740.0,"2021-11-20 17:16:25.760387","","","","","","",""
3.0,0.07912307977676392,0.0003266101990468922,"train",3760.0,"2021-11-20 17:16:28.854389","","","","","","",""
3.0,0.07061523199081421,0.0003291212400804832,"train",3780.0,"2021-11-20 17:16:32.021013","","","","","","",""
3.0,0.06091945990920067,0.00033164309589089154,"train",3800.0,"2021-11-20 17:16:35.254589","","","","","","",""
3.0,0.06766624003648758,0.0003341757281124921,"train",3820.0,"2021-11-20 17:16:38.451093","","","","","","",""
3.0,0.07999373972415924,0.000336719098215716,"train",3840.0,"2021-11-20 17:16:42.117129","","","","","","",""
3.0,0.08138884603977203,0.0003392731675076362,"train",3860.0,"2021-11-20 17:16:45.260791","","","","","","",""
3.0,0.06141667813062668,0.0003418378971325564,"train",3880.0,"2021-11-20 17:16:48.505155","","","","","","",""
3.0,0.05731712281703949,0.0003444132480726011,"train",3900.0,"2021-11-20 17:16:51.708343","","","","","","",""
3.0,0.05704411491751671,0.0003469991811483116,"train",3920.0,"2021-11-20 17:16:54.964349","","","","","","",""
3.0,0.06884758174419403,0.0003495956570192388,"train",3940.0,"2021-11-20 17:16:58.165153","","","","","","",""
3.0,0.061420049518346786,0.00035220263618454474,"train",3960.0,"2021-11-20 17:17:01.841585","","","","","","",""
3.0,0.05205210670828819,0.0003548200789836016,"train",3980.0,"2021-11-20 17:17:05.057739","","","","","","",""
3.0,0.07167961448431015,0.0003574479455965959,"train",4000.0,"2021-11-20 17:17:08.266227","","","","","","",""
3.0,0.06632208824157715,0.0003600861960451338,"train",4020.0,"2021-11-20 17:17:11.465108","","","","","","",""
3.0,0.07441189885139465,0.0003627347901928497,"train",4040.0,"2021-11-20 17:17:14.675777","","","","","","",""
3.0,0.0698237344622612,0.0003653936877460167,"train",4060.0,"2021-11-20 17:17:18.449924","","","","","","",""
3.0,0.053514767438173294,0.00036806284825416,"train",4080.0,"2021-11-20 17:17:21.579511","","","","","","",""
3.0,0.09055578708648682,0.00037074223111067104,"train",4100.0,"2021-11-20 17:17:24.733562","","","","","","",""
3.0,0.0681924819946289,0.00037343179555342676,"train",4120.0,"2021-11-20 17:17:27.872614","","","","","","",""
3.0,0.055915798991918564,0.00037613150066540934,"train",4140.0,"2021-11-20 17:17:31.013573","","","","","","",""
3.0,0.07148998975753784,0.00037884130537532744,"train",4160.0,"2021-11-20 17:17:34.127949","","","","","","",""
3.0,0.06756801158189774,0.0003815611684582429,"train",4180.0,"2021-11-20 17:17:37.699851","","","","","","",""
3.0,0.07352720201015472,0.00038429104853619626,"train",4200.0,"2021-11-20 17:17:40.820926","","","","","","",""
3.0,0.06490764766931534,0.0003870309040788383,"train",4220.0,"2021-11-20 17:17:43.940716","","","","","","",""
3.0,0.05508459731936455,0.0003897806934040587,"train",4240.0,"2021-11-20 17:17:47.112070","","","","","","",""
3.0,0.06501993536949158,0.00039254037467862345,"train",4260.0,"2021-11-20 17:17:50.261251","","","","","","",""
3.0,0.05719862878322601,0.0003953099059188093,"train",4280.0,"2021-11-20 17:17:53.419696","","","","","","",""
3.0,"","","train",4297.0,"2021-11-20 17:19:31.581476",0.5122753401731791,0.4503679775798241,0.907442570723562,0.5174387187094485,0.36114784331572725,0.36138174576701493,0.24189685361869687
3.0,"","","val",4297.0,"2021-11-20 17:19:57.226823",0.5059723993969616,0.4343054498411395,0.9018990583251221,0.5033052778090479,0.35134742956615467,0.34978075382743,0.2325102347472868
4.0,0.0657510831952095,0.000398089244991043,"train",4300.0,"2021-11-20 17:20:00.453822","","","","","","",""
4.0,0.045963775366544724,0.0004008783496125424,"train",4320.0,"2021-11-20 17:20:03.656826","","","","","","",""
4.0,0.05338912829756737,0.0004036771773519598,"train",4340.0,"2021-11-20 17:20:06.854664","","","","","","",""
4.0,0.06686000525951385,0.00040648568563002654,"train",4360.0,"2021-11-20 17:20:10.054732","","","","","","",""
4.0,0.0746837630867958,0.00040930383172020266,"train",4380.0,"2021-11-20 17:20:13.245994","","","","","","",""
4.0,0.05190637707710266,0.00041213157274932436,"train",4400.0,"2021-11-20 17:20:16.448251","","","","","","",""
4.0,0.06306909769773483,0.0004149688656982589,"train",4420.0,"2021-11-20 17:20:20.234488","","","","","","",""
4.0,0.06707155704498291,0.0004178156674025566,"train",4440.0,"2021-11-20 17:20:23.471789","","","","","","",""
4.0,0.057158663868904114,0.00042067193455311053,"train",4460.0,"2021-11-20 17:20:26.698495","","","","","","",""
4.0,0.05669167637825012,0.0004235376236968113,"train",4480.0,"2021-11-20 17:20:29.893151","","","","","","",""
4.0,0.06661073863506317,0.0004264126912372115,"train",4500.0,"2021-11-20 17:20:33.087994","","","","","","",""
4.0,0.047669023275375366,0.00042929709343518833,"train",4520.0,"2021-11-20 17:20:36.283976","","","","","","",""
4.0,0.06342373788356781,0.0004321907864096074,"train",4540.0,"2021-11-20 17:20:40.056706","","","","","","",""
4.0,0.0688699409365654,0.0004350937261379921,"train",4560.0,"2021-11-20 17:20:43.268562","","","","","","",""
4.0,0.056469690054655075,0.00043800586845719265,"train",4580.0,"2021-11-20 17:20:46.527130","","","","","","",""
4.0,0.047762103378772736,0.0004409271690640575,"train",4600.0,"2021-11-20 17:20:49.764595","","","","","","",""
4.0,0.04390573501586914,0.00044385758351610824,"train",4620.0,"2021-11-20 17:20:53.034191","","","","","","",""
4.0,0.05962987244129181,0.0004467970672322151,"train",4640.0,"2021-11-20 17:20:56.738795","","","","","","",""
4.0,0.051803797483444214,0.0004497455754932751,"train",4660.0,"2021-11-20 17:20:59.952044","","","","","","",""
4.0,0.05663618817925453,0.0004527030634428929,"train",4680.0,"2021-11-20 17:21:03.164016","","","","","","",""
4.0,0.06497279554605484,0.0004556694860880625,"train",4700.0,"2021-11-20 17:21:06.375860","","","","","","",""
4.0,0.0734245777130127,0.0004586447982998527,"train",4720.0,"2021-11-20 17:21:09.593115","","","","","","",""
4.0,0.05624264106154442,0.00046162895481409276,"train",4740.0,"2021-11-20 17:21:12.830735","","","","","","",""
4.0,0.06033731997013092,0.0004646219102320613,"train",4760.0,"2021-11-20 17:21:16.641427","","","","","","",""
4.0,0.047025974839925766,0.0004676236190211773,"train",4780.0,"2021-11-20 17:21:19.870320","","","","","","",""
4.0,0.05122167617082596,0.0004706340355156921,"train",4800.0,"2021-11-20 17:21:23.092194","","","","","","",""
4.0,0.0711929202079773,0.00047365311391738473,"train",4820.0,"2021-11-20 17:21:26.367402","","","","","","",""
4.0,0.057653769850730896,0.00047668080829625886,"train",4840.0,"2021-11-20 17:21:29.590216","","","","","","",""
4.0,0.06505317986011505,0.00047971707259124026,"train",4860.0,"2021-11-20 17:21:32.870749","","","","","","",""
4.0,0.05295536294579506,0.00048276186061087874,"train",4880.0,"2021-11-20 17:21:36.524156","","","","","","",""
4.0,0.06330960988998413,0.0004858151260340518,"train",4900.0,"2021-11-20 17:21:39.619929","","","","","","",""
4.0,0.05562523379921913,0.0004888768224106659,"train",4920.0,"2021-11-20 17:21:42.823269","","","","","","",""
4.0,0.05482940748333931,0.000491946903162367,"train",4940.0,"2021-11-20 17:21:46.057445","","","","","","",""
4.0,0.05391842499375343,0.0004950253215832466,"train",4960.0,"2021-11-20 17:21:49.284262","","","","","","",""
4.0,0.06693629920482635,0.0004981120308405534,"train",4980.0,"2021-11-20 17:21:52.524267","","","","","","",""
4.0,0.059201426804065704,0.0005012069839754052,"train",5000.0,"2021-11-20 17:21:56.328160","","","","","","",""
4.0,0.07145543396472931,0.0005043101339035048,"train",5020.0,"2021-11-20 17:21:59.529951","","","","","","",""
4.0,0.06127108260989189,0.0005074214334158536,"train",5040.0,"2021-11-20 17:22:02.769837","","","","","","",""
4.0,0.06943822652101517,0.0005105408351794719,"train",5060.0,"2021-11-20 17:22:06.046779","","","","","","",""
4.0,0.058487821370363235,0.000513668291738119,"train",5080.0,"2021-11-20 17:22:09.284410","","","","","","",""
4.0,0.056021545082330704,0.0005168037555130143,"train",5100.0,"2021-11-20 17:22:12.441473","","","","","","",""
4.0,0.05858058109879494,0.0005199471788035603,"train",5120.0,"2021-11-20 17:22:16.055742","","","","","","",""
4.0,0.048081886023283005,0.000523098513788071,"train",5140.0,"2021-11-20 17:22:19.273602","","","","","","",""
4.0,0.0696459636092186,0.0005262577125244969,"train",5160.0,"2021-11-20 17:22:22.497058","","","","","","",""
4.0,0.06528458744287491,0.0005294247269511556,"train",5180.0,"2021-11-20 17:22:25.733455","","","","","","",""
4.0,0.06148512661457062,0.0005325995088874625,"train",5200.0,"2021-11-20 17:22:28.911847","","","","","","",""
4.0,0.06006352975964546,0.0005357820100346641,"train",5220.0,"2021-11-20 17:22:32.051240","","","","","","",""
4.0,0.05789832025766373,0.0005389721819765725,"train",5240.0,"2021-11-20 17:22:35.769713","","","","","","",""
4.0,0.04947590082883835,0.0005421699761803016,"train",5260.0,"2021-11-20 17:22:38.915128","","","","","","",""
4.0,0.049736253917217255,0.000545375343997007,"train",5280.0,"2021-11-20 17:22:42.071393","","","","","","",""
4.0,0.06895436346530914,0.000548588236662624,"train",5300.0,"2021-11-20 17:22:45.343560","","","","","","",""
4.0,0.06672636419534683,0.0005518086052986107,"train",5320.0,"2021-11-20 17:22:48.580516","","","","","","",""
4.0,0.05914280191063881,0.0005550364009126924,"train",5340.0,"2021-11-20 17:22:52.264844","","","","","","",""
4.0,0.049357492476701736,0.0005582715743996042,"train",5360.0,"2021-11-20 17:22:55.444088","","","","","","",""
4.0,"","","train",5371.0,"2021-11-20 17:24:31.813053",0.5500545732372845,0.4934229754411472,0.9233748807101889,0.5496186778325778,0.3923373773628961,0.40252169469103866,0.2658588347450493
4.0,"","","val",5371.0,"2021-11-20 17:24:57.362600",0.5411109822567551,0.47329970684375466,0.9145609761438236,0.5350906455457828,0.3830929041236156,0.39199485124256406,0.25497458393415007
5.0,0.05898182839155197,0.0005615140765418409,"train",5380.0,"2021-11-20 17:25:01.512860","","","","","","",""
5.0,0.04460945725440979,0.0005647638580104052,"train",5400.0,"2021-11-20 17:25:04.685468","","","","","","",""
5.0,0.07050634920597076,0.0005680208693655555,"train",5420.0,"2021-11-20 17:25:07.836887","","","","","","",""
5.0,0.07306670397520065,0.0005712850610575626,"train",5440.0,"2021-11-20 17:25:11.019787","","","","","","",""
5.0,0.05505833029747009,0.0005745563834274588,"train",5460.0,"2021-11-20 17:25:14.836595","","","","","","",""
5.0,0.05030221864581108,0.0005778347867077974,"train",5480.0,"2021-11-20 17:25:18.028933","","","","","","",""
5.0,0.060739122331142426,0.0005811202210234069,"train",5500.0,"2021-11-20 17:25:21.171189","","","","","","",""
5.0,0.04958091676235199,0.0005844126363921515,"train",5520.0,"2021-11-20 17:25:24.301262","","","","","","",""
5.0,0.03733927756547928,0.0005877119827256904,"train",5540.0,"2021-11-20 17:25:27.465439","","","","","","",""
5.0,0.07036491483449936,0.0005910182098302411,"train",5560.0,"2021-11-20 17:25:30.613660","","","","","","",""
5.0,0.06995641440153122,0.0005943312674073407,"train",5580.0,"2021-11-20 17:25:34.290205","","","","","","",""
5.0,0.04544991999864578,0.0005976511050546148,"train",5600.0,"2021-11-20 17:25:37.409950","","","","","","",""
5.0,0.06280000507831573,0.0006009776722665399,"train",5620.0,"2021-11-20 17:25:40.543839","","","","","","",""
5.0,0.063585564494133,0.0006043109184352153,"train",5640.0,"2021-11-20 17:25:43.711621","","","","","","",""
5.0,0.062193091958761215,0.0006076507928511315,"train",5660.0,"2021-11-20 17:25:46.908865","","","","","","",""
5.0,0.06463383138179779,0.0006109972447039412,"train",5680.0,"2021-11-20 17:25:50.125031","","","","","","",""
5.0,0.06757328659296036,0.0006143502230832331,"train",5700.0,"2021-11-20 17:25:53.843292","","","","","","",""
5.0,0.04975016787648201,0.000617709676979307,"train",5720.0,"2021-11-20 17:25:57.025055","","","","","","",""
5.0,0.05190812423825264,0.0006210755552839484,"train",5740.0,"2021-11-20 17:26:00.224271","","","","","","",""
5.0,0.05162200704216957,0.0006244478067912059,"train",5760.0,"2021-11-20 17:26:03.417305","","","","","","",""
5.0,0.05869510397315025,0.0006278263801981728,"train",5780.0,"2021-11-20 17:26:06.599380","","","","","","",""
5.0,0.06641550362110138,0.0006312112241057643,"train",5800.0,"2021-11-20 17:26:10.348886","","","","","","",""
5.0,0.05238506570458412,0.0006346022870195008,"train",5820.0,"2021-11-20 17:26:13.526314","","","","","","",""
5.0,0.06318175792694092,0.000637999517350293,"train",5840.0,"2021-11-20 17:26:16.709236","","","","","","",""
5.0,0.06599357724189758,0.0006414028634152236,"train",5860.0,"2021-11-20 17:26:19.881959","","","","","","",""
5.0,0.06153608486056328,0.0006448122734383349,"train",5880.0,"2021-11-20 17:26:23.095773","","","","","","",""
5.0,0.04727184772491455,0.0006482276955514185,"train",5900.0,"2021-11-20 17:26:26.352498","","","","","","",""
5.0,0.056177232414484024,0.0006516490777948008,"train",5920.0,"2021-11-20 17:26:30.030164","","","","","","",""
5.0,0.05854691192507744,0.0006550763681181355,"train",5940.0,"2021-11-20 17:26:33.157164","","","","","","",""
5.0,0.05438970774412155,0.0006585095143811968,"train",5960.0,"2021-11-20 17:26:36.286874","","","","","","",""
5.0,0.05818846449255943,0.0006619484643546683,"train",5980.0,"2021-11-20 17:26:39.415961","","","","","","",""
5.0,0.037939704954624176,0.0006653931657209428,"train",6000.0,"2021-11-20 17:26:42.619306","","","","","","",""
5.0,0.032322805374860764,0.0006688435660749145,"train",6020.0,"2021-11-20 17:26:45.816447","","","","","","",""
5.0,0.05324038490653038,0.0006722996129247772,"train",6040.0,"2021-11-20 17:26:49.566774","","","","","","",""
5.0,0.04473860561847687,0.0006757612536928245,"train",6060.0,"2021-11-20 17:26:52.763361","","","","","","",""
5.0,0.0510733425617218,0.0006792284357162465,"train",6080.0,"2021-11-20 17:26:55.947986","","","","","","",""
5.0,0.073400117456913,0.0006827011062479345,"train",6100.0,"2021-11-20 17:26:59.118744","","","","","","",""
5.0,0.03886713460087776,0.0006861792124572804,"train",6120.0,"2021-11-20 17:27:02.287956","","","","","","",""
5.0,0.05461404472589493,0.0006896627014309827,"train",6140.0,"2021-11-20 17:27:05.508191","","","","","","",""
5.0,0.05644233897328377,0.0006931515201738503,"train",6160.0,"2021-11-20 17:27:09.213667","","","","","","",""
5.0,0.057120181620121,0.0006966456156096085,"train",6180.0,"2021-11-20 17:27:12.380653","","","","","","",""
5.0,0.05636667460203171,0.0007001449345817074,"train",6200.0,"2021-11-20 17:27:15.533395","","","","","","",""
5.0,0.05267508327960968,0.0007036494238541304,"train",6220.0,"2021-11-20 17:27:18.668003","","","","","","",""
5.0,0.050476718693971634,0.0007071590301122035,"train",6240.0,"2021-11-20 17:27:21.841246","","","","","","",""
5.0,0.061024751514196396,0.0007106736999634062,"train",6260.0,"2021-11-20 17:27:25.073453","","","","","","",""
5.0,0.05084274709224701,0.0007141933799381852,"train",6280.0,"2021-11-20 17:27:28.817680","","","","","","",""
5.0,0.05910496413707733,0.0007177180164907667,"train",6300.0,"2021-11-20 17:27:31.942241","","","","","","",""
5.0,0.05710116773843765,0.0007212475559999706,"train",6320.0,"2021-11-20 17:27:35.094155","","","","","","",""
5.0,0.05422396957874298,0.0007247819447700277,"train",6340.0,"2021-11-20 17:27:38.247629","","","","","","",""
5.0,0.04413878545165062,0.0007283211290313955,"train",6360.0,"2021-11-20 17:27:41.376392","","","","","","",""
5.0,0.052772291004657745,0.000731865054941576,"train",6380.0,"2021-11-20 17:27:44.997284","","","","","","",""
5.0,0.06603240966796875,0.0007354136685859363,"train",6400.0,"2021-11-20 17:27:48.147332","","","","","","",""
5.0,0.056977201253175735,0.0007389669159785269,"train",6420.0,"2021-11-20 17:27:51.316383","","","","","","",""
5.0,0.051038213074207306,0.0007425247430629042,"train",6440.0,"2021-11-20 17:27:54.436540","","","","","","",""
5.0,"","","train",6445.0,"2021-11-20 17:29:31.534337",0.5653641854034781,0.5217277435043912,0.9341488451655743,0.5756895964523109,0.41277864591932106,0.4185810509627451,0.28161870084709834
5.0,"","","val",6445.0,"2021-11-20 17:29:57.393643",0.5540995013336426,0.4985377115236125,0.9260771009004779,0.557334168736859,0.3978088526139636,0.4009656636779089,0.26802430211647804
6.0,0.0530264750123024,0.0007460870957129531,"train",6460.0,"2021-11-20 17:30:02.569578","","","","","","",""
6.0,0.0506707988679409,0.0007496539197337094,"train",6480.0,"2021-11-20 17:30:05.791856","","","","","","",""
6.0,0.03606446459889412,0.0007532251608621844,"train",6500.0,"2021-11-20 17:30:09.598039","","","","","","",""
6.0,0.056180305778980255,0.0007568007647681923,"train",6520.0,"2021-11-20 17:30:12.780910","","","","","","",""
6.0,0.053110476583242416,0.0007603806770551738,"train",6540.0,"2021-11-20 17:30:15.990600","","","","","","",""
6.0,0.051581110805273056,0.0007639648432610257,"train",6560.0,"2021-11-20 17:30:19.209205","","","","","","",""
6.0,0.0699508786201477,0.0007675532088589284,"train",6580.0,"2021-11-20 17:30:22.426652","","","","","","",""
6.0,0.06139552965760231,0.0007711457192581771,"train",6600.0,"2021-11-20 17:30:25.620744","","","","","","",""
6.0,0.059089545160532,0.0007747423198050105,"train",6620.0,"2021-11-20 17:30:29.318157","","","","","","",""
6.0,0.0500686950981617,0.0007783429557834416,"train",6640.0,"2021-11-20 17:30:32.532887","","","","","","",""
6.0,0.049201782792806625,0.0007819475724160931,"train",6660.0,"2021-11-20 17:30:35.721520","","","","","","",""
6.0,0.048669204115867615,0.0007855561148650289,"train",6680.0,"2021-11-20 17:30:38.870231","","","","","","",""
6.0,0.05720842257142067,0.0007891685282325868,"train",6700.0,"2021-11-20 17:30:42.030052","","","","","","",""
6.0,0.05740581825375557,0.0007927847575622171,"train",6720.0,"2021-11-20 17:30:45.225357","","","","","","",""
6.0,0.052740003913640976,0.0007964047478393166,"train",6740.0,"2021-11-20 17:30:48.949789","","","","","","",""
6.0,0.04584934934973717,0.0008000284439920648,"train",6760.0,"2021-11-20 17:30:52.132120","","","","","","",""
6.0,0.05069637671113014,0.0008036557908922641,"train",6780.0,"2021-11-20 17:30:55.347268","","","","","","",""
6.0,0.053292084485292435,0.0008072867333561765,"train",6800.0,"2021-11-20 17:30:58.538721","","","","","","",""
6.0,0.057308465242385864,0.0008109212161453636,"train",6820.0,"2021-11-20 17:31:01.722720","","","","","","",""
6.0,0.04643046855926514,0.0008145591839675277,"train",6840.0,"2021-11-20 17:31:04.923098","","","","","","",""
6.0,0.05233832821249962,0.0008182005814773524,"train",6860.0,"2021-11-20 17:31:08.628954","","","","","","",""
6.0,0.05082103982567787,0.0008218453532773437,"train",6880.0,"2021-11-20 17:31:11.828420","","","","","","",""
6.0,0.05378707870841026,0.0008254934439186747,"train",6900.0,"2021-11-20 17:31:14.955015","","","","","","",""
6.0,0.039809055626392365,0.0008291447979020278,"train",6920.0,"2021-11-20 17:31:18.102069","","","","","","",""
6.0,0.05071235075592995,0.0008327993596784395,"train",6940.0,"2021-11-20 17:31:21.244496","","","","","","",""
6.0,0.051762655377388,0.0008364570736501449,"train",6960.0,"2021-11-20 17:31:24.957040","","","","","","",""
6.0,0.05775706470012665,0.000840117884171424,"train",6980.0,"2021-11-20 17:31:28.156813","","","","","","",""
6.0,0.06471637636423111,0.0008437817355494491,"train",7000.0,"2021-11-20 17:31:31.399128","","","","","","",""
6.0,0.047795526683330536,0.00084744857204513,"train",7020.0,"2021-11-20 17:31:34.680516","","","","","","",""
6.0,0.047043539583683014,0.0008511183378739639,"train",7040.0,"2021-11-20 17:31:37.904715","","","","","","",""
6.0,0.05562518909573555,0.0008547909772068829,"train",7060.0,"2021-11-20 17:31:41.119834","","","","","","",""
6.0,0.06441271305084229,0.0008584664341711045,"train",7080.0,"2021-11-20 17:31:44.774761","","","","","","",""
6.0,0.05455950275063515,0.0008621446528509795,"train",7100.0,"2021-11-20 17:31:47.992738","","","","","","",""
6.0,0.04527338966727257,0.0008658255772888456,"train",7120.0,"2021-11-20 17:31:51.199799","","","","","","",""
6.0,0.042682256549596786,0.000869509151485876,"train",7140.0,"2021-11-20 17:31:54.423229","","","","","","",""
6.0,0.04613896831870079,0.0008731953194029329,"train",7160.0,"2021-11-20 17:31:57.637555","","","","","","",""
6.0,0.0569923035800457,0.00087688402496142,"train",7180.0,"2021-11-20 17:32:00.799829","","","","","","",""
6.0,0.06360068172216415,0.0008805752120441335,"train",7200.0,"2021-11-20 17:32:04.504835","","","","","","",""
6.0,0.06864874064922333,0.0008842688244961202,"train",7220.0,"2021-11-20 17:32:07.635257","","","","","","",""
6.0,0.05729634314775467,0.0008879648061255272,"train",7240.0,"2021-11-20 17:32:10.828270","","","","","","",""
6.0,0.05662507191300392,0.0008916631007044589,"train",7260.0,"2021-11-20 17:32:14.010794","","","","","","",""
6.0,0.04870914667844772,0.0008953636519698329,"train",7280.0,"2021-11-20 17:32:17.184743","","","","","","",""
6.0,0.0456070639193058,0.0008990664036242354,"train",7300.0,"2021-11-20 17:32:20.318091","","","","","","",""
6.0,0.06800168007612228,0.0009027712993367762,"train",7320.0,"2021-11-20 17:32:23.911200","","","","","","",""
6.0,0.0418069027364254,0.0009064782827439483,"train",7340.0,"2021-11-20 17:32:27.046924","","","","","","",""
6.0,0.04900440201163292,0.0009101872974504838,"train",7360.0,"2021-11-20 17:32:30.180392","","","","","","",""
6.0,0.05002265423536301,0.0009138982870302119,"train",7380.0,"2021-11-20 17:32:33.327224","","","","","","",""
6.0,0.052351001650094986,0.0009176111950269174,"train",7400.0,"2021-11-20 17:32:36.464994","","","","","","",""
6.0,0.059700287878513336,0.0009213259649552001,"train",7420.0,"2021-11-20 17:32:39.588853","","","","","","",""
6.0,0.04917503520846367,0.0009250425403013339,"train",7440.0,"2021-11-20 17:32:43.279321","","","","","","",""
6.0,0.060246873646974564,0.0009287608645241262,"train",7460.0,"2021-11-20 17:32:46.417292","","","","","","",""
6.0,0.04425844922661781,0.0009324808810557777,"train",7480.0,"2021-11-20 17:32:49.544262","","","","","","",""
6.0,0.05895818769931793,0.0009362025333027448,"train",7500.0,"2021-11-20 17:32:52.716510","","","","","","",""
6.0,"","","train",7519.0,"2021-11-20 17:34:35.908681",0.575332896747435,0.5555691885639835,0.943157198513122,0.552267855330363,0.421039944963059,0.438042499526528,0.29092353510130436
6.0,"","","val",7519.0,"2021-11-20 17:35:02.138815",0.5560709729792416,0.5203116237999444,0.9340016296705471,0.5260480092363917,0.4026050240649033,0.4159711020732234,0.2721774836819937
7.0,0.062405847012996674,0.0009399257646465985,"train",7520.0,"2021-11-20 17:35:05.020244","","","","","","",""
7.0,0.05491218343377113,0.0009436505184448865,"train",7540.0,"2021-11-20 17:35:08.869110","","","","","","",""
7.0,0.045788198709487915,0.0009473767380319958,"train",7560.0,"2021-11-20 17:35:12.091515","","","","","","",""
7.0,0.06439899653196335,0.0009511043667200134,"train",7580.0,"2021-11-20 17:35:15.309215","","","","","","",""
7.0,0.041376370936632156,0.0009548333477995892,"train",7600.0,"2021-11-20 17:35:18.545727","","","","","","",""
7.0,0.05510054528713226,0.0009585636245407995,"train",7620.0,"2021-11-20 17:35:21.788365","","","","","","",""
7.0,0.05104438215494156,0.0009622951401940085,"train",7640.0,"2021-11-20 17:35:25.025020","","","","","","",""
7.0,0.043472565710544586,0.000966027837990733,"train",7660.0,"2021-11-20 17:35:28.754754","","","","","","",""
7.0,0.044485121965408325,0.0009697616611445057,"train",7680.0,"2021-11-20 17:35:31.890748","","","","","","",""
7.0,0.036141134798526764,0.0009734965528517389,"train",7700.0,"2021-11-20 17:35:35.019776","","","","","","",""
7.0,0.05275940150022507,0.0009772324562925877,"train",7720.0,"2021-11-20 17:35:38.134731","","","","","","",""
7.0,0.04954782873392105,0.0009809693146318175,"train",7740.0,"2021-11-20 17:35:41.248437","","","","","","",""
7.0,0.06199567764997482,0.0009847070710196648,"train",7760.0,"2021-11-20 17:35:44.366151","","","","","","",""
7.0,0.06449951231479645,0.0009884456685927043,"train",7780.0,"2021-11-20 17:35:47.985520","","","","","","",""
7.0,0.05433173105120659,0.0009921850504747143,"train",7800.0,"2021-11-20 17:35:51.109990","","","","","","",""
7.0,0.04116230830550194,0.0009959251597775403,"train",7820.0,"2021-11-20 17:35:54.256878","","","","","","",""
7.0,0.04869096353650093,0.0009996659396019616,"train",7840.0,"2021-11-20 17:35:57.436862","","","","","","",""
7.0,0.05854106321930885,0.001003407333038557,"train",7860.0,"2021-11-20 17:36:00.603791","","","","","","",""
7.0,0.05684313550591469,0.00100714928316857,"train",7880.0,"2021-11-20 17:36:03.800164","","","","","","",""
7.0,0.04852031171321869,0.001010891733064775,"train",7900.0,"2021-11-20 17:36:07.467862","","","","","","",""
7.0,0.04990455508232117,0.001014634625792343,"train",7920.0,"2021-11-20 17:36:10.765496","","","","","","",""
7.0,0.0466810017824173,0.0010183779044097092,"train",7940.0,"2021-11-20 17:36:13.951818","","","","","","",""
7.0,0.053598977625370026,0.0010221215119694373,"train",7960.0,"2021-11-20 17:36:17.124029","","","","","","",""
7.0,0.054958079010248184,0.0010258653915190858,"train",7980.0,"2021-11-20 17:36:20.296165","","","","","","",""
7.0,0.0705566555261612,0.0010296094861020778,"train",8000.0,"2021-11-20 17:36:23.456903","","","","","","",""
7.0,0.048111286014318466,0.0010333537387585629,"train",8020.0,"2021-11-20 17:36:27.177953","","","","","","",""
7.0,0.041896674782037735,0.0010370980925262867,"train",8040.0,"2021-11-20 17:36:30.324136","","","","","","",""
7.0,0.04411935806274414,0.0010408424904414563,"train",8060.0,"2021-11-20 17:36:33.508267","","","","","","",""
7.0,0.04392162710428238,0.001044586875539608,"train",8080.0,"2021-11-20 17:36:36.652620","","","","","","",""
7.0,0.05036526173353195,0.0010483311908564717,"train",8100.0,"2021-11-20 17:36:39.793541","","","","","","",""
7.0,0.041091032326221466,0.0010520753794288399,"train",8120.0,"2021-11-20 17:36:43.415961","","","","","","",""
7.0,0.0537073090672493,0.001055819384295433,"train",8140.0,"2021-11-20 17:36:46.562746","","","","","","",""
7.0,0.04811648279428482,0.0010595631484977667,"train",8160.0,"2021-11-20 17:36:49.693178","","","","","","",""
7.0,0.04600340873003006,0.001063306615081017,"train",8180.0,"2021-11-20 17:36:52.815310","","","","","","",""
7.0,0.05564136058092117,0.0010670497270948882,"train",8200.0,"2021-11-20 17:36:55.942714","","","","","","",""
7.0,0.059632595628499985,0.001070792427594479,"train",8220.0,"2021-11-20 17:36:59.060931","","","","","","",""
7.0,0.04194917157292366,0.001074534659641148,"train",8240.0,"2021-11-20 17:37:02.750714","","","","","","",""
7.0,0.05643212050199509,0.0010782763663033806,"train",8260.0,"2021-11-20 17:37:05.886324","","","","","","",""
7.0,0.04094318300485611,0.0010820174906576554,"train",8280.0,"2021-11-20 17:37:09.060595","","","","","","",""
7.0,0.05065589025616646,0.0010857579757893097,"train",8300.0,"2021-11-20 17:37:12.203330","","","","","","",""
7.0,0.055901650339365005,0.001089497764793405,"train",8320.0,"2021-11-20 17:37:15.342697","","","","","","",""
7.0,0.04134238883852959,0.0010932368007755939,"train",8340.0,"2021-11-20 17:37:18.521384","","","","","","",""
7.0,0.06162383407354355,0.001096975026852984,"train",8360.0,"2021-11-20 17:37:22.249955","","","","","","",""
7.0,0.04043852910399437,0.0011007123861550051,"train",8380.0,"2021-11-20 17:37:25.471040","","","","","","",""
7.0,0.05166207253932953,0.0011044488218242728,"train",8400.0,"2021-11-20 17:37:28.689509","","","","","","",""
7.0,0.06238650903105736,0.0011081842770174545,"train",8420.0,"2021-11-20 17:37:31.913282","","","","","","",""
7.0,0.05050111189484596,0.0011119186949061339,"train",8440.0,"2021-11-20 17:37:35.119896","","","","","","",""
7.0,0.051830779761075974,0.0011156520186776748,"train",8460.0,"2021-11-20 17:37:38.359140","","","","","","",""
7.0,0.056202482432127,0.001119384191536087,"train",8480.0,"2021-11-20 17:37:42.097367","","","","","","",""
7.0,0.060169871896505356,0.001123115156702889,"train",8500.0,"2021-11-20 17:37:45.368890","","","","","","",""
7.0,0.05808719992637634,0.0011268448574179722,"train",8520.0,"2021-11-20 17:37:48.563355","","","","","","",""
7.0,0.05207102745771408,0.0011305732369404644,"train",8540.0,"2021-11-20 17:37:51.764911","","","","","","",""
7.0,0.05438686162233353,0.0011343002385495933,"train",8560.0,"2021-11-20 17:37:54.891346","","","","","","",""
7.0,0.061790432780981064,0.0011380258055455482,"train",8580.0,"2021-11-20 17:37:58.516710","","","","","","",""
7.0,"","","train",8593.0,"2021-11-20 17:39:36.171046",0.5886196609182857,0.5760707760572937,0.94528475871056,0.5867803002056801,0.46803550750144585,0.48089008249575804,0.3152542706804283
7.0,"","","val",8593.0,"2021-11-20 17:40:03.220208",0.5720166995245274,0.5371848534715288,0.9366014466495588,0.5628376522702605,0.4486170358035149,0.4568849248022987,0.2942626127422334
8.0,0.06407374143600464,0.0011417498812503453,"train",8600.0,"2021-11-20 17:40:07.077176","","","","","","",""
8.0,0.04429871588945389,0.0011454724090086865,"train",8620.0,"2021-11-20 17:40:10.259807","","","","","","",""
8.0,0.057861171662807465,0.0011491933321888235,"train",8640.0,"2021-11-20 17:40:13.431013","","","","","","",""
8.0,0.05405987426638603,0.0011529125941834196,"train",8660.0,"2021-11-20 17:40:16.634844","","","","","","",""
8.0,0.04575486481189728,0.001156630138410409,"train",8680.0,"2021-11-20 17:40:19.812158","","","","","","",""
8.0,0.04474937915802002,0.0011603459083138596,"train",8700.0,"2021-11-20 17:40:23.620780","","","","","","",""
8.0,0.051156096160411835,0.001164059847364832,"train",8720.0,"2021-11-20 17:40:26.851101","","","","","","",""
8.0,0.047550901770591736,0.0011677718990622402,"train",8740.0,"2021-11-20 17:40:30.093685","","","","","","",""
8.0,0.05066554620862007,0.001171482006933711,"train",8760.0,"2021-11-20 17:40:33.281270","","","","","","",""
8.0,0.04679059237241745,0.0011751901145364433,"train",8780.0,"2021-11-20 17:40:36.483394","","","","","","",""
8.0,0.05106278881430626,0.0011788961654580661,"train",8800.0,"2021-11-20 17:40:39.631504","","","","","","",""
8.0,0.05927853286266327,0.0011826001033174971,"train",8820.0,"2021-11-20 17:40:43.264146","","","","","","",""
8.0,0.040029555559158325,0.0011863018717658022,"train",8840.0,"2021-11-20 17:40:46.445779","","","","","","",""
8.0,0.05964294821023941,0.0011900014144870488,"train",8860.0,"2021-11-20 17:40:49.627724","","","","","","",""
8.0,0.04521079361438751,0.0011936986751991657,"train",8880.0,"2021-11-20 17:40:52.814303","","","","","","",""
8.0,0.056478649377822876,0.0011973935976547995,"train",8900.0,"2021-11-20 17:40:55.989374","","","","","","",""
8.0,0.04652070254087448,0.0012010861256421686,"train",8920.0,"2021-11-20 17:40:59.159567","","","","","","",""
8.0,0.052910108119249344,0.0012047762029859172,"train",8940.0,"2021-11-20 17:41:02.894856","","","","","","",""
8.0,0.0398513562977314,0.0012084637735479751,"train",8960.0,"2021-11-20 17:41:06.070677","","","","","","",""
8.0,0.045444782823324203,0.0012121487812284063,"train",8980.0,"2021-11-20 17:41:09.253593","","","","","","",""
8.0,0.03741393983364105,0.0012158311699662643,"train",9000.0,"2021-11-20 17:41:12.456606","","","","","","",""
8.0,0.03843291476368904,0.0012195108837404472,"train",9020.0,"2021-11-20 17:41:15.683729","","","","","","",""
8.0,0.056369297206401825,0.0012231878665705453,"train",9040.0,"2021-11-20 17:41:18.882406","","","","","","",""
8.0,0.048773154616355896,0.001226862062517698,"train",9060.0,"2021-11-20 17:41:22.519706","","","","","","",""
8.0,0.04553240165114403,0.001230533415685441,"train",9080.0,"2021-11-20 17:41:25.645485","","","","","","",""
8.0,0.06330369412899017,0.001234201870220557,"train",9100.0,"2021-11-20 17:41:28.858429","","","","","","",""
8.0,0.043362826108932495,0.0012378673703139283,"train",9120.0,"2021-11-20 17:41:32.074294","","","","","","",""
8.0,0.049117155373096466,0.0012415298602013831,"train",9140.0,"2021-11-20 17:41:35.267447","","","","","","",""
8.0,0.038330078125,0.0012451892841645433,"train",9160.0,"2021-11-20 17:41:38.916003","","","","","","",""
8.0,0.054115910083055496,0.0012488455865316754,"train",9180.0,"2021-11-20 17:41:42.081787","","","","","","",""
8.0,0.04262023791670799,0.001252498711678535,"train",9200.0,"2021-11-20 17:41:45.219978","","","","","","",""
8.0,0.05501646548509598,0.0012561486040292124,"train",9220.0,"2021-11-20 17:41:48.365376","","","","","","",""
8.0,0.0412115715444088,0.0012597952080569811,"train",9240.0,"2021-11-20 17:41:51.556531","","","","","","",""
8.0,0.05430511385202408,0.001263438468285139,"train",9260.0,"2021-11-20 17:41:55.288383","","","","","","",""
8.0,0.05960499122738838,0.0012670783292878544,"train",9280.0,"2021-11-20 17:41:58.515317","","","","","","",""
8.0,0.061764687299728394,0.0012707147356910105,"train",9300.0,"2021-11-20 17:42:01.814913","","","","","","",""
8.0,0.0426916629076004,0.0012743476321730438,"train",9320.0,"2021-11-20 17:42:05.124262","","","","","","",""
8.0,0.04221083223819733,0.0012779769634657895,"train",9340.0,"2021-11-20 17:42:08.397444","","","","","","",""
8.0,0.049029067158699036,0.001281602674355321,"train",9360.0,"2021-11-20 17:42:12.079094","","","","","","",""
8.0,0.04647170379757881,0.0012852247096827893,"train",9380.0,"2021-11-20 17:42:15.304098","","","","","","",""
8.0,0.04406866803765297,0.0012888430143452622,"train",9400.0,"2021-11-20 17:42:18.541873","","","","","","",""
8.0,0.04761233925819397,0.0012924575332965644,"train",9420.0,"2021-11-20 17:42:21.735341","","","","","","",""
8.0,0.05147844925522804,0.0012960682115481124,"train",9440.0,"2021-11-20 17:42:24.993706","","","","","","",""
8.0,0.045519307255744934,0.0012996749941697528,"train",9460.0,"2021-11-20 17:42:28.744340","","","","","","",""
8.0,0.051574576646089554,0.0013032778262905972,"train",9480.0,"2021-11-20 17:42:31.978499","","","","","","",""
8.0,0.04136478900909424,0.001306876653099857,"train",9500.0,"2021-11-20 17:42:35.185530","","","","","","",""
8.0,0.05087772384285927,0.0013104714198476778,"train",9520.0,"2021-11-20 17:42:38.404116","","","","","","",""
8.0,0.05011795833706856,0.0013140620718459718,"train",9540.0,"2021-11-20 17:42:41.608449","","","","","","",""
8.0,0.07009527832269669,0.0013176485544692499,"train",9560.0,"2021-11-20 17:42:45.332531","","","","","","",""
8.0,0.06308771669864655,0.0013212308131554519,"train",9580.0,"2021-11-20 17:42:48.514033","","","","","","",""
8.0,0.05525887757539749,0.0013248087934067793,"train",9600.0,"2021-11-20 17:42:51.703370","","","","","","",""
8.0,0.04923835024237633,0.0013283824407905212,"train",9620.0,"2021-11-20 17:42:54.924369","","","","","","",""
8.0,0.0442219153046608,0.001331951700939883,"train",9640.0,"2021-11-20 17:42:58.166457","","","","","","",""
8.0,0.05382942408323288,0.001335516519554816,"train",9660.0,"2021-11-20 17:43:01.948216","","","","","","",""
8.0,"","","train",9667.0,"2021-11-20 17:44:37.693720",0.600392927308448,0.6003770898656383,0.9519757169779712,0.6296421615724915,0.4931624202264543,0.5146484747462249,0.33446275054227403
8.0,"","","val",9667.0,"2021-11-20 17:45:03.266548",0.5746260002319379,0.5544826572112485,0.9394496646630981,0.5954883968441381,0.4605714433703264,0.48037342734258665,0.3032190279803081
9.0,0.03387812525033951,0.0013390768424028409,"train",9680.0,"2021-11-20 17:45:08.026765","","","","","","",""
9.0,0.050840526819229126,0.0013426326153198726,"train",9700.0,"2021-11-20 17:45:11.205146","","","","","","",""
9.0,0.051063813269138336,0.0013461837842110472,"train",9720.0,"2021-11-20 17:45:14.366581","","","","","","",""
9.0,0.043459296226501465,0.0013497302950515413,"train",9740.0,"2021-11-20 17:45:17.533959","","","","","","",""
9.0,0.04609087482094765,0.001353272093887396,"train",9760.0,"2021-11-20 17:45:21.253164","","","","","","",""
9.0,0.045681048184633255,0.0013568091268363384,"train",9780.0,"2021-11-20 17:45:24.403146","","","","","","",""
9.0,0.04348878934979439,0.001360341340088599,"train",9800.0,"2021-11-20 17:45:27.557324","","","","","","",""
9.0,0.043350495398044586,0.0013638686799077317,"train",9820.0,"2021-11-20 17:45:30.686070","","","","","","",""
9.0,0.05076735466718674,0.001367391092631432,"train",9840.0,"2021-11-20 17:45:33.828247","","","","","","",""
9.0,0.0370115302503109,0.0013709085246723508,"train",9860.0,"2021-11-20 17:45:37.469960","","","","","","",""
9.0,0.049555111676454544,0.0013744209225189138,"train",9880.0,"2021-11-20 17:45:40.622089","","","","","","",""
9.0,0.048849593847990036,0.0013779282327361314,"train",9900.0,"2021-11-20 17:45:43.759995","","","","","","",""
9.0,0.052475716918706894,0.0013814304019664136,"train",9920.0,"2021-11-20 17:45:46.922821","","","","","","",""
9.0,0.04222763702273369,0.001384927376930382,"train",9940.0,"2021-11-20 17:45:50.129405","","","","","","",""
9.0,0.04577688127756119,0.0013884191044276797,"train",9960.0,"2021-11-20 17:45:53.836003","","","","","","",""
9.0,0.04599793627858162,0.0013919055313377806,"train",9980.0,"2021-11-20 17:45:56.973607","","","","","","",""
9.0,0.05040949210524559,0.001395386604620798,"train",10000.0,"2021-11-20 17:46:00.088502","","","","","","",""
9.0,0.05814652889966965,0.001398862271318292,"train",10020.0,"2021-11-20 17:46:03.212792","","","","","","",""
9.0,0.041205234825611115,0.0014023324785540719,"train",10040.0,"2021-11-20 17:46:06.366288","","","","","","",""
9.0,0.045011475682258606,0.0014057971735350065,"train",10060.0,"2021-11-20 17:46:10.010978","","","","","","",""
9.0,0.04405207931995392,0.001409256303551822,"train",10080.0,"2021-11-20 17:46:13.196269","","","","","","",""
9.0,0.04115372151136398,0.0014127098159799054,"train",10100.0,"2021-11-20 17:46:16.322606","","","","","","",""
9.0,0.03467205911874771,0.001416157658280107,"train",10120.0,"2021-11-20 17:46:19.508842","","","","","","",""
9.0,0.05157442390918732,0.001419599777999537,"train",10140.0,"2021-11-20 17:46:23.109567","","","","","","",""
9.0,0.046735458076000214,0.0014230361227723651,"train",10160.0,"2021-11-20 17:46:26.221074","","","","","","",""
9.0,0.036134105175733566,0.0014264666403206172,"train",10180.0,"2021-11-20 17:46:29.335599","","","","","","",""
9.0,0.04723341017961502,0.0014298912784549691,"train",10200.0,"2021-11-20 17:46:32.444254","","","","","","",""
9.0,0.026393847540020943,0.0014333099850755418,"train",10220.0,"2021-11-20 17:46:35.566007","","","","","","",""
9.0,0.045549966394901276,0.001436722708172695,"train",10240.0,"2021-11-20 17:46:39.179914","","","","","","",""
9.0,0.03476015850901604,0.0014401293958278168,"train",10260.0,"2021-11-20 17:46:42.302524","","","","","","",""
9.0,0.04342984780669212,0.0014435299962141128,"train",10280.0,"2021-11-20 17:46:45.458121","","","","","","",""
9.0,0.05260206758975983,0.001446924457597397,"train",10300.0,"2021-11-20 17:46:48.598947","","","","","","",""
9.0,0.04659266024827957,0.0014503127283368776,"train",10320.0,"2021-11-20 17:46:51.724783","","","","","","",""
9.0,0.04343610256910324,0.001453694756885942,"train",10340.0,"2021-11-20 17:46:55.422603","","","","","","",""
9.0,0.05000327527523041,0.001457070491792942,"train",10360.0,"2021-11-20 17:46:58.574564","","","","","","",""
9.0,0.036623477935791016,0.001460439881701976,"train",10380.0,"2021-11-20 17:47:01.708454","","","","","","",""
9.0,0.03151537850499153,0.0014638028753536703,"train",10400.0,"2021-11-20 17:47:04.860740","","","","","","",""
9.0,0.055988654494285583,0.00146715942158596,"train",10420.0,"2021-11-20 17:47:07.975597","","","","","","",""
9.0,0.0494762659072876,0.0014705094693348644,"train",10440.0,"2021-11-20 17:47:11.599905","","","","","","",""
9.0,0.03597113490104675,0.001473852967635268,"train",10460.0,"2021-11-20 17:47:14.783664","","","","","","",""
9.0,0.04966333508491516,0.001477189865621693,"train",10480.0,"2021-11-20 17:47:17.935460","","","","","","",""
9.0,0.055983610451221466,0.0014805201125290728,"train",10500.0,"2021-11-20 17:47:21.138688","","","","","","",""
9.0,0.0536261722445488,0.0014838436576935271,"train",10520.0,"2021-11-20 17:47:24.345292","","","","","","",""
9.0,0.04132279381155968,0.0014871604505531295,"train",10540.0,"2021-11-20 17:47:27.947867","","","","","","",""
9.0,0.037276338785886765,0.0014904704406486786,"train",10560.0,"2021-11-20 17:47:31.086308","","","","","","",""
9.0,0.052706871181726456,0.001493773577624465,"train",10580.0,"2021-11-20 17:47:34.232273","","","","","","",""
9.0,0.06720824539661407,0.0014970698112290383,"train",10600.0,"2021-11-20 17:47:37.368313","","","","","","",""
9.0,0.054692141711711884,0.0015003590913159695,"train",10620.0,"2021-11-20 17:47:40.510792","","","","","","",""
9.0,0.05425948649644852,0.0015036413678446159,"train",10640.0,"2021-11-20 17:47:44.100262","","","","","","",""
9.0,0.04011723771691322,0.0015069165908808825,"train",10660.0,"2021-11-20 17:47:47.234595","","","","","","",""
9.0,0.04478292539715767,0.0015101847105979792,"train",10680.0,"2021-11-20 17:47:50.353507","","","","","","",""
9.0,0.058990977704524994,0.0015134456772771814,"train",10700.0,"2021-11-20 17:47:53.472207","","","","","","",""
9.0,0.05102454125881195,0.001516699441308586,"train",10720.0,"2021-11-20 17:47:56.612898","","","","","","",""
9.0,0.0644034668803215,0.0015199459531918644,"train",10740.0,"2021-11-20 17:48:00.245352","","","","","","",""
9.0,"","","train",10741.0,"2021-11-20 17:49:39.113562",0.6077857818525795,0.6227898226612818,0.9570079938958856,0.6280924812571517,0.5064767233866665,0.5246932169192482,0.3485107848953507
9.0,"","","val",10741.0,"2021-11-20 17:50:04.788276",0.5807143685492288,0.5714749293287859,0.9448341933445281,0.5915981682471031,0.4741092951043525,0.48904458172454934,0.3134813969057507
10.0,0.04594762250781059,0.001523185163537017,"train",10760.0,"2021-11-20 17:50:10.608858","","","","","","",""
10.0,0.041348423808813095,0.0015264170230651257,"train",10780.0,"2021-11-20 17:50:13.847330","","","","","","",""
10.0,0.052675679326057434,0.0015296414826091002,"train",10800.0,"2021-11-20 17:50:17.051796","","","","","","",""
10.0,0.04808248579502106,0.001532858493114429,"train",10820.0,"2021-11-20 17:50:20.198842","","","","","","",""
10.0,0.04326291382312775,0.0015360680056399256,"train",10840.0,"2021-11-20 17:50:23.938576","","","","","","",""
10.0,0.03774910047650337,0.00153926997135847,"train",10860.0,"2021-11-20 17:50:27.158539","","","","","","",""
10.0,0.044357944279909134,0.0015424643415577555,"train",10880.0,"2021-11-20 17:50:30.303536","","","","","","",""
10.0,0.048128750175237656,0.0015456510676410279,"train",10900.0,"2021-11-20 17:50:33.436419","","","","","","",""
10.0,0.04230732470750809,0.001548830101127823,"train",10920.0,"2021-11-20 17:50:36.692452","","","","","","",""
10.0,0.05749253183603287,0.001552001393654708,"train",10940.0,"2021-11-20 17:50:40.434150","","","","","","",""
10.0,0.05334779992699623,0.0015551648969760147,"train",10960.0,"2021-11-20 17:50:43.631412","","","","","","",""
10.0,0.05203128606081009,0.0015583205629645732,"train",10980.0,"2021-11-20 17:50:46.791457","","","","","","",""
10.0,0.03719186410307884,0.0015614683436124463,"train",11000.0,"2021-11-20 17:50:49.960361","","","","","","",""
10.0,0.053758375346660614,0.0015646081910316572,"train",11020.0,"2021-11-20 17:50:53.568584","","","","","","",""
10.0,0.045316990464925766,0.00156774005745492,"train",11040.0,"2021-11-20 17:50:56.685178","","","","","","",""
10.0,0.03778402879834175,0.001570863895236366,"train",11060.0,"2021-11-20 17:50:59.819130","","","","","","",""
10.0,0.05605899170041084,0.001573979656852267,"train",11080.0,"2021-11-20 17:51:03.064109","","","","","","",""
10.0,0.046067625284194946,0.0015770872949017606,"train",11100.0,"2021-11-20 17:51:06.233008","","","","","","",""
10.0,0.04696604236960411,0.0015801867621075705,"train",11120.0,"2021-11-20 17:51:10.005724","","","","","","",""
10.0,0.04251072183251381,0.001583278011316724,"train",11140.0,"2021-11-20 17:51:13.227504","","","","","","",""
10.0,0.059494294226169586,0.0015863609955012725,"train",11160.0,"2021-11-20 17:51:16.446496","","","","","","",""
10.0,0.04839077591896057,0.0015894356677590045,"train",11180.0,"2021-11-20 17:51:19.605303","","","","","","",""
10.0,0.03863082453608513,0.0015925019813141596,"train",11200.0,"2021-11-20 17:51:22.756438","","","","","","",""
10.0,0.04905322939157486,0.0015955598895181413,"train",11220.0,"2021-11-20 17:51:26.384903","","","","","","",""
10.0,0.039071422070264816,0.0015986093458502254,"train",11240.0,"2021-11-20 17:51:29.517592","","","","","","",""
10.0,0.05428830534219742,0.001601650303918267,"train",11260.0,"2021-11-20 17:51:32.639510","","","","","","",""
10.0,0.04511145502328873,0.0016046827174594105,"train",11280.0,"2021-11-20 17:51:35.761585","","","","","","",""
10.0,0.03830067440867424,0.001607706540340787,"train",11300.0,"2021-11-20 17:51:38.949531","","","","","","",""
10.0,0.04203299432992935,0.0016107217265602207,"train",11320.0,"2021-11-20 17:51:42.601712","","","","","","",""
10.0,0.03734396770596504,0.0016137282302469288,"train",11340.0,"2021-11-20 17:51:45.776411","","","","","","",""
10.0,0.03973373770713806,0.0016167260056622161,"train",11360.0,"2021-11-20 17:51:48.983192","","","","","","",""
10.0,0.058643873780965805,0.001619715007200173,"train",11380.0,"2021-11-20 17:51:52.191053","","","","","","",""
10.0,0.03830592334270477,0.0016226951893883704,"train",11400.0,"2021-11-20 17:51:55.371198","","","","","","",""
10.0,0.03893163800239563,0.0016256665068885498,"train",11420.0,"2021-11-20 17:51:59.048103","","","","","","",""
10.0,0.04430443048477173,0.001628628914497312,"train",11440.0,"2021-11-20 17:52:02.230966","","","","","","",""
10.0,0.05250142514705658,0.001631582367146808,"train",11460.0,"2021-11-20 17:52:05.434239","","","","","","",""
10.0,0.04587509110569954,0.0016345268199054223,"train",11480.0,"2021-11-20 17:52:08.581003","","","","","","",""
10.0,0.06230560690164566,0.001637462227978456,"train",11500.0,"2021-11-20 17:52:11.774103","","","","","","",""
10.0,0.04741324856877327,0.0016403885467088102,"train",11520.0,"2021-11-20 17:52:15.458974","","","","","","",""
10.0,0.048838600516319275,0.0016433057315776653,"train",11540.0,"2021-11-20 17:52:18.595870","","","","","","",""
10.0,0.03794063255190849,0.0016462137382051555,"train",11560.0,"2021-11-20 17:52:21.831416","","","","","","",""
10.0,0.05802061781287193,0.0016491125223510469,"train",11580.0,"2021-11-20 17:52:24.999210","","","","","","",""
10.0,0.033960841596126556,0.00165200203991541,"train",11600.0,"2021-11-20 17:52:28.143176","","","","","","",""
10.0,0.030868206173181534,0.001654882246939289,"train",11620.0,"2021-11-20 17:52:31.865141","","","","","","",""
10.0,0.061472002416849136,0.0016577530996053724,"train",11640.0,"2021-11-20 17:52:35.027355","","","","","","",""
10.0,0.05196954682469368,0.0016606145542386595,"train",11660.0,"2021-11-20 17:52:38.184004","","","","","","",""
10.0,0.04491952806711197,0.0016634665673071224,"train",11680.0,"2021-11-20 17:52:41.336793","","","","","","",""
10.0,0.05155918374657631,0.0016663090954223718,"train",11700.0,"2021-11-20 17:52:44.575861","","","","","","",""
10.0,0.05040786415338516,0.0016691420953403148,"train",11720.0,"2021-11-20 17:52:48.269072","","","","","","",""
10.0,0.04579486325383186,0.0016719655239618128,"train",11740.0,"2021-11-20 17:52:51.437919","","","","","","",""
10.0,0.07008294761180878,0.0016747793383333387,"train",11760.0,"2021-11-20 17:52:54.676661","","","","","","",""
10.0,0.05214514210820198,0.0016775834956476293,"train",11780.0,"2021-11-20 17:52:57.880511","","","","","","",""
10.0,0.03784030303359032,0.0016803779532443355,"train",11800.0,"2021-11-20 17:53:01.247988","","","","","","",""
10.0,"","","train",11815.0,"2021-11-20 17:54:41.743245",0.6179727861456742,0.6353544709170001,0.9583697474519168,0.6354632302231294,0.5174001054972298,0.5416174018804398,0.3575538134587775
10.0,"","","val",11815.0,"2021-11-20 17:55:08.813601",0.58407746723878,0.5768524066662805,0.9452365520519402,0.5924647332973705,0.4775040799877476,0.4995788670072099,0.315663138847621
11.0,0.04737597331404686,0.0016831626686106733,"train",11820.0,"2021-11-20 17:55:12.349636","","","","","","",""
11.0,0.046062156558036804,0.0016859375993820704,"train",11840.0,"2021-11-20 17:55:15.533906","","","","","","",""
11.0,0.04847044497728348,0.0016887027033428083,"train",11860.0,"2021-11-20 17:55:18.653417","","","","","","",""
11.0,0.05033092945814133,0.0016914579384266673,"train",11880.0,"2021-11-20 17:55:21.767970","","","","","","",""
11.0,0.04113777354359627,0.0016942032627175658,"train",11900.0,"2021-11-20 17:55:25.512097","","","","","","",""
11.0,0.04332973435521126,0.0016969386344501964,"train",11920.0,"2021-11-20 17:55:28.680283","","","","","","",""
11.0,0.04376208037137985,0.0016996640120106633,"train",11940.0,"2021-11-20 17:55:31.833165","","","","","","",""
11.0,0.04563381150364876,0.0017023793539371146,"train",11960.0,"2021-11-20 17:55:35.005314","","","","","","",""
11.0,0.048249322921037674,0.0017050846189203721,"train",11980.0,"2021-11-20 17:55:38.154581","","","","","","",""
11.0,0.03568459302186966,0.0017077797658045617,"train",12000.0,"2021-11-20 17:55:41.889798","","","","","","",""
11.0,0.04614587128162384,0.001710464753587738,"train",12020.0,"2021-11-20 17:55:45.130854","","","","","","",""
11.0,0.030491413548588753,0.001713139541422509,"train",12040.0,"2021-11-20 17:55:48.379877","","","","","","",""
11.0,0.051290687173604965,0.0017158040886166564,"train",12060.0,"2021-11-20 17:55:51.591290","","","","","","",""
11.0,0.043357718735933304,0.0017184583546337555,"train",12080.0,"2021-11-20 17:55:54.811588","","","","","","",""
11.0,0.045140571892261505,0.001721102299093792,"train",12100.0,"2021-11-20 17:55:58.565792","","","","","","",""
11.0,0.057499393820762634,0.0017237358817737759,"train",12120.0,"2021-11-20 17:56:01.794513","","","","","","",""
11.0,0.038154974579811096,0.0017263590626083532,"train",12140.0,"2021-11-20 17:56:05.008758","","","","","","",""
11.0,0.05340345576405525,0.0017289718016904171,"train",12160.0,"2021-11-20 17:56:08.279461","","","","","","",""
11.0,0.04814967140555382,0.0017315740592717122,"train",12180.0,"2021-11-20 17:56:11.414463","","","","","","",""
11.0,0.0354936420917511,0.0017341657957634408,"train",12200.0,"2021-11-20 17:56:15.058671","","","","","","",""
11.0,0.04196426272392273,0.0017367469717368671,"train",12220.0,"2021-11-20 17:56:18.246600","","","","","","",""
11.0,0.0471622496843338,0.001739317547923913,"train",12240.0,"2021-11-20 17:56:21.424857","","","","","","",""
11.0,0.04252925515174866,0.0017418774852177585,"train",12260.0,"2021-11-20 17:56:24.616760","","","","","","",""
11.0,0.030563341453671455,0.001744426744673436,"train",12280.0,"2021-11-20 17:56:27.844305","","","","","","",""
11.0,0.04707565903663635,0.001746965287508422,"train",12300.0,"2021-11-20 17:56:31.576563","","","","","","",""
11.0,0.04534025490283966,0.0017494930751032276,"train",12320.0,"2021-11-20 17:56:34.712296","","","","","","",""
11.0,0.054147399961948395,0.001752010069001987,"train",12340.0,"2021-11-20 17:56:37.831339","","","","","","",""
11.0,0.06085944548249245,0.0017545162309130404,"train",12360.0,"2021-11-20 17:56:40.958518","","","","","","",""
11.0,0.03500809893012047,0.001757011522709518,"train",12380.0,"2021-11-20 17:56:44.107157","","","","","","",""
11.0,0.03270290046930313,0.001759495906429921,"train",12400.0,"2021-11-20 17:56:47.753058","","","","","","",""
11.0,0.0468008853495121,0.0017619693442786962,"train",12420.0,"2021-11-20 17:56:50.925492","","","","","","",""
11.0,0.04624558240175247,0.001764431798626813,"train",12440.0,"2021-11-20 17:56:54.151292","","","","","","",""
11.0,0.04009508341550827,0.0017668832320123372,"train",12460.0,"2021-11-20 17:56:57.305448","","","","","","",""
11.0,0.04455994814634323,0.0017693236071409974,"train",12480.0,"2021-11-20 17:57:00.476609","","","","","","",""
11.0,0.04477023705840111,0.0017717528868867543,"train",12500.0,"2021-11-20 17:57:04.161182","","","","","","",""
11.0,0.05309680104255676,0.001774171034292367,"train",12520.0,"2021-11-20 17:57:07.334618","","","","","","",""
11.0,0.04799389839172363,0.0017765780125699525,"train",12540.0,"2021-11-20 17:57:10.500339","","","","","","",""
11.0,0.03910650685429573,0.0017789737851015462,"train",12560.0,"2021-11-20 17:57:13.672470","","","","","","",""
11.0,0.05182497948408127,0.0017813583154396603,"train",12580.0,"2021-11-20 17:57:16.831566","","","","","","",""
11.0,0.03759703040122986,0.001783731567307837,"train",12600.0,"2021-11-20 17:57:20.461513","","","","","","",""
11.0,0.0367489755153656,0.0017860935046012001,"train",12620.0,"2021-11-20 17:57:23.608625","","","","","","",""
11.0,0.03636178374290466,0.0017884440913870057,"train",12640.0,"2021-11-20 17:57:26.764936","","","","","","",""
11.0,0.03867049515247345,0.0017907832919051877,"train",12660.0,"2021-11-20 17:57:29.927615","","","","","","",""
11.0,0.04004288837313652,0.0017931110705689019,"train",12680.0,"2021-11-20 17:57:33.075533","","","","","","",""
11.0,0.0402776300907135,0.0017954273919650677,"train",12700.0,"2021-11-20 17:57:36.809454","","","","","","",""
11.0,0.06106331944465637,0.0017977322208549075,"train",12720.0,"2021-11-20 17:57:39.950325","","","","","","",""
11.0,0.047047700732946396,0.0018000255221744808,"train",12740.0,"2021-11-20 17:57:43.200042","","","","","","",""
11.0,0.0363105833530426,0.0018023072610352197,"train",12760.0,"2021-11-20 17:57:46.439126","","","","","","",""
11.0,0.04537518322467804,0.0018045774027244592,"train",12780.0,"2021-11-20 17:57:49.681729","","","","","","",""
11.0,0.04543079063296318,0.0018068359127059648,"train",12800.0,"2021-11-20 17:57:53.485161","","","","","","",""
11.0,0.04684022068977356,0.0018090827566204569,"train",12820.0,"2021-11-20 17:57:56.726829","","","","","","",""
11.0,0.0340333990752697,0.0018113179002861364,"train",12840.0,"2021-11-20 17:58:00.001888","","","","","","",""
11.0,0.0421474352478981,0.0018135413096992024,"train",12860.0,"2021-11-20 17:58:03.226850","","","","","","",""
11.0,0.05458512902259827,0.0018157529510343694,"train",12880.0,"2021-11-20 17:58:06.933094","","","","","","",""
11.0,"","","train",12889.0,"2021-11-20 17:59:41.348245",0.6361638652404861,0.6618764429812211,0.9635189247976723,0.6691867525171757,0.5659688043086383,0.5883089202865928,0.3902952554728815
11.0,"","","val",12889.0,"2021-11-20 18:00:06.705063",0.6018207120491709,0.6003344117889418,0.9492381660247167,0.6228620720986244,0.5183229983454921,0.5395932582479246,0.3407037520047715
12.0,0.03937976434826851,0.0018179527906453834,"train",12900.0,"2021-11-20 18:00:11.109619","","","","","","",""
12.0,0.04074367508292198,0.0018201407950655334,"train",12920.0,"2021-11-20 18:00:14.393261","","","","","","",""
12.0,0.037610240280628204,0.0018223169310081588,"train",12940.0,"2021-11-20 18:00:17.606057","","","","","","",""
12.0,0.046651534736156464,0.0018244811653671583,"train",12960.0,"2021-11-20 18:00:20.798585","","","","","","",""
12.0,0.04764533042907715,0.001826633465217492,"train",12980.0,"2021-11-20 18:00:24.595450","","","","","","",""
12.0,0.04146430268883705,0.0018287737978156821,"train",13000.0,"2021-11-20 18:00:27.787936","","","","","","",""
12.0,0.04621097818017006,0.0018309021306003126,"train",13020.0,"2021-11-20 18:00:30.961784","","","","","","",""
12.0,0.04373365268111229,0.0018330184311925232,"train",13040.0,"2021-11-20 18:00:34.082091","","","","","","",""
12.0,0.03658049553632736,0.001835122667396502,"train",13060.0,"2021-11-20 18:00:37.319942","","","","","","",""
12.0,0.05888303741812706,0.0018372148071999763,"train",13080.0,"2021-11-20 18:00:41.074090","","","","","","",""
12.0,0.04533281922340393,0.001839294818774699,"train",13100.0,"2021-11-20 18:00:44.277413","","","","","","",""
12.0,0.03300986811518669,0.0018413626704769318,"train",13120.0,"2021-11-20 18:00:47.480292","","","","","","",""
12.0,0.04958281293511391,0.0018434183308479286,"train",13140.0,"2021-11-20 18:00:50.732312","","","","","","",""
12.0,0.0350150465965271,0.001845461768614413,"train",13160.0,"2021-11-20 18:00:53.958179","","","","","","",""
12.0,0.0485004186630249,0.0018474929526890534,"train",13180.0,"2021-11-20 18:00:57.672751","","","","","","",""
12.0,0.03517250344157219,0.0018495118521709374,"train",13200.0,"2021-11-20 18:01:00.877616","","","","","","",""
12.0,0.04361269250512123,0.0018515184363460412,"train",13220.0,"2021-11-20 18:01:04.100808","","","","","","",""
12.0,0.053538478910923004,0.0018535126746876964,"train",13240.0,"2021-11-20 18:01:07.381203","","","","","","",""
12.0,0.05895465239882469,0.001855494536857055,"train",13260.0,"2021-11-20 18:01:10.596375","","","","","","",""
12.0,0.044540151953697205,0.001857463992703551,"train",13280.0,"2021-11-20 18:01:14.325523","","","","","","",""
12.0,0.0487336665391922,0.001859421012265359,"train",13300.0,"2021-11-20 18:01:17.517423","","","","","","",""
12.0,0.038852062076330185,0.0018613655657698492,"train",13320.0,"2021-11-20 18:01:20.718058","","","","","","",""
12.0,0.04438731074333191,0.0018632976236340423,"train",13340.0,"2021-11-20 18:01:23.941907","","","","","","",""
12.0,0.03386803716421127,0.0018652171564650568,"train",13360.0,"2021-11-20 18:01:27.113324","","","","","","",""
12.0,0.049361664801836014,0.0018671241350605588,"train",13380.0,"2021-11-20 18:01:30.774235","","","","","","",""
12.0,0.04454744607210159,0.001869018530409205,"train",13400.0,"2021-11-20 18:01:34.007530","","","","","","",""
12.0,0.055363308638334274,0.0018709003136910837,"train",13420.0,"2021-11-20 18:01:37.270983","","","","","","",""
12.0,0.05740153044462204,0.0018727694562781538,"train",13440.0,"2021-11-20 18:01:40.532929","","","","","","",""
12.0,0.04699446260929108,0.001874625929734681,"train",13460.0,"2021-11-20 18:01:43.806713","","","","","","",""
12.0,0.0453849621117115,0.0018764697058176688,"train",13480.0,"2021-11-20 18:01:47.611814","","","","","","",""
12.0,0.04276641830801964,0.001878300756477289,"train",13500.0,"2021-11-20 18:01:50.856161","","","","","","",""
12.0,0.04814837872982025,0.0018801190538573096,"train",13520.0,"2021-11-20 18:01:54.125609","","","","","","",""
12.0,0.03925487771630287,0.0018819245702955162,"train",13540.0,"2021-11-20 18:01:57.340838","","","","","","",""
12.0,0.044651005417108536,0.0018837172783241344,"train",13560.0,"2021-11-20 18:02:00.571862","","","","","","",""
12.0,0.047178976237773895,0.0018854971506702478,"train",13580.0,"2021-11-20 18:02:04.229725","","","","","","",""
12.0,0.04307897388935089,0.0018872641602562118,"train",13600.0,"2021-11-20 18:02:07.403609","","","","","","",""
12.0,0.052650343626737595,0.0018890182802000666,"train",13620.0,"2021-11-20 18:02:10.577046","","","","","","",""
12.0,0.040689617395401,0.001890759483815946,"train",13640.0,"2021-11-20 18:02:13.759195","","","","","","",""
12.0,0.026692941784858704,0.0018924877446144823,"train",13660.0,"2021-11-20 18:02:16.934102","","","","","","",""
12.0,0.05847307667136192,0.0018942030363032112,"train",13680.0,"2021-11-20 18:02:20.634058","","","","","","",""
12.0,0.030044294893741608,0.0018959053327869695,"train",13700.0,"2021-11-20 18:02:23.752882","","","","","","",""
12.0,0.03522365167737007,0.0018975946081682942,"train",13720.0,"2021-11-20 18:02:26.865236","","","","","","",""
12.0,0.047310132533311844,0.001899270836747816,"train",13740.0,"2021-11-20 18:02:30.080114","","","","","","",""
12.0,0.03198309242725372,0.0019009339930246482,"train",13760.0,"2021-11-20 18:02:33.353405","","","","","","",""
12.0,0.04487620294094086,0.0019025840516967779,"train",13780.0,"2021-11-20 18:02:37.070616","","","","","","",""
12.0,0.041416388005018234,0.001904220987661449,"train",13800.0,"2021-11-20 18:02:40.336379","","","","","","",""
12.0,0.038223616778850555,0.0019058447760155438,"train",13820.0,"2021-11-20 18:02:43.556697","","","","","","",""
12.0,0.04215414822101593,0.001907455392055963,"train",13840.0,"2021-11-20 18:02:46.744501","","","","","","",""
12.0,0.04753014072775841,0.0019090528112800014,"train",13860.0,"2021-11-20 18:02:49.935283","","","","","","",""
12.0,0.03782880678772926,0.001910637009385719,"train",13880.0,"2021-11-20 18:02:53.692170","","","","","","",""
12.0,0.050324469804763794,0.0019122079622723132,"train",13900.0,"2021-11-20 18:02:56.884312","","","","","","",""
12.0,0.03662963956594467,0.0019137656460404843,"train",13920.0,"2021-11-20 18:02:59.999237","","","","","","",""
12.0,0.043893683701753616,0.001915310036992798,"train",13940.0,"2021-11-20 18:03:03.115808","","","","","","",""
12.0,0.055475663393735886,0.0019168411116340476,"train",13960.0,"2021-11-20 18:03:06.680655","","","","","","",""
12.0,"","","train",13963.0,"2021-11-20 18:04:41.041310",0.627461253001528,0.6658143922670257,0.9619649973045349,0.6548462743679588,0.5563754689277493,0.5753235981543676,0.3835874568946472
12.0,"","","val",13963.0,"2021-11-20 18:05:06.750947",0.5911515713788704,0.5878757862674394,0.9451037323513175,0.6048260256103686,0.5016091829589662,0.5158692206604475,0.3270553122407174
13.0,0.04959731549024582,0.001918358846671611,"train",13980.0,"2021-11-20 18:05:12.103697","","","","","","",""
13.0,0.04992830008268356,0.001919863219015804,"train",14000.0,"2021-11-20 18:05:15.312382","","","","","","",""
13.0,0.032881274819374084,0.0019213542057802332,"train",14020.0,"2021-11-20 18:05:18.652489","","","","","","",""
13.0,0.03364364802837372,0.0019228317842821434,"train",14040.0,"2021-11-20 18:05:21.894351","","","","","","",""
13.0,0.034159522503614426,0.0019242959320427617,"train",14060.0,"2021-11-20 18:05:25.600769","","","","","","",""
13.0,0.030943317338824272,0.0019257466267876419,"train",14080.0,"2021-11-20 18:05:28.716637","","","","","","",""
13.0,0.04736197739839554,0.0019271838464470004,"train",14100.0,"2021-11-20 18:05:31.918716","","","","","","",""
13.0,0.04983804002404213,0.0019286075691560547,"train",14120.0,"2021-11-20 18:05:35.140661","","","","","","",""
13.0,0.04065379127860069,0.0019300177732553536,"train",14140.0,"2021-11-20 18:05:38.375639","","","","","","",""
13.0,0.05026921629905701,0.0019314144372911094,"train",14160.0,"2021-11-20 18:05:41.998375","","","","","","",""
13.0,0.04219132661819458,0.0019327975400155214,"train",14180.0,"2021-11-20 18:05:45.103007","","","","","","",""
13.0,0.04162225127220154,0.001934167060387101,"train",14200.0,"2021-11-20 18:05:48.225315","","","","","","",""
13.0,0.05176416411995888,0.0019355229775709917,"train",14220.0,"2021-11-20 18:05:51.389901","","","","","","",""
13.0,0.047804441303014755,0.0019368652709392852,"train",14240.0,"2021-11-20 18:05:54.588456","","","","","","",""
13.0,0.05037495121359825,0.0019381939200713357,"train",14260.0,"2021-11-20 18:05:58.258035","","","","","","",""
13.0,0.03549235314130783,0.0019395089047540715,"train",14280.0,"2021-11-20 18:06:01.436137","","","","","","",""
13.0,0.043070822954177856,0.0019408102049823003,"train",14300.0,"2021-11-20 18:06:04.564426","","","","","","",""
13.0,0.03249179199337959,0.0019420978009590157,"train",14320.0,"2021-11-20 18:06:07.677090","","","","","","",""
13.0,0.04262096434831619,0.0019433716730956974,"train",14340.0,"2021-11-20 18:06:10.801417","","","","","","",""
13.0,0.04547080025076866,0.0019446318020126087,"train",14360.0,"2021-11-20 18:06:14.430940","","","","","","",""
13.0,0.03636133670806885,0.0019458781685390927,"train",14380.0,"2021-11-20 18:06:17.654453","","","","","","",""
13.0,0.04573638737201691,0.0019471107537138632,"train",14400.0,"2021-11-20 18:06:20.883185","","","","","","",""
13.0,0.03916141018271446,0.0019483295387852924,"train",14420.0,"2021-11-20 18:06:24.134120","","","","","","",""
13.0,0.039959922432899475,0.0019495345052116977,"train",14440.0,"2021-11-20 18:06:27.343008","","","","","","",""
13.0,0.02845741994678974,0.0019507256346616227,"train",14460.0,"2021-11-20 18:06:31.144542","","","","","","",""
13.0,0.04856249690055847,0.0019519029090141163,"train",14480.0,"2021-11-20 18:06:34.290571","","","","","","",""
13.0,0.05771193653345108,0.001953066310359009,"train",14500.0,"2021-11-20 18:06:37.406367","","","","","","",""
13.0,0.05817094445228577,0.001954215820997184,"train",14520.0,"2021-11-20 18:06:40.534031","","","","","","",""
13.0,0.03398497775197029,0.0019553514234408476,"train",14540.0,"2021-11-20 18:06:43.674522","","","","","","",""
13.0,0.03932894393801689,0.0019564731004137956,"train",14560.0,"2021-11-20 18:06:47.414716","","","","","","",""
13.0,0.04401897266507149,0.0019575808348516743,"train",14580.0,"2021-11-20 18:06:50.749084","","","","","","",""
13.0,0.03715914860367775,0.0019586746099022425,"train",14600.0,"2021-11-20 18:06:53.997489","","","","","","",""
13.0,0.047785837203264236,0.001959754408925626,"train",14620.0,"2021-11-20 18:06:57.257923","","","","","","",""
13.0,0.04718250781297684,0.001960820215494572,"train",14640.0,"2021-11-20 18:07:00.506393","","","","","","",""
13.0,0.04038214683532715,0.0019618720133946967,"train",14660.0,"2021-11-20 18:07:04.201720","","","","","","",""
13.0,0.033344682306051254,0.001962909786624736,"train",14680.0,"2021-11-20 18:07:07.379363","","","","","","",""
13.0,0.04726483300328255,0.0019639335193967853,"train",14700.0,"2021-11-20 18:07:10.510366","","","","","","",""
13.0,0.03803248703479767,0.001964943196136541,"train",14720.0,"2021-11-20 18:07:13.646317","","","","","","",""
13.0,0.03592675179243088,0.0019659388014835375,"train",14740.0,"2021-11-20 18:07:16.858660","","","","","","",""
13.0,0.03242617845535278,0.0019669203202913816,"train",14760.0,"2021-11-20 18:07:20.565672","","","","","","",""
13.0,0.03535204008221626,0.0019678877376279815,"train",14780.0,"2021-11-20 18:07:23.759883","","","","","","",""
13.0,0.04362411051988602,0.001968841038775774,"train",14800.0,"2021-11-20 18:07:26.922587","","","","","","",""
13.0,0.03642357513308525,0.0019697802092319507,"train",14820.0,"2021-11-20 18:07:30.078600","","","","","","",""
13.0,0.03552095964550972,0.0019707052347086754,"train",14840.0,"2021-11-20 18:07:33.242544","","","","","","",""
13.0,0.05547070875763893,0.001971616101133304,"train",14860.0,"2021-11-20 18:07:36.946541","","","","","","",""
13.0,0.04191221296787262,0.001972512794648596,"train",14880.0,"2021-11-20 18:07:40.096058","","","","","","",""
13.0,0.03688650205731392,0.0019733953016129297,"train",14900.0,"2021-11-20 18:07:43.265279","","","","","","",""
13.0,0.04415656253695488,0.0019742636086005046,"train",14920.0,"2021-11-20 18:07:46.435904","","","","","","",""
13.0,0.041444163769483566,0.0019751177024015486,"train",14940.0,"2021-11-20 18:07:50.079263","","","","","","",""
13.0,0.0525197833776474,0.0019759575700225187,"train",14960.0,"2021-11-20 18:07:53.258853","","","","","","",""
13.0,0.03606454282999039,0.0019767831986862985,"train",14980.0,"2021-11-20 18:07:56.410448","","","","","","",""
13.0,0.041247814893722534,0.001977594575832392,"train",15000.0,"2021-11-20 18:07:59.559904","","","","","","",""
13.0,0.03484939783811569,0.0019783916891171153,"train",15020.0,"2021-11-20 18:08:02.749562","","","","","","",""
13.0,"","","train",15037.0,"2021-11-20 18:09:43.018099",0.6472385941934076,0.6791614769533901,0.9653668839228575,0.6746371023310094,0.5680571493474508,0.5912882877558807,0.3988450902844895
13.0,"","","val",15037.0,"2021-11-20 18:10:08.174972",0.6086628783486026,0.6049366698136189,0.9501415009714331,0.6260245827231936,0.5172289698851702,0.5343162766970337,0.3437932043105769
14.0,0.04088115692138672,0.001979174526413784,"train",15040.0,"2021-11-20 18:10:11.351250","","","","","","",""
14.0,0.04592467099428177,0.0019799430758128973,"train",15060.0,"2021-11-20 18:10:15.125283","","","","","","",""
14.0,0.04082009568810463,0.0019806973256223217,"train",15080.0,"2021-11-20 18:10:18.338306","","","","","","",""
14.0,0.04679490998387337,0.0019814372643674654,"train",15100.0,"2021-11-20 18:10:21.531595","","","","","","",""
14.0,0.03935171291232109,0.0019821628807914545,"train",15120.0,"2021-11-20 18:10:24.648963","","","","","","",""
14.0,0.03448601812124252,0.0019828741638553042,"train",15140.0,"2021-11-20 18:10:27.772524","","","","","","",""
14.0,0.04069190472364426,0.0019835711027380875,"train",15160.0,"2021-11-20 18:10:30.912647","","","","","","",""
14.0,0.05024607107043266,0.001984253686837098,"train",15180.0,"2021-11-20 18:10:34.589579","","","","","","",""
14.0,0.044744089245796204,0.001984921905768013,"train",15200.0,"2021-11-20 18:10:37.717471","","","","","","",""
14.0,0.03535005450248718,0.00198557574936505,"train",15220.0,"2021-11-20 18:10:40.820893","","","","","","",""
14.0,0.03591015562415123,0.0019862152076811222,"train",15240.0,"2021-11-20 18:10:43.945549","","","","","","",""
14.0,0.037327490746974945,0.001986840270987991,"train",15260.0,"2021-11-20 18:10:47.090100","","","","","","",""
14.0,0.038247328251600266,0.0019874509297764104,"train",15280.0,"2021-11-20 18:10:50.230088","","","","","","",""
14.0,0.04550762474536896,0.001988047174756275,"train",15300.0,"2021-11-20 18:10:53.857094","","","","","","",""
14.0,0.03216059133410454,0.0019886289968567617,"train",15320.0,"2021-11-20 18:10:56.985648","","","","","","",""
14.0,0.03925294801592827,0.0019891963872264644,"train",15340.0,"2021-11-20 18:11:00.116435","","","","","","",""
14.0,0.04795796796679497,0.0019897493372335305,"train",15360.0,"2021-11-20 18:11:03.258013","","","","","","",""
14.0,0.06207786500453949,0.001990287838465794,"train",15380.0,"2021-11-20 18:11:06.421290","","","","","","",""
14.0,0.044479843229055405,0.0019908118827308995,"train",15400.0,"2021-11-20 18:11:09.665375","","","","","","",""
14.0,0.03429026156663895,0.001991321462056431,"train",15420.0,"2021-11-20 18:11:13.368626","","","","","","",""
14.0,0.045052915811538696,0.0019918165686900304,"train",15440.0,"2021-11-20 18:11:16.606755","","","","","","",""
14.0,0.05009147897362709,0.001992297195099516,"train",15460.0,"2021-11-20 18:11:19.876672","","","","","","",""
14.0,0.034356873482465744,0.001992763333972998,"train",15480.0,"2021-11-20 18:11:23.163969","","","","","","",""
14.0,0.03911541774868965,0.0019932149782189885,"train",15500.0,"2021-11-20 18:11:26.418347","","","","","","",""
14.0,0.04307422786951065,0.001993652120966511,"train",15520.0,"2021-11-20 18:11:30.106852","","","","","","",""
14.0,0.03618919849395752,0.001994074755565202,"train",15540.0,"2021-11-20 18:11:33.231533","","","","","","",""
14.0,0.04412218555808067,0.0019944828755854172,"train",15560.0,"2021-11-20 18:11:36.440983","","","","","","",""
14.0,0.048400018364191055,0.001994876474818323,"train",15580.0,"2021-11-20 18:11:39.643774","","","","","","",""
14.0,0.027193758636713028,0.001995255547275996,"train",15600.0,"2021-11-20 18:11:42.855599","","","","","","",""
14.0,0.049753326922655106,0.001995620087191512,"train",15620.0,"2021-11-20 18:11:45.998874","","","","","","",""
14.0,0.04628496617078781,0.001995970089019033,"train",15640.0,"2021-11-20 18:11:49.731485","","","","","","",""
14.0,0.04166300967335701,0.001996305547433895,"train",15660.0,"2021-11-20 18:11:52.912370","","","","","","",""
14.0,0.04231159761548042,0.001996626457332684,"train",15680.0,"2021-11-20 18:11:56.137215","","","","","","",""
14.0,0.030878329649567604,0.0019969328138333175,"train",15700.0,"2021-11-20 18:11:59.422006","","","","","","",""
14.0,0.03831956908106804,0.0019972246122751166,"train",15720.0,"2021-11-20 18:12:02.751078","","","","","","",""
14.0,0.04501257836818695,0.0019975018482188797,"train",15740.0,"2021-11-20 18:12:06.064307","","","","","","",""
14.0,0.04195627197623253,0.001997764517446946,"train",15760.0,"2021-11-20 18:12:09.784918","","","","","","",""
14.0,0.03847024589776993,0.0019980126159632626,"train",15780.0,"2021-11-20 18:12:13.011018","","","","","","",""
14.0,0.03987773880362511,0.001998246139993445,"train",15800.0,"2021-11-20 18:12:16.406884","","","","","","",""
14.0,0.03931030258536339,0.0019984650859848335,"train",15820.0,"2021-11-20 18:12:19.746891","","","","","","",""
14.0,0.04336593300104141,0.0019986694506065475,"train",15840.0,"2021-11-20 18:12:23.019311","","","","","","",""
14.0,0.038510747253894806,0.001998859230749537,"train",15860.0,"2021-11-20 18:12:26.211660","","","","","","",""
14.0,0.04450429603457451,0.0019990344235266294,"train",15880.0,"2021-11-20 18:12:29.787535","","","","","","",""
14.0,0.048963695764541626,0.0019991950262725727,"train",15900.0,"2021-11-20 18:12:32.884058","","","","","","",""
14.0,0.04438040032982826,0.0019993410365440768,"train",15920.0,"2021-11-20 18:12:36.008208","","","","","","",""
14.0,0.04026086628437042,0.0019994724521198515,"train",15940.0,"2021-11-20 18:12:39.209578","","","","","","",""
14.0,0.03577866032719612,0.001999589271000638,"train",15960.0,"2021-11-20 18:12:42.385586","","","","","","",""
14.0,0.03671100735664368,0.001999691491409242,"train",15980.0,"2021-11-20 18:12:45.545308","","","","","","",""
14.0,0.0329723134636879,0.0019997791117905587,"train",16000.0,"2021-11-20 18:12:49.205535","","","","","","",""
14.0,0.03926421329379082,0.0019998521308115967,"train",16020.0,"2021-11-20 18:12:52.319143","","","","","","",""
14.0,0.030407728627324104,0.0019999105473614996,"train",16040.0,"2021-11-20 18:12:55.485340","","","","","","",""
14.0,0.03648165613412857,0.001999954360551562,"train",16060.0,"2021-11-20 18:12:58.761475","","","","","","",""
14.0,0.02912278287112713,0.001999983569715243,"train",16080.0,"2021-11-20 18:13:02.100494","","","","","","",""
14.0,0.048557400703430176,0.001999998174408176,"train",16100.0,"2021-11-20 18:13:05.761147","","","","","","",""
14.0,"","","train",16111.0,"2021-11-20 18:14:43.031088",0.6587062504547769,0.7018412339373128,0.9694167943550475,0.6756931153326409,0.5818749113928493,0.6097418458727047,0.414053047558398
14.0,"","","val",16111.0,"2021-11-20 18:15:09.534555",0.6149831845065522,0.6199519622561994,0.9540176321143592,0.6229935883554679,0.5264706089442526,0.5495095120429865,0.35430804295980894
15.0,0.03294193372130394,0.0019999996507605177,"train",16120.0,"2021-11-20 18:15:13.799492","","","","","","",""
15.0,0.03725069761276245,0.0019999968568461227,"train",16140.0,"2021-11-20 18:15:17.014482","","","","","","",""
15.0,0.04246285557746887,0.001999991269025138,"train",16160.0,"2021-11-20 18:15:20.139664","","","","","","",""
15.0,0.03115217760205269,0.001999982887313176,"train",16180.0,"2021-11-20 18:15:23.270131","","","","","","",""
15.0,0.042200930416584015,0.001999971711733655,"train",16200.0,"2021-11-20 18:15:26.417509","","","","","","",""
15.0,0.04480005428195,0.0019999577423177985,"train",16220.0,"2021-11-20 18:15:30.161317","","","","","","",""
15.0,0.032392725348472595,0.0019999409791046354,"train",16240.0,"2021-11-20 18:15:33.271190","","","","","","",""
15.0,0.03783175349235535,0.0019999214221410014,"train",16260.0,"2021-11-20 18:15:36.447071","","","","","","",""
15.0,0.030161671340465546,0.0019998990714815376,"train",16280.0,"2021-11-20 18:15:39.616922","","","","","","",""
15.0,0.03447835519909859,0.001999873927188689,"train",16300.0,"2021-11-20 18:15:42.777479","","","","","","",""
15.0,0.04726249724626541,0.0019998459893327083,"train",16320.0,"2021-11-20 18:15:45.987016","","","","","","",""
15.0,0.045282602310180664,0.001999815257991651,"train",16340.0,"2021-11-20 18:15:49.771148","","","","","","",""
15.0,0.04378096014261246,0.0019997817332513784,"train",16360.0,"2021-11-20 18:15:52.986423","","","","","","",""
15.0,0.033356163650751114,0.0019997454152055555,"train",16380.0,"2021-11-20 18:15:56.206446","","","","","","",""
15.0,0.043278127908706665,0.0019997063039556536,"train",16400.0,"2021-11-20 18:15:59.397303","","","","","","",""
15.0,0.04369186982512474,0.0019996643996109454,"train",16420.0,"2021-11-20 18:16:02.546298","","","","","","",""
15.0,0.05104813352227211,0.0019996197022885093,"train",16440.0,"2021-11-20 18:16:05.719040","","","","","","",""
15.0,0.03472159430384636,0.001999572212113226,"train",16460.0,"2021-11-20 18:16:09.381461","","","","","","",""
15.0,0.029055776074528694,0.0019995219292177793,"train",16480.0,"2021-11-20 18:16:12.544522","","","","","","",""
15.0,0.035139571875333786,0.0019994688537426563,"train",16500.0,"2021-11-20 18:16:15.658487","","","","","","",""
15.0,0.03087436407804489,0.0019994129858361465,"train",16520.0,"2021-11-20 18:16:18.829296","","","","","","",""
15.0,0.0422525592148304,0.00199935432565434,"train",16540.0,"2021-11-20 18:16:22.060968","","","","","","",""
15.0,0.038996245712041855,0.0019992928733611292,"train",16560.0,"2021-11-20 18:16:25.274325","","","","","","",""
15.0,0.03636937960982323,0.001999228629128207,"train",16580.0,"2021-11-20 18:16:28.973288","","","","","","",""
15.0,0.035369403660297394,0.0019991615931350677,"train",16600.0,"2021-11-20 18:16:32.184700","","","","","","",""
15.0,0.04980621114373207,0.0019990917655690046,"train",16620.0,"2021-11-20 18:16:35.389138","","","","","","",""
15.0,0.03840303421020508,0.001999019146625111,"train",16640.0,"2021-11-20 18:16:38.602785","","","","","","",""
15.0,0.036119017750024796,0.0019989437365062783,"train",16660.0,"2021-11-20 18:16:41.756147","","","","","","",""
15.0,0.029485568404197693,0.0019988655354231974,"train",16680.0,"2021-11-20 18:16:45.512905","","","","","","",""
15.0,0.04875423386693001,0.001998784543594356,"train",16700.0,"2021-11-20 18:16:48.729619","","","","","","",""
15.0,0.04232078418135643,0.0019987007612460397,"train",16720.0,"2021-11-20 18:16:51.938938","","","","","","",""
15.0,0.035713713616132736,0.0019986141886123303,"train",16740.0,"2021-11-20 18:16:55.155632","","","","","","",""
15.0,0.03835470601916313,0.001998524825935105,"train",16760.0,"2021-11-20 18:16:58.415653","","","","","","",""
15.0,0.04214271530508995,0.0019984326734640363,"train",16780.0,"2021-11-20 18:17:01.601490","","","","","","",""
15.0,0.04127803444862366,0.0019983377314565925,"train",16800.0,"2021-11-20 18:17:05.209680","","","","","","",""
15.0,0.038399942219257355,0.0019982400001780335,"train",16820.0,"2021-11-20 18:17:08.329000","","","","","","",""
15.0,0.03830450773239136,0.001998139479901414,"train",16840.0,"2021-11-20 18:17:11.451845","","","","","","",""
15.0,0.046096477657556534,0.0019980361709075797,"train",16860.0,"2021-11-20 18:17:14.578681","","","","","","",""
15.0,0.03144264221191406,0.001997930073485169,"train",16880.0,"2021-11-20 18:17:17.738818","","","","","","",""
15.0,0.04470639303326607,0.0019978211879306098,"train",16900.0,"2021-11-20 18:17:20.916802","","","","","","",""
15.0,0.02765566296875477,0.00199770951454812,"train",16920.0,"2021-11-20 18:17:24.693127","","","","","","",""
15.0,0.046730443835258484,0.001997595053649708,"train",16940.0,"2021-11-20 18:17:27.900089","","","","","","",""
15.0,0.03980270028114319,0.0019974778055551687,"train",16960.0,"2021-11-20 18:17:31.031059","","","","","","",""
15.0,0.03829459100961685,0.001997357770592084,"train",16980.0,"2021-11-20 18:17:34.187025","","","","","","",""
15.0,0.04316353797912598,0.0019972349490958233,"train",17000.0,"2021-11-20 18:17:37.326976","","","","","","",""
15.0,0.05996846780180931,0.0019971093414095403,"train",17020.0,"2021-11-20 18:17:40.459441","","","","","","",""
15.0,0.037495680153369904,0.0019969809478841746,"train",17040.0,"2021-11-20 18:17:44.163153","","","","","","",""
15.0,0.04430505260825157,0.0019968497688784476,"train",17060.0,"2021-11-20 18:17:47.326044","","","","","","",""
15.0,0.03672390431165695,0.001996715804758864,"train",17080.0,"2021-11-20 18:17:50.451389","","","","","","",""
15.0,0.03984273970127106,0.00199657905589971,"train",17100.0,"2021-11-20 18:17:53.564739","","","","","","",""
15.0,0.04103158786892891,0.001996439522683051,"train",17120.0,"2021-11-20 18:17:56.669740","","","","","","",""
15.0,0.041459351778030396,0.0019962972054987337,"train",17140.0,"2021-11-20 18:17:59.800664","","","","","","",""
15.0,0.037152498960494995,0.001996152104744381,"train",17160.0,"2021-11-20 18:18:03.629568","","","","","","",""
15.0,0.032052911818027496,0.0019960042208253936,"train",17180.0,"2021-11-20 18:18:06.838049","","","","","","",""
15.0,"","","train",17185.0,"2021-11-20 18:19:41.710272",0.6569744597249508,0.6958383654830074,0.9687372797282164,0.6863111913007733,0.5896832938192176,0.6231651050613414,0.41322168855394925
15.0,"","","val",17185.0,"2021-11-20 18:20:08.166453",0.6038501681549345,0.6065998381664355,0.9519462058961754,0.6262579929618588,0.5208180261150948,0.5504970948124194,0.34217683653066455
16.0,0.03202243149280548,0.0019958535541549495,"train",17200.0,"2021-11-20 18:20:13.378119","","","","","","",""
16.0,0.031950127333402634,0.0019957001051539988,"train",17220.0,"2021-11-20 18:20:16.593552","","","","","","",""
16.0,0.03751641511917114,0.0019955438742512684,"train",17240.0,"2021-11-20 18:20:19.807200","","","","","","",""
16.0,0.030112450942397118,0.0019953848618832542,"train",17260.0,"2021-11-20 18:20:23.601378","","","","","","",""
16.0,0.03795232996344566,0.0019952230684942263,"train",17280.0,"2021-11-20 18:20:26.761061","","","","","","",""
16.0,0.05189890414476395,0.0019950584945362232,"train",17300.0,"2021-11-20 18:20:29.981800","","","","","","",""
16.0,0.03540962561964989,0.001994891140469052,"train",17320.0,"2021-11-20 18:20:33.148070","","","","","","",""
16.0,0.03450379893183708,0.0019947210067602886,"train",17340.0,"2021-11-20 18:20:36.336292","","","","","","",""
16.0,0.03223832696676254,0.0019945480938852733,"train",17360.0,"2021-11-20 18:20:39.504118","","","","","","",""
16.0,0.038272980600595474,0.0019943724023271125,"train",17380.0,"2021-11-20 18:20:43.298708","","","","","","",""
16.0,0.03701635077595711,0.0019941939325766747,"train",17400.0,"2021-11-20 18:20:46.531132","","","","","","",""
16.0,0.031618911772966385,0.0019940126851325925,"train",17420.0,"2021-11-20 18:20:49.756459","","","","","","",""
16.0,0.056460946798324585,0.001993828660501257,"train",17440.0,"2021-11-20 18:20:53.051028","","","","","","",""
16.0,0.03525060787796974,0.00199364185919682,"train",17460.0,"2021-11-20 18:20:56.311771","","","","","","",""
16.0,0.033603668212890625,0.00199345228174119,"train",17480.0,"2021-11-20 18:20:59.582333","","","","","","",""
16.0,0.04262639954686165,0.001993259928664033,"train",17500.0,"2021-11-20 18:21:03.296088","","","","","","",""
16.0,0.03408723697066307,0.0019930648005027692,"train",17520.0,"2021-11-20 18:21:06.524826","","","","","","",""
16.0,0.055492889136075974,0.0019928668978025726,"train",17540.0,"2021-11-20 18:21:09.717908","","","","","","",""
16.0,0.04261266440153122,0.0019926662211163684,"train",17560.0,"2021-11-20 18:21:12.881755","","","","","","",""
16.0,0.04596153646707535,0.001992462771004833,"train",17580.0,"2021-11-20 18:21:16.084474","","","","","","",""
16.0,0.04684324935078621,0.0019922565480363905,"train",17600.0,"2021-11-20 18:21:19.297269","","","","","","",""
16.0,0.04127388820052147,0.001992047552787213,"train",17620.0,"2021-11-20 18:21:23.084635","","","","","","",""
16.0,0.0332481674849987,0.0019918357858412184,"train",17640.0,"2021-11-20 18:21:26.335328","","","","","","",""
16.0,0.02434624172747135,0.001991621247790067,"train",17660.0,"2021-11-20 18:21:29.596097","","","","","","",""
16.0,0.03359627723693848,0.0019914039392331627,"train",17680.0,"2021-11-20 18:21:32.854982","","","","","","",""
16.0,0.03533545881509781,0.00199118386077765,"train",17700.0,"2021-11-20 18:21:36.115108","","","","","","",""
16.0,0.02992355264723301,0.0019909610130384122,"train",17720.0,"2021-11-20 18:21:39.326968","","","","","","",""
16.0,0.0440322645008564,0.0019907353966380687,"train",17740.0,"2021-11-20 18:21:43.023675","","","","","","",""
16.0,0.03282003477215767,0.0019905070122069753,"train",17760.0,"2021-11-20 18:21:46.214698","","","","","","",""
16.0,0.030390625819563866,0.001990275860383222,"train",17780.0,"2021-11-20 18:21:49.424686","","","","","","",""
16.0,0.04059089347720146,0.001990041941812629,"train",17800.0,"2021-11-20 18:21:52.700715","","","","","","",""
16.0,0.03541187569499016,0.0019898052571487483,"train",17820.0,"2021-11-20 18:21:55.949006","","","","","","",""
16.0,0.03180573135614395,0.0019895658070528594,"train",17840.0,"2021-11-20 18:21:59.747778","","","","","","",""
16.0,0.04824643209576607,0.001989323592193968,"train",17860.0,"2021-11-20 18:22:02.973535","","","","","","",""
16.0,0.044592928141355515,0.001989078613248805,"train",17880.0,"2021-11-20 18:22:06.103510","","","","","","",""
16.0,0.033851683139801025,0.0019888308709018233,"train",17900.0,"2021-11-20 18:22:09.286048","","","","","","",""
16.0,0.04510321840643883,0.0019885803658451972,"train",17920.0,"2021-11-20 18:22:12.486997","","","","","","",""
16.0,0.03584105521440506,0.001988327098778819,"train",17940.0,"2021-11-20 18:22:15.659676","","","","","","",""
16.0,0.03489667922258377,0.0019880710704102984,"train",17960.0,"2021-11-20 18:22:19.308807","","","","","","",""
16.0,0.0317196398973465,0.00198781228145496,"train",17980.0,"2021-11-20 18:22:22.433545","","","","","","",""
16.0,0.0435892716050148,0.0019875507326358407,"train",18000.0,"2021-11-20 18:22:25.569358","","","","","","",""
16.0,0.05147470906376839,0.0019872864246836893,"train",18020.0,"2021-11-20 18:22:28.682520","","","","","","",""
16.0,0.03232753276824951,0.001987019358336962,"train",18040.0,"2021-11-20 18:22:31.826454","","","","","","",""
16.0,0.03783843293786049,0.0019867495343418237,"train",18060.0,"2021-11-20 18:22:34.975162","","","","","","",""
16.0,0.029813598841428757,0.001986476953452142,"train",18080.0,"2021-11-20 18:22:38.751443","","","","","","",""
16.0,0.03371286392211914,0.0019862016164294877,"train",18100.0,"2021-11-20 18:22:41.964627","","","","","","",""
16.0,0.038469891995191574,0.001985923524043133,"train",18120.0,"2021-11-20 18:22:45.218915","","","","","","",""
16.0,0.049096908420324326,0.001985642677070047,"train",18140.0,"2021-11-20 18:22:48.483835","","","","","","",""
16.0,0.042005956172943115,0.0019853590762948957,"train",18160.0,"2021-11-20 18:22:51.647696","","","","","","",""
16.0,0.034294433891773224,0.001985072722510039,"train",18180.0,"2021-11-20 18:22:54.767820","","","","","","",""
16.0,0.02566169947385788,0.001984783616515528,"train",18200.0,"2021-11-20 18:22:58.384034","","","","","","",""
16.0,0.02938133105635643,0.0019844917591191036,"train",18220.0,"2021-11-20 18:23:01.562983","","","","","","",""
16.0,0.04679204151034355,0.0019841971511361943,"train",18240.0,"2021-11-20 18:23:04.719525","","","","","","",""
16.0,"","","train",18259.0,"2021-11-20 18:24:41.746696",0.6733173251837299,0.7203255678829564,0.9732586853314037,0.7220930582669634,0.615767248235774,0.6407491746929549,0.4430344085482721
16.0,"","","val",18259.0,"2021-11-20 18:25:06.956589",0.6158529514090224,0.620686243922434,0.9556268362831315,0.6548148317125346,0.5399566491331821,0.5613096782155029,0.36420213949082847
17.0,0.045699890702962875,0.001983899793389913,"train",18260.0,"2021-11-20 18:25:09.860528","","","","","","",""
17.0,0.03709043189883232,0.001983599686711055,"train",18280.0,"2021-11-20 18:25:13.058789","","","","","","",""
17.0,0.03941284865140915,0.0019832968319380972,"train",18300.0,"2021-11-20 18:25:16.200778","","","","","","",""
17.0,0.03847178816795349,0.0019829912299171933,"train",18320.0,"2021-11-20 18:25:19.928949","","","","","","",""
17.0,0.04114343598484993,0.001982682881502172,"train",18340.0,"2021-11-20 18:25:23.072641","","","","","","",""
17.0,0.0346270315349102,0.001982371787554537,"train",18360.0,"2021-11-20 18:25:26.182732","","","","","","",""
17.0,0.04294545203447342,0.0019820579489434617,"train",18380.0,"2021-11-20 18:25:29.331231","","","","","","",""
17.0,0.03592444583773613,0.0019817413665457885,"train",18400.0,"2021-11-20 18:25:32.483105","","","","","","",""
17.0,0.034594595432281494,0.001981422041246025,"train",18420.0,"2021-11-20 18:25:36.200057","","","","","","",""
17.0,0.031925659626722336,0.0019810999739363427,"train",18440.0,"2021-11-20 18:25:39.342969","","","","","","",""
17.0,0.03952757269144058,0.0019807751655165737,"train",18460.0,"2021-11-20 18:25:42.500454","","","","","","",""
17.0,0.036801133304834366,0.001980447616894209,"train",18480.0,"2021-11-20 18:25:45.648230","","","","","","",""
17.0,0.04975983500480652,0.0019801173289843957,"train",18500.0,"2021-11-20 18:25:48.810201","","","","","","",""
17.0,0.043588217347860336,0.001979784302709934,"train",18520.0,"2021-11-20 18:25:51.965886","","","","","","",""
17.0,0.03102799691259861,0.0019794485390012746,"train",18540.0,"2021-11-20 18:25:55.627038","","","","","","",""
17.0,0.048683490604162216,0.0019791100387965164,"train",18560.0,"2021-11-20 18:25:58.770098","","","","","","",""
17.0,0.032839056104421616,0.0019787688030414047,"train",18580.0,"2021-11-20 18:26:01.921145","","","","","","",""
17.0,0.0450168140232563,0.0019784248326893267,"train",18600.0,"2021-11-20 18:26:05.109230","","","","","","",""
17.0,0.03029022179543972,0.0019780781287013103,"train",18620.0,"2021-11-20 18:26:08.237071","","","","","","",""
17.0,0.0307004414498806,0.0019777286920460214,"train",18640.0,"2021-11-20 18:26:11.415964","","","","","","",""
17.0,0.027032628655433655,0.0019773765236997596,"train",18660.0,"2021-11-20 18:26:15.057901","","","","","","",""
17.0,0.03200710192322731,0.0019770216246464585,"train",18680.0,"2021-11-20 18:26:18.221441","","","","","","",""
17.0,0.037031885236501694,0.0019766639958776785,"train",18700.0,"2021-11-20 18:26:21.376618","","","","","","",""
17.0,0.0347864143550396,0.001976303638392609,"train",18720.0,"2021-11-20 18:26:24.496771","","","","","","",""
17.0,0.03626870736479759,0.001975940553198063,"train",18740.0,"2021-11-20 18:26:27.640292","","","","","","",""
17.0,0.03153291717171669,0.001975574741308473,"train",18760.0,"2021-11-20 18:26:30.799768","","","","","","",""
17.0,0.0432874895632267,0.00197520620374589,"train",18780.0,"2021-11-20 18:26:34.507057","","","","","","",""
17.0,0.030970558524131775,0.0019748349415399822,"train",18800.0,"2021-11-20 18:26:37.627709","","","","","","",""
17.0,0.03977062180638313,0.0019744609557280283,"train",18820.0,"2021-11-20 18:26:40.774020","","","","","","",""
17.0,0.036170970648527145,0.001974084247354917,"train",18840.0,"2021-11-20 18:26:43.950739","","","","","","",""
17.0,0.03903087601065636,0.001973704817473144,"train",18860.0,"2021-11-20 18:26:47.115271","","","","","","",""
17.0,0.040854424238204956,0.0019733226671428085,"train",18880.0,"2021-11-20 18:26:50.713786","","","","","","",""
17.0,0.036449164152145386,0.0019729377974316105,"train",18900.0,"2021-11-20 18:26:53.842903","","","","","","",""
17.0,0.027893640100955963,0.001972550209414848,"train",18920.0,"2021-11-20 18:26:57.049838","","","","","","",""
17.0,0.040299344807863235,0.0019721599041754127,"train",18940.0,"2021-11-20 18:27:00.245420","","","","","","",""
17.0,0.04395681619644165,0.0019717668828037895,"train",18960.0,"2021-11-20 18:27:03.378393","","","","","","",""
17.0,0.04068265110254288,0.0019713711463980508,"train",18980.0,"2021-11-20 18:27:06.502521","","","","","","",""
17.0,0.02957025356590748,0.001970972696063855,"train",19000.0,"2021-11-20 18:27:10.225831","","","","","","",""
17.0,0.04826334863901138,0.0019705715329144434,"train",19020.0,"2021-11-20 18:27:13.415332","","","","","","",""
17.0,0.030018068850040436,0.0019701676580706367,"train",19040.0,"2021-11-20 18:27:16.604331","","","","","","",""
17.0,0.03277825191617012,0.0019697610726608305,"train",19060.0,"2021-11-20 18:27:19.744454","","","","","","",""
17.0,0.049836624413728714,0.0019693517778209954,"train",19080.0,"2021-11-20 18:27:22.906923","","","","","","",""
17.0,0.0355464406311512,0.0019689397746946707,"train",19100.0,"2021-11-20 18:27:26.054141","","","","","","",""
17.0,0.04754749685525894,0.0019685250644329634,"train",19120.0,"2021-11-20 18:27:29.668881","","","","","","",""
17.0,0.04004957154393196,0.001968107648194543,"train",19140.0,"2021-11-20 18:27:32.822687","","","","","","",""
17.0,0.042140163481235504,0.0019676875271456397,"train",19160.0,"2021-11-20 18:27:36.038857","","","","","","",""
17.0,0.03626253828406334,0.0019672647024600413,"train",19180.0,"2021-11-20 18:27:39.218200","","","","","","",""
17.0,0.03302619978785515,0.001966839175319089,"train",19200.0,"2021-11-20 18:27:42.329270","","","","","","",""
17.0,0.03799229860305786,0.0019664109469116737,"train",19220.0,"2021-11-20 18:27:45.451866","","","","","","",""
17.0,0.035734981298446655,0.001965980018434235,"train",19240.0,"2021-11-20 18:27:49.129242","","","","","","",""
17.0,0.03632102534174919,0.0019655463910907543,"train",19260.0,"2021-11-20 18:27:52.209950","","","","","","",""
17.0,0.04200134053826332,0.0019651100660927558,"train",19280.0,"2021-11-20 18:27:55.431763","","","","","","",""
17.0,0.04288098216056824,0.0019646710446592987,"train",19300.0,"2021-11-20 18:27:58.664630","","","","","","",""
17.0,0.041393592953681946,0.0019642293280169765,"train",19320.0,"2021-11-20 18:28:01.865944","","","","","","",""
17.0,"","","train",19333.0,"2021-11-20 18:29:38.340359",0.6830386378519974,0.7338548366115314,0.9746005732159262,0.7152869374489389,0.6171331766700485,0.647555444051008,0.4463345488984861
17.0,"","","val",19333.0,"2021-11-20 18:30:04.997972",0.6264061231589934,0.6217898564791877,0.9562684373268868,0.6461511501222023,0.5432658112917592,0.5672035635515529,0.3652295216751022
18.0,0.03879702836275101,0.0019637849173999135,"train",19340.0,"2021-11-20 18:30:08.896770","","","","","","",""
18.0,0.05278613045811653,0.0019633378140497602,"train",19360.0,"2021-11-20 18:30:12.724985","","","","","","",""
18.0,0.039602573961019516,0.0019628880192156905,"train",19380.0,"2021-11-20 18:30:15.972838","","","","","","",""
18.0,0.028235403820872307,0.0019624355341543985,"train",19400.0,"2021-11-20 18:30:19.195790","","","","","","",""
18.0,0.03533795103430748,0.0019619803601300936,"train",19420.0,"2021-11-20 18:30:22.421337","","","","","","",""
18.0,0.035727981477975845,0.0019615224984144987,"train",19440.0,"2021-11-20 18:30:25.665316","","","","","","",""
18.0,0.032554931938648224,0.0019610619502868462,"train",19460.0,"2021-11-20 18:30:29.321160","","","","","","",""
18.0,0.026859799399971962,0.0019605987170338733,"train",19480.0,"2021-11-20 18:30:32.543613","","","","","","",""
18.0,0.03744645044207573,0.0019601327999498198,"train",19500.0,"2021-11-20 18:30:35.691403","","","","","","",""
18.0,0.0322614423930645,0.001959664200336424,"train",19520.0,"2021-11-20 18:30:38.873192","","","","","","",""
18.0,0.03307560458779335,0.0019591929195029185,"train",19540.0,"2021-11-20 18:30:42.043612","","","","","","",""
18.0,0.024330565705895424,0.001958718958766028,"train",19560.0,"2021-11-20 18:30:45.193555","","","","","","",""
18.0,0.025434408336877823,0.0019582423194499632,"train",19580.0,"2021-11-20 18:30:48.933647","","","","","","",""
18.0,0.031626470386981964,0.00195776300288642,"train",19600.0,"2021-11-20 18:30:52.116407","","","","","","",""
18.0,0.034474533051252365,0.0019572810104145724,"train",19620.0,"2021-11-20 18:30:55.266469","","","","","","",""
18.0,0.04526602849364281,0.001956796343381074,"train",19640.0,"2021-11-20 18:30:58.422905","","","","","","",""
18.0,0.037413667887449265,0.0019563090031400466,"train",19660.0,"2021-11-20 18:31:01.592849","","","","","","",""
18.0,0.02997896447777748,0.0019558189910530853,"train",19680.0,"2021-11-20 18:31:04.801088","","","","","","",""
18.0,0.03181033208966255,0.001955326308489246,"train",19700.0,"2021-11-20 18:31:08.454175","","","","","","",""
18.0,0.04087654501199722,0.0019548309568250487,"train",19720.0,"2021-11-20 18:31:11.686855","","","","","","",""
18.0,0.04873495548963547,0.0019543329374444693,"train",19740.0,"2021-11-20 18:31:14.799262","","","","","","",""
18.0,0.045061349868774414,0.001953832251738937,"train",19760.0,"2021-11-20 18:31:18.009874","","","","","","",""
18.0,0.01667478308081627,0.0019533289011073314,"train",19780.0,"2021-11-20 18:31:21.253425","","","","","","",""
18.0,0.03588484972715378,0.0019528228869559769,"train",19800.0,"2021-11-20 18:31:24.527847","","","","","","",""
18.0,0.03747568652033806,0.00195231421069864,"train",19820.0,"2021-11-20 18:31:28.385379","","","","","","",""
18.0,0.03272738307714462,0.0019518028737565247,"train",19840.0,"2021-11-20 18:31:31.657075","","","","","","",""
18.0,0.03900530934333801,0.0019512888775582687,"train",19860.0,"2021-11-20 18:31:34.913670","","","","","","",""
18.0,0.034790948033332825,0.0019507722235399404,"train",19880.0,"2021-11-20 18:31:38.178314","","","","","","",""
18.0,0.042514216154813766,0.0019502529131450322,"train",19900.0,"2021-11-20 18:31:41.391296","","","","","","",""
18.0,0.0330711230635643,0.0019497309478244598,"train",19920.0,"2021-11-20 18:31:44.709957","","","","","","",""
18.0,0.03873562067747116,0.0019492063290365556,"train",19940.0,"2021-11-20 18:31:48.488988","","","","","","",""
18.0,0.035002779215574265,0.0019486790582470663,"train",19960.0,"2021-11-20 18:31:51.743688","","","","","","",""
18.0,0.03478721156716347,0.0019481491369291474,"train",19980.0,"2021-11-20 18:31:54.947735","","","","","","",""
18.0,0.03306315466761589,0.0019476165665633606,"train",20000.0,"2021-11-20 18:31:58.150119","","","","","","",""
18.0,0.03031482733786106,0.0019470813486376678,"train",20020.0,"2021-11-20 18:32:01.381113","","","","","","",""
18.0,0.036326657980680466,0.001946543484647429,"train",20040.0,"2021-11-20 18:32:04.585535","","","","","","",""
18.0,0.034221209585666656,0.0019460029760953966,"train",20060.0,"2021-11-20 18:32:08.332963","","","","","","",""
18.0,0.025780217722058296,0.0019454598244917117,"train",20080.0,"2021-11-20 18:32:11.540677","","","","","","",""
18.0,0.032199740409851074,0.0019449140313539002,"train",20100.0,"2021-11-20 18:32:14.743424","","","","","","",""
18.0,0.030230596661567688,0.0019443655982068677,"train",20120.0,"2021-11-20 18:32:17.935138","","","","","","",""
18.0,0.0341188982129097,0.0019438145265828963,"train",20140.0,"2021-11-20 18:32:21.113237","","","","","","",""
18.0,0.03218209743499756,0.0019432608180216396,"train",20160.0,"2021-11-20 18:32:24.919186","","","","","","",""
18.0,0.03799650818109512,0.0019427044740701186,"train",20180.0,"2021-11-20 18:32:28.148421","","","","","","",""
18.0,0.028261130675673485,0.0019421454962827178,"train",20200.0,"2021-11-20 18:32:31.334866","","","","","","",""
