"epoch","loss","lr","part","step","time","accuracy","auprc","auroc","challenge_metric","f_beta_measure","f_measure","g_beta_measure"
0.0,0.45719677209854126,8.000730236035311e-05,"train",20.0,"2021-11-25 15:59:06.949924","","","","","","",""
0.0,0.2745577394962311,8.002920933031948e-05,"train",40.0,"2021-11-25 15:59:10.027715","","","","","","",""
0.0,0.13712385296821594,8.006572057662293e-05,"train",60.0,"2021-11-25 15:59:13.100415","","","","","","",""
0.0,0.14745163917541504,8.011683554380914e-05,"train",80.0,"2021-11-25 15:59:16.634588","","","","","","",""
0.0,0.12280906736850739,8.018255345425274e-05,"train",100.0,"2021-11-25 15:59:19.667615","","","","","","",""
0.0,0.13519306480884552,8.026287330817079e-05,"train",120.0,"2021-11-25 15:59:22.688187","","","","","","",""
0.0,0.13190385699272156,8.03577938836373e-05,"train",140.0,"2021-11-25 15:59:25.701625","","","","","","",""
0.0,0.1110861673951149,8.04673137366021e-05,"train",160.0,"2021-11-25 15:59:29.106238","","","","","","",""
0.0,0.12456654757261276,8.059143120091187e-05,"train",180.0,"2021-11-25 15:59:32.134587","","","","","","",""
0.0,0.12725050747394562,8.073014438833613e-05,"train",200.0,"2021-11-25 15:59:35.115937","","","","","","",""
0.0,0.13298502564430237,8.088345118859724e-05,"train",220.0,"2021-11-25 15:59:38.067364","","","","","","",""
0.0,0.11405844986438751,8.10513492693996e-05,"train",240.0,"2021-11-25 15:59:41.086651","","","","","","",""
0.0,0.13222143054008484,8.123383607646804e-05,"train",260.0,"2021-11-25 15:59:44.522831","","","","","","",""
0.0,0.12869155406951904,8.143090883358495e-05,"train",280.0,"2021-11-25 15:59:47.591322","","","","","","",""
0.0,0.13603854179382324,8.164256454263295e-05,"train",300.0,"2021-11-25 15:59:50.633075","","","","","","",""
0.0,0.1254642903804779,8.186879998364088e-05,"train",320.0,"2021-11-25 15:59:53.685758","","","","","","",""
0.0,0.1279185712337494,8.210961171483213e-05,"train",340.0,"2021-11-25 15:59:57.131019","","","","","","",""
0.0,0.12005943059921265,8.236499607267717e-05,"train",360.0,"2021-11-25 16:00:00.110215","","","","","","",""
0.0,0.13930442929267883,8.26349491719505e-05,"train",380.0,"2021-11-25 16:00:03.086752","","","","","","",""
0.0,0.1154756024479866,8.291946690578713e-05,"train",400.0,"2021-11-25 16:00:06.064626","","","","","","",""
0.0,0.12610088288784027,8.321854494574774e-05,"train",420.0,"2021-11-25 16:00:09.037047","","","","","","",""
0.0,0.12928304076194763,8.353217874188293e-05,"train",440.0,"2021-11-25 16:00:12.413400","","","","","","",""
0.0,0.12549465894699097,8.38603635228035e-05,"train",460.0,"2021-11-25 16:00:15.381614","","","","","","",""
0.0,0.11726169288158417,8.420309429575212e-05,"train",480.0,"2021-11-25 16:00:18.363667","","","","","","",""
0.0,0.12318329513072968,8.456036584667914e-05,"train",500.0,"2021-11-25 16:00:21.327425","","","","","","",""
0.0,0.11251283437013626,8.493217274032315e-05,"train",520.0,"2021-11-25 16:00:24.699153","","","","","","",""
0.0,0.11540300399065018,8.531850932029235e-05,"train",540.0,"2021-11-25 16:00:27.666433","","","","","","",""
0.0,0.1159258633852005,8.571936970915212e-05,"train",560.0,"2021-11-25 16:00:30.648267","","","","","","",""
0.0,0.1077299490571022,8.613474780851246e-05,"train",580.0,"2021-11-25 16:00:33.629275","","","","","","",""
0.0,0.10747553408145905,8.656463729912224e-05,"train",600.0,"2021-11-25 16:00:36.613125","","","","","","",""
0.0,0.10400798171758652,8.700903164096468e-05,"train",620.0,"2021-11-25 16:00:40.108457","","","","","","",""
0.0,0.09005627781152725,8.746792407335769e-05,"train",640.0,"2021-11-25 16:00:43.301860","","","","","","",""
0.0,0.11176984757184982,8.794130761505497e-05,"train",660.0,"2021-11-25 16:00:46.489221","","","","","","",""
0.0,0.10843717306852341,8.842917506435462e-05,"train",680.0,"2021-11-25 16:00:49.669229","","","","","","",""
0.0,0.11737532913684845,8.893151899920645e-05,"train",700.0,"2021-11-25 16:00:53.235986","","","","","","",""
0.0,0.10275834053754807,8.944833177732632e-05,"train",720.0,"2021-11-25 16:00:56.298617","","","","","","",""
0.0,0.09508643299341202,8.997960553631186e-05,"train",740.0,"2021-11-25 16:00:59.382158","","","","","","",""
0.0,0.0981842577457428,9.052533219376224e-05,"train",760.0,"2021-11-25 16:01:02.448022","","","","","","",""
0.0,0.11465366184711456,9.108550344740104e-05,"train",780.0,"2021-11-25 16:01:05.510346","","","","","","",""
0.0,0.07937536388635635,9.166011077520208e-05,"train",800.0,"2021-11-25 16:01:08.921295","","","","","","",""
0.0,0.0944378599524498,9.224914543552059e-05,"train",820.0,"2021-11-25 16:01:11.858996","","","","","","",""
0.0,0.08918929100036621,9.285259846722417e-05,"train",840.0,"2021-11-25 16:01:14.849177","","","","","","",""
0.0,0.10129697620868683,9.34704606898307e-05,"train",860.0,"2021-11-25 16:01:17.790997","","","","","","",""
0.0,0.09214978665113449,9.410272270364735e-05,"train",880.0,"2021-11-25 16:01:21.119306","","","","","","",""
0.0,0.09410027414560318,9.474937488991348e-05,"train",900.0,"2021-11-25 16:01:24.058406","","","","","","",""
0.0,0.10535869747400284,9.541040741094719e-05,"train",920.0,"2021-11-25 16:01:26.976618","","","","","","",""
0.0,0.09294837713241577,9.608581021029522e-05,"train",940.0,"2021-11-25 16:01:29.904532","","","","","","",""
0.0,0.10313396900892258,9.677557301288509e-05,"train",960.0,"2021-11-25 16:01:32.837340","","","","","","",""
0.0,0.07383812963962555,9.747968532518238e-05,"train",980.0,"2021-11-25 16:01:36.153376","","","","","","",""
0.0,0.10687711089849472,9.819813643535029e-05,"train",1000.0,"2021-11-25 16:01:39.228156","","","","","","",""
0.0,0.11348906904459,9.893091541341185e-05,"train",1020.0,"2021-11-25 16:01:42.151968","","","","","","",""
0.0,0.11344601958990097,9.967801111141644e-05,"train",1040.0,"2021-11-25 16:01:45.128179","","","","","","",""
0.0,0.09602418541908264,0.00010043941216361023,"train",1060.0,"2021-11-25 16:01:48.545175","","","","","","",""
0.0,"","","train",1074.0,"2021-11-25 16:03:18.656574",0.40649057702102886,0.22354577852091556,0.7996045173683044,0.31016143894896026,0.15039734030174234,0.14331774848598716,0.09969637107568523
0.0,"","","val",1074.0,"2021-11-25 16:03:42.399767",0.40177432448103906,0.22079101645617502,0.8008080745340228,0.3075800256833452,0.14932095169703713,0.1421819302867536,0.0978238132214467
1.0,0.09112963825464249,0.00010121510698660771,"train",1080.0,"2021-11-25 16:03:45.695404","","","","","","",""
1.0,0.10134938359260559,0.00010200508377956928,"train",1100.0,"2021-11-25 16:03:48.774054","","","","","","",""
1.0,0.08936497569084167,0.00010280933052437993,"train",1120.0,"2021-11-25 16:03:51.898097","","","","","","",""
1.0,0.08827701956033707,0.00010362783498583223,"train",1140.0,"2021-11-25 16:03:54.960695","","","","","","",""
1.0,0.08143221586942673,0.0001044605847118124,"train",1160.0,"2021-11-25 16:03:58.553544","","","","","","",""
1.0,0.11258202791213989,0.0001053075670334907,"train",1180.0,"2021-11-25 16:04:01.568551","","","","","","",""
1.0,0.10994814336299896,0.00010616876906551181,"train",1200.0,"2021-11-25 16:04:04.600593","","","","","","",""
1.0,0.08801029622554779,0.0001070441777061941,"train",1220.0,"2021-11-25 16:04:07.654911","","","","","","",""
1.0,0.11401127278804779,0.00010793377963772563,"train",1240.0,"2021-11-25 16:04:11.099395","","","","","","",""
1.0,0.0927477478981018,0.0001088375613263698,"train",1260.0,"2021-11-25 16:04:14.140663","","","","","","",""
1.0,0.07542653381824493,0.00010975550902266908,"train",1280.0,"2021-11-25 16:04:17.183170","","","","","","",""
1.0,0.09315069019794464,0.00011068760876165474,"train",1300.0,"2021-11-25 16:04:20.217408","","","","","","",""
1.0,0.0869494080543518,0.0001116338463630598,"train",1320.0,"2021-11-25 16:04:23.291697","","","","","","",""
1.0,0.08693070709705353,0.00011259420743153455,"train",1340.0,"2021-11-25 16:04:26.773046","","","","","","",""
1.0,0.09278721362352371,0.00011356867735686535,"train",1360.0,"2021-11-25 16:04:29.818469","","","","","","",""
1.0,0.09027846157550812,0.00011455724131419621,"train",1380.0,"2021-11-25 16:04:32.828335","","","","","","",""
1.0,0.08753882348537445,0.00011555988426425654,"train",1400.0,"2021-11-25 16:04:35.871076","","","","","","",""
1.0,0.09362675994634628,0.00011657659095358746,"train",1420.0,"2021-11-25 16:04:39.338159","","","","","","",""
1.0,0.08406514674425125,0.00011760734591477516,"train",1440.0,"2021-11-25 16:04:42.555403","","","","","","",""
1.0,0.09954700618982315,0.00011865213346668618,"train",1460.0,"2021-11-25 16:04:45.593610","","","","","","",""
1.0,0.080665722489357,0.00011971093771470502,"train",1480.0,"2021-11-25 16:04:48.618343","","","","","","",""
1.0,0.0798487514257431,0.0001207837425509777,"train",1500.0,"2021-11-25 16:04:51.629894","","","","","","",""
1.0,0.08367156237363815,0.00012187053165465503,"train",1520.0,"2021-11-25 16:04:55.074010","","","","","","",""
1.0,0.09156417101621628,0.000122971288492142,"train",1540.0,"2021-11-25 16:04:58.239500","","","","","","",""
1.0,0.07311210036277771,0.00012408599631734863,"train",1560.0,"2021-11-25 16:05:01.417437","","","","","","",""
1.0,0.07151061296463013,0.00012521463817194542,"train",1580.0,"2021-11-25 16:05:04.601303","","","","","","",""
1.0,0.08487805724143982,0.00012635719688562077,"train",1600.0,"2021-11-25 16:05:08.050078","","","","","","",""
1.0,0.0761820450425148,0.00012751365507634267,"train",1620.0,"2021-11-25 16:05:11.123214","","","","","","",""
1.0,0.06973019242286682,0.0001286839951506226,"train",1640.0,"2021-11-25 16:05:14.341523","","","","","","",""
1.0,0.09017656743526459,0.00012986819930378333,"train",1660.0,"2021-11-25 16:05:17.504665","","","","","","",""
1.0,0.10696626454591751,0.00013106624952023064,"train",1680.0,"2021-11-25 16:05:20.688891","","","","","","",""
1.0,0.0799858346581459,0.00013227812757372545,"train",1700.0,"2021-11-25 16:05:24.190944","","","","","","",""
1.0,0.10303754359483719,0.00013350381502766394,"train",1720.0,"2021-11-25 16:05:27.238626","","","","","","",""
1.0,0.09626965969800949,0.00013474329323535494,"train",1740.0,"2021-11-25 16:05:30.275429","","","","","","",""
1.0,0.1032760813832283,0.0001359965433403059,"train",1760.0,"2021-11-25 16:05:33.341196","","","","","","",""
1.0,0.0753076821565628,0.00013726354627650872,"train",1780.0,"2021-11-25 16:05:36.961103","","","","","","",""
1.0,0.07838398218154907,0.00013854428276873052,"train",1800.0,"2021-11-25 16:05:40.139202","","","","","","",""
1.0,0.0941157341003418,0.00013983873333280506,"train",1820.0,"2021-11-25 16:05:43.304936","","","","","","",""
1.0,0.09071969985961914,0.00014114687827593156,"train",1840.0,"2021-11-25 16:05:46.470681","","","","","","",""
1.0,0.11177673935890198,0.00014246869769697352,"train",1860.0,"2021-11-25 16:05:49.615714","","","","","","",""
1.0,0.1051255390048027,0.00014380417148676054,"train",1880.0,"2021-11-25 16:05:53.126263","","","","","","",""
1.0,0.09593303501605988,0.00014515327932839404,"train",1900.0,"2021-11-25 16:05:56.181372","","","","","","",""
1.0,0.08031366765499115,0.0001465160006975598,"train",1920.0,"2021-11-25 16:05:59.213458","","","","","","",""
1.0,0.06784113496541977,0.00014789231486283454,"train",1940.0,"2021-11-25 16:06:02.253292","","","","","","",""
1.0,0.07099596410989761,0.00014928220088600633,"train",1960.0,"2021-11-25 16:06:05.679853","","","","","","",""
1.0,0.10698205232620239,0.00015068563762239045,"train",1980.0,"2021-11-25 16:06:08.704257","","","","","","",""
1.0,0.07918208837509155,0.00015210260372115238,"train",2000.0,"2021-11-25 16:06:11.750500","","","","","","",""
1.0,0.09406878799200058,0.00015353307762563115,"train",2020.0,"2021-11-25 16:06:14.803353","","","","","","",""
1.0,0.08393179625272751,0.00015497703757366872,"train",2040.0,"2021-11-25 16:06:17.844427","","","","","","",""
1.0,0.06998904049396515,0.00015643446159794,"train",2060.0,"2021-11-25 16:06:21.290459","","","","","","",""
1.0,0.08961674571037292,0.0001579053275262887,"train",2080.0,"2021-11-25 16:06:24.304139","","","","","","",""
1.0,0.09953060001134872,0.00015938961298206183,"train",2100.0,"2021-11-25 16:06:27.359442","","","","","","",""
1.0,0.10671180486679077,0.00016088729538445297,"train",2120.0,"2021-11-25 16:06:30.501465","","","","","","",""
1.0,0.07280585169792175,0.000162398351948844,"train",2140.0,"2021-11-25 16:06:34.077379","","","","","","",""
1.0,"","","train",2148.0,"2021-11-25 16:08:03.284914",0.4602343010987412,0.3046077870021427,0.8448477960391707,0.3829581163599656,0.1990579100765764,0.19735827879550824,0.13811890864812335
1.0,"","","val",2148.0,"2021-11-25 16:08:26.711235",0.4562797170358344,0.30219188362619975,0.8459069955579026,0.37891518762463094,0.19732931958867478,0.195592085290278,0.13623625541122705
2.0,0.09428364038467407,0.00016392275968715297,"train",2160.0,"2021-11-25 16:08:31.003517","","","","","","",""
2.0,0.07547430694103241,0.00016546049540818223,"train",2180.0,"2021-11-25 16:08:34.074886","","","","","","",""
2.0,0.08050250262022018,0.00016701153571797313,"train",2200.0,"2021-11-25 16:08:37.191011","","","","","","",""
2.0,0.09072171151638031,0.00016857585702016015,"train",2220.0,"2021-11-25 16:08:40.370741","","","","","","",""
2.0,0.09084764122962952,0.00017015343551633126,"train",2240.0,"2021-11-25 16:08:44.039264","","","","","","",""
2.0,0.07762942463159561,0.0001717442472063892,"train",2260.0,"2021-11-25 16:08:47.233920","","","","","","",""
2.0,0.06990419328212738,0.00017334826788891681,"train",2280.0,"2021-11-25 16:08:50.375304","","","","","","",""
2.0,0.08275046199560165,0.00017496547316154555,"train",2300.0,"2021-11-25 16:08:53.450218","","","","","","",""
2.0,0.0787973627448082,0.00017659583842132573,"train",2320.0,"2021-11-25 16:08:57.006447","","","","","","",""
2.0,0.08038206398487091,0.00017823933886510217,"train",2340.0,"2021-11-25 16:09:00.087228","","","","","","",""
2.0,0.09511897712945938,0.00017989594948989015,"train",2360.0,"2021-11-25 16:09:03.210901","","","","","","",""
2.0,0.08606098592281342,0.00018156564509325753,"train",2380.0,"2021-11-25 16:09:06.362742","","","","","","",""
2.0,0.09339506924152374,0.0001832484002737059,"train",2400.0,"2021-11-25 16:09:09.542938","","","","","","",""
2.0,0.07546637952327728,0.00018494418943105877,"train",2420.0,"2021-11-25 16:09:13.111833","","","","","","",""
2.0,0.07977389544248581,0.00018665298676685078,"train",2440.0,"2021-11-25 16:09:16.237553","","","","","","",""
2.0,0.10801636427640915,0.0001883747662847191,"train",2460.0,"2021-11-25 16:09:19.395882","","","","","","",""
2.0,0.07118839025497437,0.00019010950179080112,"train",2480.0,"2021-11-25 16:09:22.461961","","","","","","",""
2.0,0.08353333920240402,0.00019185716689412995,"train",2500.0,"2021-11-25 16:09:25.981327","","","","","","",""
2.0,0.07451899349689484,0.00019361773500703797,"train",2520.0,"2021-11-25 16:09:29.012606","","","","","","",""
2.0,0.06743637472391129,0.00019539117934556168,"train",2540.0,"2021-11-25 16:09:32.046742","","","","","","",""
2.0,0.08656078577041626,0.00019717747292984696,"train",2560.0,"2021-11-25 16:09:35.126024","","","","","","",""
2.0,0.08975237607955933,0.0001989765885845624,"train",2580.0,"2021-11-25 16:09:38.256893","","","","","","",""
2.0,0.07642251253128052,0.00020078849893931014,"train",2600.0,"2021-11-25 16:09:41.800946","","","","","","",""
2.0,0.07008715718984604,0.0002026131764290434,"train",2620.0,"2021-11-25 16:09:44.778948","","","","","","",""
2.0,0.10422356426715851,0.00020445059329448614,"train",2640.0,"2021-11-25 16:09:47.738067","","","","","","",""
2.0,0.08545146137475967,0.00020630072158255497,"train",2660.0,"2021-11-25 16:09:50.796920","","","","","","",""
2.0,0.06510321795940399,0.00020816353314678467,"train",2680.0,"2021-11-25 16:09:54.159800","","","","","","",""
2.0,0.06628189235925674,0.00021003899964775505,"train",2700.0,"2021-11-25 16:09:57.142637","","","","","","",""
2.0,0.10644201189279556,0.00021192709255352473,"train",2720.0,"2021-11-25 16:10:00.114533","","","","","","",""
2.0,0.07109891623258591,0.00021382778314006255,"train",2740.0,"2021-11-25 16:10:03.086940","","","","","","",""
2.0,0.0704045370221138,0.00021574104249168615,"train",2760.0,"2021-11-25 16:10:06.044422","","","","","","",""
2.0,0.07942512631416321,0.00021766684150150133,"train",2780.0,"2021-11-25 16:10:09.421629","","","","","","",""
2.0,0.06686501204967499,0.00021960515087184485,"train",2800.0,"2021-11-25 16:10:12.432485","","","","","","",""
2.0,0.07380207628011703,0.00022155594111472978,"train",2820.0,"2021-11-25 16:10:15.411513","","","","","","",""
2.0,0.11918189376592636,0.0002235191825522959,"train",2840.0,"2021-11-25 16:10:18.411502","","","","","","",""
2.0,0.11145574599504471,0.00022549484531725838,"train",2860.0,"2021-11-25 16:10:21.872088","","","","","","",""
2.0,0.07620980590581894,0.00022748289935336434,"train",2880.0,"2021-11-25 16:10:24.900308","","","","","","",""
2.0,0.08224684000015259,0.00022948331441584964,"train",2900.0,"2021-11-25 16:10:27.889611","","","","","","",""
2.0,0.06502971798181534,0.00023149606007189785,"train",2920.0,"2021-11-25 16:10:30.922514","","","","","","",""
2.0,0.06339292973279953,0.00023352110570110476,"train",2940.0,"2021-11-25 16:10:33.966064","","","","","","",""
2.0,0.07979942858219147,0.00023555842049594305,"train",2960.0,"2021-11-25 16:10:37.450132","","","","","","",""
2.0,0.08469733595848083,0.00023760797346223305,"train",2980.0,"2021-11-25 16:10:40.498671","","","","","","",""
2.0,0.09805253893136978,0.00023966973341961028,"train",3000.0,"2021-11-25 16:10:43.542157","","","","","","",""
2.0,0.06907622516155243,0.0002417436690020044,"train",3020.0,"2021-11-25 16:10:46.646221","","","","","","",""
2.0,0.12451201677322388,0.00024382974865811325,"train",3040.0,"2021-11-25 16:10:50.079739","","","","","","",""
2.0,0.07227614521980286,0.000245927940651884,"train",3060.0,"2021-11-25 16:10:53.140827","","","","","","",""
2.0,0.07775568962097168,0.0002480382130629953,"train",3080.0,"2021-11-25 16:10:56.114227","","","","","","",""
2.0,0.0780494213104248,0.0002501605337873443,"train",3100.0,"2021-11-25 16:10:59.094189","","","","","","",""
2.0,0.10687495768070221,0.0002522948705375337,"train",3120.0,"2021-11-25 16:11:02.161528","","","","","","",""
2.0,0.06687190383672714,0.00025444119084336303,"train",3140.0,"2021-11-25 16:11:05.622763","","","","","","",""
2.0,0.07069183886051178,0.00025659946205232364,"train",3160.0,"2021-11-25 16:11:08.657430","","","","","","",""
2.0,0.09170036762952805,0.0002587696513300941,"train",3180.0,"2021-11-25 16:11:11.671217","","","","","","",""
2.0,0.06574913114309311,0.0002609517256610412,"train",3200.0,"2021-11-25 16:11:14.700213","","","","","","",""
2.0,0.07228618115186691,0.00026314565184872084,"train",3220.0,"2021-11-25 16:11:18.265356","","","","","","",""
2.0,"","","train",3222.0,"2021-11-25 16:12:46.376584",0.4890635232481991,0.3932667843259922,0.8778317431122494,0.44839793406679657,0.28746467102764905,0.2918678545655245,0.1911967923826581
2.0,"","","val",3222.0,"2021-11-25 16:13:10.374720",0.48405427345471413,0.3865086844290474,0.8784477507126078,0.44058976712997727,0.2832496609077543,0.286323293873088,0.18764789251464992
3.0,0.07783789932727814,0.0002653513965163838,"train",3240.0,"2021-11-25 16:13:15.492120","","","","","","",""
3.0,0.0720381885766983,0.0002675689261074836,"train",3260.0,"2021-11-25 16:13:18.663753","","","","","","",""
3.0,0.0830615982413292,0.00026979820688618605,"train",3280.0,"2021-11-25 16:13:21.897208","","","","","","",""
3.0,0.09220027923583984,0.00027203920493788433,"train",3300.0,"2021-11-25 16:13:25.102601","","","","","","",""
3.0,0.09097374975681305,0.00027429188616971277,"train",3320.0,"2021-11-25 16:13:28.674001","","","","","","",""
3.0,0.09418080747127533,0.0002765562163110668,"train",3340.0,"2021-11-25 16:13:31.695929","","","","","","",""
3.0,0.05676375329494476,0.00027883216091412503,"train",3360.0,"2021-11-25 16:13:34.771765","","","","","","",""
3.0,0.06744179874658585,0.0002811196853543707,"train",3380.0,"2021-11-25 16:13:37.838679","","","","","","",""
3.0,0.0758550614118576,0.00028341875483112134,"train",3400.0,"2021-11-25 16:13:41.431987","","","","","","",""
3.0,0.0926496684551239,0.00028572933436805644,"train",3420.0,"2021-11-25 16:13:44.637656","","","","","","",""
3.0,0.08419501781463623,0.0002880513888137504,"train",3440.0,"2021-11-25 16:13:47.716327","","","","","","",""
3.0,0.08456575125455856,0.0002903848828422063,"train",3460.0,"2021-11-25 16:13:50.693542","","","","","","",""
3.0,0.07291193306446075,0.00029272978095339465,"train",3480.0,"2021-11-25 16:13:53.623764","","","","","","",""
3.0,0.10270930081605911,0.00029508604747379243,"train",3500.0,"2021-11-25 16:13:56.960380","","","","","","",""
3.0,0.09804768115282059,0.00029745364655692653,"train",3520.0,"2021-11-25 16:13:59.917168","","","","","","",""
3.0,0.08583533018827438,0.0002998325421839181,"train",3540.0,"2021-11-25 16:14:02.860408","","","","","","",""
3.0,0.07124477624893188,0.0003022226981640318,"train",3560.0,"2021-11-25 16:14:05.854004","","","","","","",""
3.0,0.0614466518163681,0.00030462407813522494,"train",3580.0,"2021-11-25 16:14:09.261815","","","","","","",""
3.0,0.08489514887332916,0.0003070366455647027,"train",3600.0,"2021-11-25 16:14:12.304604","","","","","","",""
3.0,0.05631036311388016,0.000309460363749471,"train",3620.0,"2021-11-25 16:14:15.324809","","","","","","",""
3.0,0.09422123432159424,0.0003118951958168978,"train",3640.0,"2021-11-25 16:14:18.343050","","","","","","",""
3.0,0.056913308799266815,0.0003143411047252722,"train",3660.0,"2021-11-25 16:14:21.392620","","","","","","",""
3.0,0.09158844500780106,0.0003167980532643691,"train",3680.0,"2021-11-25 16:14:24.890097","","","","","","",""
3.0,0.0682506412267685,0.0003192660040560141,"train",3700.0,"2021-11-25 16:14:27.942812","","","","","","",""
3.0,0.08843374252319336,0.0003217449195546528,"train",3720.0,"2021-11-25 16:14:30.935713","","","","","","",""
3.0,0.06573349237442017,0.00032423476204792244,"train",3740.0,"2021-11-25 16:14:34.068785","","","","","","",""
3.0,0.07503897696733475,0.0003267354936572248,"train",3760.0,"2021-11-25 16:14:37.611472","","","","","","",""
3.0,0.04926222190260887,0.0003292470763383026,"train",3780.0,"2021-11-25 16:14:40.679439","","","","","","",""
3.0,0.06692516803741455,0.0003317694718818192,"train",3800.0,"2021-11-25 16:14:43.697452","","","","","","",""
3.0,0.08155329525470734,0.00033430264191393853,"train",3820.0,"2021-11-25 16:14:46.742034","","","","","","",""
3.0,0.06215107813477516,0.0003368465478969097,"train",3840.0,"2021-11-25 16:14:49.775356","","","","","","",""
3.0,0.05277954414486885,0.0003394011511296533,"train",3860.0,"2021-11-25 16:14:53.288952","","","","","","",""
3.0,0.07735997438430786,0.0003419664127483496,"train",3880.0,"2021-11-25 16:14:56.385391","","","","","","",""
3.0,0.07143888622522354,0.00034454229372703074,"train",3900.0,"2021-11-25 16:14:59.429076","","","","","","",""
3.0,0.07060614973306656,0.00034712875487817314,"train",3920.0,"2021-11-25 16:15:02.499008","","","","","","",""
3.0,0.0558299720287323,0.00034972575685329526,"train",3940.0,"2021-11-25 16:15:05.946176","","","","","","",""
3.0,0.06272885948419571,0.0003523332601435541,"train",3960.0,"2021-11-25 16:15:08.992587","","","","","","",""
3.0,0.06904560327529907,0.00035495122508034916,"train",3980.0,"2021-11-25 16:15:12.007287","","","","","","",""
3.0,0.05267374590039253,0.0003575796118359231,"train",4000.0,"2021-11-25 16:15:15.027213","","","","","","",""
3.0,0.05854540690779686,0.00036021838042396906,"train",4020.0,"2021-11-25 16:15:18.022720","","","","","","",""
3.0,0.08431008458137512,0.0003628674907002389,"train",4040.0,"2021-11-25 16:15:21.507864","","","","","","",""
3.0,0.06811582297086716,0.00036552690236315395,"train",4060.0,"2021-11-25 16:15:24.560856","","","","","","",""
3.0,0.08269909024238586,0.00036819657495441773,"train",4080.0,"2021-11-25 16:15:27.719889","","","","","","",""
3.0,0.07745227962732315,0.0003708764678596317,"train",4100.0,"2021-11-25 16:15:30.866840","","","","","","",""
3.0,0.06793948262929916,0.00037356654030891293,"train",4120.0,"2021-11-25 16:15:34.431414","","","","","","",""
3.0,0.07499933987855911,0.0003762667513775148,"train",4140.0,"2021-11-25 16:15:37.580946","","","","","","",""
3.0,0.09498007595539093,0.0003789770599864498,"train",4160.0,"2021-11-25 16:15:40.734529","","","","","","",""
3.0,0.06846537441015244,0.000381697424903113,"train",4180.0,"2021-11-25 16:15:43.853341","","","","","","",""
3.0,0.07255961000919342,0.0003844278047419108,"train",4200.0,"2021-11-25 16:15:46.988373","","","","","","",""
3.0,0.0782463327050209,0.0003871681579648903,"train",4220.0,"2021-11-25 16:15:50.531514","","","","","","",""
3.0,0.08243074268102646,0.0003899184428823709,"train",4240.0,"2021-11-25 16:15:53.558899","","","","","","",""
3.0,0.08005999028682709,0.0003926786176535783,"train",4260.0,"2021-11-25 16:15:56.552418","","","","","","",""
3.0,0.07939957082271576,0.0003954486402872818,"train",4280.0,"2021-11-25 16:15:59.543502","","","","","","",""
3.0,"","","train",4296.0,"2021-11-25 16:17:30.592595",0.5131921705595576,0.4351490890946991,0.9000820889864924,0.48258731724620857,0.32386273798918225,0.3328095244195171,0.22110734807042462
3.0,"","","val",4296.0,"2021-11-25 16:17:54.157404",0.5089875913255247,0.4261663107952666,0.8941822481002831,0.47422782231485344,0.3176612934676861,0.3251858724392883,0.2133922505322368
4.0,0.09881799668073654,0.0003982284686424324,"train",4300.0,"2021-11-25 16:17:57.161183","","","","","","",""
4.0,0.07201781123876572,0.0004010180604288045,"train",4320.0,"2021-11-25 16:18:00.373837","","","","","","",""
4.0,0.07891406118869781,0.00040381737320763873,"train",4340.0,"2021-11-25 16:18:03.547438","","","","","","",""
4.0,0.07531297206878662,0.0004066263643922878,"train",4360.0,"2021-11-25 16:18:06.716558","","","","","","",""
4.0,0.06845883280038834,0.0004094449912488646,"train",4380.0,"2021-11-25 16:18:09.776045","","","","","","",""
4.0,0.09042077511548996,0.0004122732108968923,"train",4400.0,"2021-11-25 16:18:13.303630","","","","","","",""
4.0,0.0620601661503315,0.0004151109803099558,"train",4420.0,"2021-11-25 16:18:16.355452","","","","","","",""
4.0,0.05768264830112457,0.00041795825631635764,"train",4440.0,"2021-11-25 16:18:19.516437","","","","","","",""
4.0,0.06385849416255951,0.0004208149955997739,"train",4460.0,"2021-11-25 16:18:22.753917","","","","","","",""
4.0,0.06008759140968323,0.0004236811546999141,"train",4480.0,"2021-11-25 16:18:26.351501","","","","","","",""
4.0,0.06355547159910202,0.0004265566900131805,"train",4500.0,"2021-11-25 16:18:29.441160","","","","","","",""
4.0,0.07892469316720963,0.0004294415577933337,"train",4520.0,"2021-11-25 16:18:32.481085","","","","","","",""
4.0,0.05506417527794838,0.00043233571415215717,"train",4540.0,"2021-11-25 16:18:35.607179","","","","","","",""
4.0,0.09430745244026184,0.0004352391150601242,"train",4560.0,"2021-11-25 16:18:38.785506","","","","","","",""
4.0,0.06512312591075897,0.0004381517163470684,"train",4580.0,"2021-11-25 16:18:42.397330","","","","","","",""
4.0,0.06863176077604294,0.00044107347370285683,"train",4600.0,"2021-11-25 16:18:45.548842","","","","","","",""
4.0,0.0813302993774414,0.00044400434267806194,"train",4620.0,"2021-11-25 16:18:48.689410","","","","","","",""
4.0,0.05995643883943558,0.00044694427868463907,"train",4640.0,"2021-11-25 16:18:51.838349","","","","","","",""
4.0,0.058387890458106995,0.00044989323699660467,"train",4660.0,"2021-11-25 16:18:55.286545","","","","","","",""
4.0,0.058077678084373474,0.0004528511727507165,"train",4680.0,"2021-11-25 16:18:58.290222","","","","","","",""
4.0,0.06325096637010574,0.00045581804094715645,"train",4700.0,"2021-11-25 16:19:01.454494","","","","","","",""
4.0,0.07730057090520859,0.00045879379645021425,"train",4720.0,"2021-11-25 16:19:04.610737","","","","","","",""
4.0,0.06722591817378998,0.0004617783939889759,"train",4740.0,"2021-11-25 16:19:07.768158","","","","","","",""
4.0,0.06908059120178223,0.0004647717881580103,"train",4760.0,"2021-11-25 16:19:11.321237","","","","","","",""
4.0,0.06819504499435425,0.0004677739334180617,"train",4780.0,"2021-11-25 16:19:14.356112","","","","","","",""
4.0,0.10301888734102249,0.00047078478409674144,"train",4800.0,"2021-11-25 16:19:17.397832","","","","","","",""
4.0,0.07257023453712463,0.00047380429438922305,"train",4820.0,"2021-11-25 16:19:20.535241","","","","","","",""
4.0,0.07275357097387314,0.00047683241835893946,"train",4840.0,"2021-11-25 16:19:24.114109","","","","","","",""
4.0,0.06332000344991684,0.0004798691099382815,"train",4860.0,"2021-11-25 16:19:27.127792","","","","","","",""
4.0,0.05923416465520859,0.0004829143229292986,"train",4880.0,"2021-11-25 16:19:30.130883","","","","","","",""
4.0,0.057036492973566055,0.0004859680110044023,"train",4900.0,"2021-11-25 16:19:33.214528","","","","","","",""
4.0,0.05870291590690613,0.0004890301277070699,"train",4920.0,"2021-11-25 16:19:36.255769","","","","","","",""
4.0,0.07771926373243332,0.0004921006264525525,"train",4940.0,"2021-11-25 16:19:39.811939","","","","","","",""
4.0,0.051039136946201324,0.0004951794605285824,"train",4960.0,"2021-11-25 16:19:42.896768","","","","","","",""
4.0,0.10204460471868515,0.0004982665830960853,"train",4980.0,"2021-11-25 16:19:45.988938","","","","","","",""
4.0,0.04633207246661186,0.0005013619471898913,"train",5000.0,"2021-11-25 16:19:49.063873","","","","","","",""
4.0,0.0868745967745781,0.0005044655057194504,"train",5020.0,"2021-11-25 16:19:52.548044","","","","","","",""
4.0,0.055831585079431534,0.0005075772114695486,"train",5040.0,"2021-11-25 16:19:55.642326","","","","","","",""
4.0,0.062112029641866684,0.0005106970171010257,"train",5060.0,"2021-11-25 16:19:58.742236","","","","","","",""
4.0,0.08475058525800705,0.0005138248751514966,"train",5080.0,"2021-11-25 16:20:01.747782","","","","","","",""
4.0,0.08645612001419067,0.0005169607380360731,"train",5100.0,"2021-11-25 16:20:04.674430","","","","","","",""
4.0,0.052007611840963364,0.000520104558048086,"train",5120.0,"2021-11-25 16:20:08.106867","","","","","","",""
4.0,0.09546133875846863,0.0005232562873598136,"train",5140.0,"2021-11-25 16:20:11.162049","","","","","","",""
4.0,0.09321420639753342,0.0005264158780232072,"train",5160.0,"2021-11-25 16:20:14.202240","","","","","","",""
4.0,0.0776798352599144,0.0005295832819706228,"train",5180.0,"2021-11-25 16:20:17.206243","","","","","","",""
4.0,0.08439329266548157,0.0005327584510155488,"train",5200.0,"2021-11-25 16:20:20.561574","","","","","","",""
4.0,0.06849925965070724,0.000535941336853343,"train",5220.0,"2021-11-25 16:20:23.532959","","","","","","",""
4.0,0.06860760599374771,0.0005391318910619655,"train",5240.0,"2021-11-25 16:20:26.524885","","","","","","",""
4.0,0.06692463159561157,0.0005423300651027144,"train",5260.0,"2021-11-25 16:20:29.451838","","","","","","",""
4.0,0.06272017955780029,0.0005455358103209663,"train",5280.0,"2021-11-25 16:20:32.379672","","","","","","",""
4.0,0.05968760326504707,0.0005487490779469157,"train",5300.0,"2021-11-25 16:20:35.713054","","","","","","",""
4.0,0.05023522302508354,0.000551969819096316,"train",5320.0,"2021-11-25 16:20:38.649888","","","","","","",""
4.0,0.05546920374035835,0.0005551979847712252,"train",5340.0,"2021-11-25 16:20:41.589949","","","","","","",""
4.0,0.08055219799280167,0.0005584335258607489,"train",5360.0,"2021-11-25 16:20:44.591560","","","","","","",""
4.0,"","","train",5370.0,"2021-11-25 16:22:14.536144",0.526304300371098,0.46194743981677056,0.9109213178635713,0.5177890892607332,0.35767394372126105,0.3604734504777251,0.24354143185243218
4.0,"","","val",5370.0,"2021-11-25 16:22:38.246155",0.5162936333062739,0.4514445616639829,0.902974831039556,0.500694857364502,0.34581588571446353,0.3469115362382435,0.2297826246563575
5.0,0.05496314913034439,0.0005616763931417894,"train",5380.0,"2021-11-25 16:22:42.716135","","","","","","",""
5.0,0.04821678623557091,0.0005649265372797939,"train",5400.0,"2021-11-25 16:22:45.900142","","","","","","",""
5.0,0.07338053733110428,0.0005681839088295046,"train",5420.0,"2021-11-25 16:22:49.065250","","","","","","",""
5.0,0.0762021467089653,0.0005714484582357109,"train",5440.0,"2021-11-25 16:22:52.240506","","","","","","",""
5.0,0.05093087628483772,0.0005747201358340048,"train",5460.0,"2021-11-25 16:22:55.899254","","","","","","",""
5.0,0.08219093829393387,0.0005779988918515344,"train",5480.0,"2021-11-25 16:22:59.101329","","","","","","",""
5.0,0.08242448419332504,0.0005812846764077623,"train",5500.0,"2021-11-25 16:23:02.287336","","","","","","",""
5.0,0.04785892739892006,0.0005845774395152243,"train",5520.0,"2021-11-25 16:23:05.437622","","","","","","",""
5.0,0.06315317004919052,0.0005878771310802895,"train",5540.0,"2021-11-25 16:23:08.515824","","","","","","",""
5.0,0.04780448228120804,0.0005911837009039229,"train",5560.0,"2021-11-25 16:23:12.030129","","","","","","",""
5.0,0.06821471452713013,0.0005944970986824485,"train",5580.0,"2021-11-25 16:23:15.110225","","","","","","",""
5.0,0.08431567251682281,0.000597817274008315,"train",5600.0,"2021-11-25 16:23:18.192440","","","","","","",""
5.0,0.07835588604211807,0.0006011441763708635,"train",5620.0,"2021-11-25 16:23:21.317092","","","","","","",""
5.0,0.08981066197156906,0.0006044777551570929,"train",5640.0,"2021-11-25 16:23:24.964622","","","","","","",""
5.0,0.07327292114496231,0.000607817959652434,"train",5660.0,"2021-11-25 16:23:28.024512","","","","","","",""
5.0,0.07309746742248535,0.0006111647390415189,"train",5680.0,"2021-11-25 16:23:31.118586","","","","","","",""
5.0,0.05709966644644737,0.0006145180424089525,"train",5700.0,"2021-11-25 16:23:34.311572","","","","","","",""
5.0,0.08463448286056519,0.0006178778187400902,"train",5720.0,"2021-11-25 16:23:37.468661","","","","","","",""
5.0,0.05815161392092705,0.0006212440169218129,"train",5740.0,"2021-11-25 16:23:40.865313","","","","","","",""
5.0,0.09281831979751587,0.0006246165857433027,"train",5760.0,"2021-11-25 16:23:43.881661","","","","","","",""
5.0,0.06518704444169998,0.0006279954738968251,"train",5780.0,"2021-11-25 16:23:47.018056","","","","","","",""
5.0,0.06021857634186745,0.0006313806299785075,"train",5800.0,"2021-11-25 16:23:50.190849","","","","","","",""
5.0,0.07521434873342514,0.0006347720024891209,"train",5820.0,"2021-11-25 16:23:53.730841","","","","","","",""
5.0,0.06481798738241196,0.0006381695398348657,"train",5840.0,"2021-11-25 16:23:56.814063","","","","","","",""
5.0,0.08567730337381363,0.0006415731903281542,"train",5860.0,"2021-11-25 16:23:59.969946","","","","","","",""
5.0,0.06232894957065582,0.0006449829021883979,"train",5880.0,"2021-11-25 16:24:03.133045","","","","","","",""
5.0,0.0707775354385376,0.0006483986235427956,"train",5900.0,"2021-11-25 16:24:06.216910","","","","","","",""
5.0,0.058093927800655365,0.0006518203024271213,"train",5920.0,"2021-11-25 16:24:09.619739","","","","","","",""
5.0,0.06226525083184242,0.0006552478867865169,"train",5940.0,"2021-11-25 16:24:12.631845","","","","","","",""
5.0,0.08754108101129532,0.0006586813244762815,"train",5960.0,"2021-11-25 16:24:15.736335","","","","","","",""
5.0,0.0696609765291214,0.0006621205632626672,"train",5980.0,"2021-11-25 16:24:18.826297","","","","","","",""
5.0,0.07002650946378708,0.0006655655508236717,"train",6000.0,"2021-11-25 16:24:22.372354","","","","","","",""
5.0,0.0836089625954628,0.0006690162347498356,"train",6020.0,"2021-11-25 16:24:25.530950","","","","","","",""
5.0,0.05864280089735985,0.0006724725625450389,"train",6040.0,"2021-11-25 16:24:28.723259","","","","","","",""
5.0,0.08968302607536316,0.0006759344816273003,"train",6060.0,"2021-11-25 16:24:31.905742","","","","","","",""
5.0,0.08205773681402206,0.0006794019393295771,"train",6080.0,"2021-11-25 16:24:35.025147","","","","","","",""
5.0,0.08342831581830978,0.0006828748829005654,"train",6100.0,"2021-11-25 16:24:38.386922","","","","","","",""
5.0,0.08478154242038727,0.0006863532595055041,"train",6120.0,"2021-11-25 16:24:41.470088","","","","","","",""
5.0,0.06263723224401474,0.0006898370162269777,"train",6140.0,"2021-11-25 16:24:44.584789","","","","","","",""
5.0,0.06664840131998062,0.0006933261000657217,"train",6160.0,"2021-11-25 16:24:47.629837","","","","","","",""
5.0,0.05340801179409027,0.000696820457941429,"train",6180.0,"2021-11-25 16:24:51.116178","","","","","","",""
5.0,0.11748859286308289,0.000700320036693557,"train",6200.0,"2021-11-25 16:24:54.076935","","","","","","",""
5.0,0.08643602579832077,0.0007038247830821358,"train",6220.0,"2021-11-25 16:24:57.190496","","","","","","",""
5.0,0.07314275205135345,0.0007073346437885815,"train",6240.0,"2021-11-25 16:25:00.271410","","","","","","",""
5.0,0.07309840619564056,0.000710849565416502,"train",6260.0,"2021-11-25 16:25:03.335650","","","","","","",""
5.0,0.07166759669780731,0.0007143694944925134,"train",6280.0,"2021-11-25 16:25:06.811637","","","","","","",""
5.0,0.05563272908329964,0.0007178943774670524,"train",6300.0,"2021-11-25 16:25:09.835943","","","","","","",""
5.0,0.06419479101896286,0.0007214241607151901,"train",6320.0,"2021-11-25 16:25:12.925852","","","","","","",""
5.0,0.051321085542440414,0.000724958790537449,"train",6340.0,"2021-11-25 16:25:16.083308","","","","","","",""
5.0,0.06902525573968887,0.0007284982131606195,"train",6360.0,"2021-11-25 16:25:19.544753","","","","","","",""
5.0,0.05277322977781296,0.0007320423747385781,"train",6380.0,"2021-11-25 16:25:22.670308","","","","","","",""
5.0,0.05815769359469414,0.0007355912213531054,"train",6400.0,"2021-11-25 16:25:25.759694","","","","","","",""
5.0,0.05912340059876442,0.000739144699014708,"train",6420.0,"2021-11-25 16:25:28.859202","","","","","","",""
5.0,0.060220543295145035,0.0007427027536634401,"train",6440.0,"2021-11-25 16:25:31.879186","","","","","","",""
5.0,"","","train",6444.0,"2021-11-25 16:27:01.180891",0.5361129302190206,0.4759520497427567,0.9132709759528805,0.5145283952404824,0.35772211093988177,0.3670844331174258,0.24117381214571154
5.0,"","","val",6444.0,"2021-11-25 16:27:24.528907",0.5292821523831613,0.4547228635411615,0.9050520695891279,0.50094613324941,0.3478249481971574,0.3541768658734453,0.23267824393638584
6.0,0.06083286926150322,0.0007462653311697235,"train",6460.0,"2021-11-25 16:27:29.879229","","","","","","",""
6.0,0.07033007591962814,0.0007498323773351733,"train",6480.0,"2021-11-25 16:27:32.961511","","","","","","",""
6.0,0.06228071078658104,0.0007534038378934223,"train",6500.0,"2021-11-25 16:27:36.059468","","","","","","",""
6.0,0.06648499518632889,0.0007569796585109453,"train",6520.0,"2021-11-25 16:27:39.078793","","","","","","",""
6.0,0.08313672989606857,0.0007605597847878862,"train",6540.0,"2021-11-25 16:27:42.512463","","","","","","",""
6.0,0.07924237847328186,0.0007641441622588871,"train",6560.0,"2021-11-25 16:27:45.531826","","","","","","",""
6.0,0.08443262428045273,0.0007677327363939143,"train",6580.0,"2021-11-25 16:27:48.535606","","","","","","",""
6.0,0.06335878372192383,0.0007713254525990895,"train",6600.0,"2021-11-25 16:27:51.542167","","","","","","",""
6.0,0.06805168092250824,0.0007749222562175211,"train",6620.0,"2021-11-25 16:27:54.624978","","","","","","",""
6.0,0.046635136008262634,0.000778523092530133,"train",6640.0,"2021-11-25 16:27:58.062271","","","","","","",""
6.0,0.053875453770160675,0.0007821279067564996,"train",6660.0,"2021-11-25 16:28:01.225629","","","","","","",""
6.0,0.06228076294064522,0.0007857366440556786,"train",6680.0,"2021-11-25 16:28:04.428819","","","","","","",""
6.0,0.07296263426542282,0.0007893492495270442,"train",6700.0,"2021-11-25 16:28:07.543579","","","","","","",""
6.0,0.05874622240662575,0.0007929656682111239,"train",6720.0,"2021-11-25 16:28:10.986466","","","","","","",""
6.0,0.07849275320768356,0.0007965858450904332,"train",6740.0,"2021-11-25 16:28:13.990966","","","","","","",""
6.0,0.06552810966968536,0.000800209725090314,"train",6760.0,"2021-11-25 16:28:17.025590","","","","","","",""
6.0,0.0578601099550724,0.0008038372530797706,"train",6780.0,"2021-11-25 16:28:20.057340","","","","","","",""
6.0,0.0812772884964943,0.0008074683738723109,"train",6800.0,"2021-11-25 16:28:23.088915","","","","","","",""
6.0,0.04472121223807335,0.0008111030322267832,"train",6820.0,"2021-11-25 16:28:26.540249","","","","","","",""
6.0,0.04860389232635498,0.0008147411728482187,"train",6840.0,"2021-11-25 16:28:29.712906","","","","","","",""
6.0,0.05062347277998924,0.0008183827403886721,"train",6860.0,"2021-11-25 16:28:32.916211","","","","","","",""
6.0,0.07822487503290176,0.0008220276794480633,"train",6880.0,"2021-11-25 16:28:35.955338","","","","","","",""
6.0,0.060749974101781845,0.0008256759345750203,"train",6900.0,"2021-11-25 16:28:39.530795","","","","","","",""
6.0,0.038868218660354614,0.0008293274502677234,"train",6920.0,"2021-11-25 16:28:42.715482","","","","","","",""
6.0,0.07266749441623688,0.0008329821709747486,"train",6940.0,"2021-11-25 16:28:45.847312","","","","","","",""
6.0,0.08060358464717865,0.0008366400410959136,"train",6960.0,"2021-11-25 16:28:49.020558","","","","","","",""
6.0,0.05409794673323631,0.000840301004983123,"train",6980.0,"2021-11-25 16:28:52.210405","","","","","","",""
6.0,0.06455401331186295,0.0008439650069412147,"train",7000.0,"2021-11-25 16:28:55.745300","","","","","","",""
6.0,0.04719650000333786,0.0008476319912288095,"train",7020.0,"2021-11-25 16:28:58.804886","","","","","","",""
6.0,0.07784440368413925,0.0008513019020591544,"train",7040.0,"2021-11-25 16:29:01.839681","","","","","","",""
6.0,0.06628436595201492,0.0008549746836009771,"train",7060.0,"2021-11-25 16:29:04.886359","","","","","","",""
6.0,0.1011088415980339,0.0008586502799793306,"train",7080.0,"2021-11-25 16:29:08.409076","","","","","","",""
6.0,0.07429277896881104,0.0008623286352764453,"train",7100.0,"2021-11-25 16:29:11.459073","","","","","","",""
6.0,0.05917772278189659,0.0008660096935325802,"train",7120.0,"2021-11-25 16:29:14.489881","","","","","","",""
6.0,0.07570328563451767,0.0008696933987468731,"train",7140.0,"2021-11-25 16:29:17.544676","","","","","","",""
6.0,0.06706313043832779,0.0008733796948781924,"train",7160.0,"2021-11-25 16:29:20.618142","","","","","","",""
6.0,0.05382771044969559,0.0008770685258459915,"train",7180.0,"2021-11-25 16:29:24.087360","","","","","","",""
6.0,0.06610141694545746,0.0008807598355311595,"train",7200.0,"2021-11-25 16:29:27.201972","","","","","","",""
6.0,0.05812245234847069,0.0008844535677768764,"train",7220.0,"2021-11-25 16:29:30.286367","","","","","","",""
6.0,0.08183525502681732,0.0008881496663894681,"train",7240.0,"2021-11-25 16:29:33.332171","","","","","","",""
6.0,0.06013154238462448,0.0008918480751392592,"train",7260.0,"2021-11-25 16:29:36.882152","","","","","","",""
6.0,0.06789932399988174,0.00089554873776143,"train",7280.0,"2021-11-25 16:29:40.044483","","","","","","",""
6.0,0.07836510241031647,0.0008992515979568724,"train",7300.0,"2021-11-25 16:29:43.185012","","","","","","",""
6.0,0.05805746465921402,0.0009029565993930457,"train",7320.0,"2021-11-25 16:29:46.324824","","","","","","",""
6.0,0.055501874536275864,0.0009066636857048339,"train",7340.0,"2021-11-25 16:29:49.462383","","","","","","",""
6.0,0.06297001987695694,0.0009103728004954039,"train",7360.0,"2021-11-25 16:29:53.092113","","","","","","",""
6.0,0.06869091093540192,0.0009140838873370617,"train",7380.0,"2021-11-25 16:29:56.236692","","","","","","",""
6.0,0.08414497971534729,0.0009177968897721136,"train",7400.0,"2021-11-25 16:29:59.241696","","","","","","",""
6.0,0.04747535288333893,0.0009215117513137218,"train",7420.0,"2021-11-25 16:30:02.395447","","","","","","",""
6.0,0.06831492483615875,0.0009252284154467663,"train",7440.0,"2021-11-25 16:30:05.930332","","","","","","",""
6.0,0.08875913172960281,0.0009289468256287042,"train",7460.0,"2021-11-25 16:30:09.110992","","","","","","",""
6.0,0.07974563539028168,0.0009326669252904287,"train",7480.0,"2021-11-25 16:30:12.222279","","","","","","",""
6.0,0.04421859607100487,0.0009363886578371307,"train",7500.0,"2021-11-25 16:30:15.374870","","","","","","",""
6.0,"","","train",7518.0,"2021-11-25 16:31:46.099239",0.5418176526231536,0.5053462051864447,0.9214470415300641,0.5180324869845603,0.3638324371518336,0.3804555611630682,0.24753550315745215
6.0,"","","val",7518.0,"2021-11-25 16:32:09.946614",0.5273106807375624,0.4815047069533866,0.9113344062140751,0.49935522993446685,0.3510111076535807,0.36318636029907,0.23535754616853521
7.0,0.07858376950025558,0.0009401119666491604,"train",7520.0,"2021-11-25 16:32:12.633508","","","","","","",""
7.0,0.04946513473987579,0.0009438367950828869,"train",7540.0,"2021-11-25 16:32:16.136241","","","","","","",""
7.0,0.04450429603457451,0.000947563086471561,"train",7560.0,"2021-11-25 16:32:19.247074","","","","","","",""
7.0,0.05886130407452583,0.0009512907841261783,"train",7580.0,"2021-11-25 16:32:22.355882","","","","","","",""
7.0,0.07219602912664413,0.0009550198313363391,"train",7600.0,"2021-11-25 16:32:25.363403","","","","","","",""
7.0,0.08340857177972794,0.0009587501713711128,"train",7620.0,"2021-11-25 16:32:28.765409","","","","","","",""
7.0,0.06734049320220947,0.0009624817474799023,"train",7640.0,"2021-11-25 16:32:31.801037","","","","","","",""
7.0,0.06816741824150085,0.0009662145028933038,"train",7660.0,"2021-11-25 16:32:34.991559","","","","","","",""
7.0,0.07207541167736053,0.0009699483808239733,"train",7680.0,"2021-11-25 16:32:38.069413","","","","","","",""
7.0,0.05451304838061333,0.0009736833244674895,"train",7700.0,"2021-11-25 16:32:41.069341","","","","","","",""
7.0,0.04482920095324516,0.0009774192770032192,"train",7720.0,"2021-11-25 16:32:44.490474","","","","","","",""
7.0,0.0733889639377594,0.0009811561815951785,"train",7740.0,"2021-11-25 16:32:47.560868","","","","","","",""
7.0,0.09812280535697937,0.0009848939813929015,"train",7760.0,"2021-11-25 16:32:50.589671","","","","","","",""
7.0,0.05193403363227844,0.0009886326195323026,"train",7780.0,"2021-11-25 16:32:53.604271","","","","","","",""
7.0,0.05514753237366676,0.0009923720391365428,"train",7800.0,"2021-11-25 16:32:57.089990","","","","","","",""
7.0,0.07463514804840088,0.000996112183316893,"train",7820.0,"2021-11-25 16:33:00.097359","","","","","","",""
7.0,0.055159881711006165,0.0009998529951736029,"train",7840.0,"2021-11-25 16:33:03.107998","","","","","","",""
7.0,0.06529101729393005,0.0010035944177967638,"train",7860.0,"2021-11-25 16:33:06.111363","","","","","","",""
7.0,0.04693026468157768,0.0010073363942671744,"train",7880.0,"2021-11-25 16:33:09.198105","","","","","","",""
7.0,0.05366409197449684,0.0010110788676572094,"train",7900.0,"2021-11-25 16:33:12.638500","","","","","","",""
7.0,0.061125751584768295,0.0010148217810316822,"train",7920.0,"2021-11-25 16:33:15.648494","","","","","","",""
7.0,0.07092700153589249,0.0010185650774487127,"train",7940.0,"2021-11-25 16:33:18.793900","","","","","","",""
7.0,0.07300657778978348,0.0010223086999605951,"train",7960.0,"2021-11-25 16:33:21.967261","","","","","","",""
7.0,0.0686294361948967,0.0010260525916146609,"train",7980.0,"2021-11-25 16:33:25.496609","","","","","","",""
7.0,0.058340296149253845,0.0010297966954541469,"train",8000.0,"2021-11-25 16:33:28.648134","","","","","","",""
7.0,0.057996004819869995,0.001033540954519064,"train",8020.0,"2021-11-25 16:33:31.740589","","","","","","",""
7.0,0.07922541350126266,0.0010372853118470592,"train",8040.0,"2021-11-25 16:33:34.879007","","","","","","",""
7.0,0.06911280006170273,0.0010410297104742857,"train",8060.0,"2021-11-25 16:33:37.893629","","","","","","",""
7.0,0.052374567836523056,0.0010447740934362692,"train",8080.0,"2021-11-25 16:33:41.351349","","","","","","",""
7.0,0.09035339951515198,0.0010485184037687715,"train",8100.0,"2021-11-25 16:33:44.351743","","","","","","",""
7.0,0.04903004318475723,0.0010522625845086615,"train",8120.0,"2021-11-25 16:33:47.344829","","","","","","",""
7.0,0.06621608138084412,0.0010560065786947796,"train",8140.0,"2021-11-25 16:33:50.412463","","","","","","",""
7.0,0.07052727043628693,0.0010597503293688013,"train",8160.0,"2021-11-25 16:33:53.860956","","","","","","",""
7.0,0.07414854317903519,0.001063493779576111,"train",8180.0,"2021-11-25 16:33:56.922200","","","","","","",""
7.0,0.06027993932366371,0.0010672368723666614,"train",8200.0,"2021-11-25 16:33:59.861590","","","","","","",""
7.0,0.072914719581604,0.0010709795507958426,"train",8220.0,"2021-11-25 16:34:02.831924","","","","","","",""
7.0,0.10773076862096786,0.0010747217579253504,"train",8240.0,"2021-11-25 16:34:05.834022","","","","","","",""
7.0,0.059570737183094025,0.0010784634368240487,"train",8260.0,"2021-11-25 16:34:09.325976","","","","","","",""
7.0,0.06450243294239044,0.0010822045305688382,"train",8280.0,"2021-11-25 16:34:12.306008","","","","","","",""
7.0,0.05366099625825882,0.0010859449822455227,"train",8300.0,"2021-11-25 16:34:15.281427","","","","","","",""
7.0,0.06443766504526138,0.001089684734949672,"train",8320.0,"2021-11-25 16:34:18.448304","","","","","","",""
7.0,0.08074181526899338,0.00109342373178749,"train",8340.0,"2021-11-25 16:34:21.949259","","","","","","",""
7.0,0.08371390402317047,0.0010971619158766821,"train",8360.0,"2021-11-25 16:34:25.012285","","","","","","",""
7.0,0.056603994220495224,0.0011008992303473152,"train",8380.0,"2021-11-25 16:34:28.137014","","","","","","",""
7.0,0.05609649047255516,0.001104635618342687,"train",8400.0,"2021-11-25 16:34:31.290501","","","","","","",""
7.0,0.061894889920949936,0.001108371023020191,"train",8420.0,"2021-11-25 16:34:34.453618","","","","","","",""
7.0,0.05842976272106171,0.0011121053875521787,"train",8440.0,"2021-11-25 16:34:38.080125","","","","","","",""
7.0,0.07554510980844498,0.0011158386551268257,"train",8460.0,"2021-11-25 16:34:41.181885","","","","","","",""
7.0,0.07937402278184891,0.0011195707689489972,"train",8480.0,"2021-11-25 16:34:44.318925","","","","","","",""
7.0,0.05937200412154198,0.0011233016722411097,"train",8500.0,"2021-11-25 16:34:47.457703","","","","","","",""
7.0,0.06081226095557213,0.0011270313082439951,"train",8520.0,"2021-11-25 16:34:51.010619","","","","","","",""
7.0,0.06655457615852356,0.001130759620217767,"train",8540.0,"2021-11-25 16:34:54.166944","","","","","","",""
7.0,0.06171061843633652,0.0011344865514426794,"train",8560.0,"2021-11-25 16:34:57.342680","","","","","","",""
7.0,0.05571878328919411,0.0011382120452199938,"train",8580.0,"2021-11-25 16:35:00.540582","","","","","","",""
7.0,"","","train",8592.0,"2021-11-25 16:36:29.711429",0.5563996216255548,0.5347190841376132,0.9289379530115429,0.5362805222062902,0.4033290484811245,0.4146852483759541,0.2768689150390723
7.0,"","","val",8592.0,"2021-11-25 16:36:53.319380",0.5405891221152731,0.5051182400590335,0.9176721313492641,0.514320106498447,0.38657111587193416,0.3960573317448268,0.25689924758645494
8.0,0.03702857717871666,0.001141936044872839,"train",8600.0,"2021-11-25 16:36:57.006941","","","","","","",""
8.0,0.05986170470714569,0.0011456584937470744,"train",8620.0,"2021-11-25 16:37:00.673244","","","","","","",""
8.0,0.07848229259252548,0.0011493793352121522,"train",8640.0,"2021-11-25 16:37:03.691514","","","","","","",""
8.0,0.04889519885182381,0.0011530985126619784,"train",8660.0,"2021-11-25 16:37:06.707669","","","","","","",""
8.0,0.06325938552618027,0.001156815969515773,"train",8680.0,"2021-11-25 16:37:09.697682","","","","","","",""
8.0,0.0444461889564991,0.001160531649218934,"train",8700.0,"2021-11-25 16:37:13.175146","","","","","","",""
8.0,0.0784258246421814,0.001164245495243894,"train",8720.0,"2021-11-25 16:37:16.337506","","","","","","",""
8.0,0.07615753263235092,0.0011679574510909817,"train",8740.0,"2021-11-25 16:37:19.376380","","","","","","",""
8.0,0.04946363717317581,0.0011716674602892828,"train",8760.0,"2021-11-25 16:37:22.414860","","","","","","",""
8.0,0.06870158761739731,0.0011753754663974968,"train",8780.0,"2021-11-25 16:37:25.518993","","","","","","",""
8.0,0.04389967396855354,0.0011790814130047968,"train",8800.0,"2021-11-25 16:37:28.970483","","","","","","",""
8.0,0.062495820224285126,0.001182785243731688,"train",8820.0,"2021-11-25 16:37:32.036723","","","","","","",""
8.0,0.08616580069065094,0.0011864869022308656,"train",8840.0,"2021-11-25 16:37:35.107968","","","","","","",""
8.0,0.07092668116092682,0.0011901863321880693,"train",8860.0,"2021-11-25 16:37:38.290677","","","","","","",""
8.0,0.06337155401706696,0.001193883477322945,"train",8880.0,"2021-11-25 16:37:41.784131","","","","","","",""
8.0,0.05947389453649521,0.0011975782813898961,"train",8900.0,"2021-11-25 16:37:44.819476","","","","","","",""
8.0,0.05939707159996033,0.0012012706881789417,"train",8920.0,"2021-11-25 16:37:47.879814","","","","","","",""
8.0,0.05835322290658951,0.001204960641516572,"train",8940.0,"2021-11-25 16:37:50.900039","","","","","","",""
8.0,0.07440586388111115,0.0012086480852666014,"train",8960.0,"2021-11-25 16:37:53.936009","","","","","","",""
8.0,0.06203897297382355,0.0012123329633310235,"train",8980.0,"2021-11-25 16:37:57.457314","","","","","","",""
8.0,0.04905964806675911,0.0012160152196508643,"train",9000.0,"2021-11-25 16:38:00.606831","","","","","","",""
8.0,0.047822918742895126,0.0012196947982070355,"train",9020.0,"2021-11-25 16:38:03.685891","","","","","","",""
8.0,0.048888325691223145,0.0012233716430211856,"train",9040.0,"2021-11-25 16:38:06.719049","","","","","","",""
8.0,0.04355550929903984,0.001227045698156553,"train",9060.0,"2021-11-25 16:38:10.229894","","","","","","",""
8.0,0.04156583547592163,0.0012307169077188148,"train",9080.0,"2021-11-25 16:38:13.254167","","","","","","",""
8.0,0.08383344113826752,0.0012343852158569401,"train",9100.0,"2021-11-25 16:38:16.287645","","","","","","",""
8.0,0.056885555386543274,0.0012380505667640377,"train",9120.0,"2021-11-25 16:38:19.421519","","","","","","",""
8.0,0.06715743988752365,0.0012417129046782046,"train",9140.0,"2021-11-25 16:38:22.597141","","","","","","",""
8.0,0.05910022556781769,0.0012453721738833758,"train",9160.0,"2021-11-25 16:38:26.174877","","","","","","",""
8.0,0.050779346376657486,0.001249028318710172,"train",9180.0,"2021-11-25 16:38:29.342921","","","","","","",""
8.0,0.06360112875699997,0.0012526812835367447,"train",9200.0,"2021-11-25 16:38:32.520004","","","","","","",""
8.0,0.07809388637542725,0.0012563310127896242,"train",9220.0,"2021-11-25 16:38:35.720811","","","","","","",""
8.0,0.060194239020347595,0.0012599774509445645,"train",9240.0,"2021-11-25 16:38:39.346654","","","","","","",""
8.0,0.0534486286342144,0.0012636205425273874,"train",9260.0,"2021-11-25 16:38:42.399112","","","","","","",""
8.0,0.05909591540694237,0.0012672602321148268,"train",9280.0,"2021-11-25 16:38:45.435055","","","","","","",""
8.0,0.05895703285932541,0.0012708964643353732,"train",9300.0,"2021-11-25 16:38:48.433725","","","","","","",""
8.0,0.05209875851869583,0.001274529183870114,"train",9320.0,"2021-11-25 16:38:51.473318","","","","","","",""
8.0,0.08822979032993317,0.0012781583354535748,"train",9340.0,"2021-11-25 16:38:54.919501","","","","","","",""
8.0,0.05892299860715866,0.0012817838638745646,"train",9360.0,"2021-11-25 16:38:57.919975","","","","","","",""
8.0,0.06543409824371338,0.001285405713977009,"train",9380.0,"2021-11-25 16:39:00.927140","","","","","","",""
8.0,0.07789018005132675,0.0012890238306607947,"train",9400.0,"2021-11-25 16:39:03.999277","","","","","","",""
8.0,0.06428806483745575,0.001292638158882606,"train",9420.0,"2021-11-25 16:39:07.500387","","","","","","",""
8.0,0.06392078101634979,0.0012962486436567603,"train",9440.0,"2021-11-25 16:39:10.584835","","","","","","",""
8.0,0.04832327365875244,0.0012998552300560484,"train",9460.0,"2021-11-25 16:39:13.736936","","","","","","",""
8.0,0.0610947385430336,0.0013034578632125668,"train",9480.0,"2021-11-25 16:39:16.921323","","","","","","",""
8.0,0.048670753836631775,0.0013070564883185534,"train",9500.0,"2021-11-25 16:39:20.083381","","","","","","",""
8.0,0.04972514510154724,0.001310651050627223,"train",9520.0,"2021-11-25 16:39:23.666328","","","","","","",""
8.0,0.0529789999127388,0.001314241495453598,"train",9540.0,"2021-11-25 16:39:26.671926","","","","","","",""
8.0,0.054535962641239166,0.00131782776817534,"train",9560.0,"2021-11-25 16:39:29.731055","","","","","","",""
8.0,0.0515463650226593,0.0013214098142335837,"train",9580.0,"2021-11-25 16:39:32.783689","","","","","","",""
8.0,0.05595463886857033,0.001324987579133764,"train",9600.0,"2021-11-25 16:39:36.237487","","","","","","",""
8.0,0.09462656080722809,0.0013285610084464463,"train",9620.0,"2021-11-25 16:39:39.387892","","","","","","",""
8.0,0.0640232115983963,0.001332130047808155,"train",9640.0,"2021-11-25 16:39:42.537486","","","","","","",""
8.0,0.07856956869363785,0.001335694642922199,"train",9660.0,"2021-11-25 16:39:45.691659","","","","","","",""
8.0,"","","train",9666.0,"2021-11-25 16:41:15.362125",0.5691188241286473,0.5446578849390278,0.9286166089203737,0.5598332953098619,0.4188646644701545,0.4425363298986559,0.2863083790819361
8.0,"","","val",9666.0,"2021-11-25 16:41:38.921858",0.5470253971935521,0.5096159655895273,0.9154972096724723,0.5299246123251671,0.39824218286980234,0.4178211359929972,0.26388011749608686
9.0,0.07796619087457657,0.0013392547395594985,"train",9680.0,"2021-11-25 16:41:43.548741","","","","","","",""
9.0,0.07526697963476181,0.001342810283559412,"train",9700.0,"2021-11-25 16:41:47.222336","","","","","","",""
9.0,0.04470592737197876,0.0013463612208305564,"train",9720.0,"2021-11-25 16:41:50.400702","","","","","","",""
9.0,0.05382358282804489,0.0013499074973516321,"train",9740.0,"2021-11-25 16:41:53.564778","","","","","","",""
9.0,0.07889722287654877,0.0013534490591722464,"train",9760.0,"2021-11-25 16:41:56.635765","","","","","","",""
9.0,0.06025747209787369,0.0013569858524137305,"train",9780.0,"2021-11-25 16:42:00.130058","","","","","","",""
9.0,0.09398768097162247,0.001360517823269962,"train",9800.0,"2021-11-25 16:42:03.192223","","","","","","",""
9.0,0.07797878980636597,0.0013640449180081834,"train",9820.0,"2021-11-25 16:42:06.291759","","","","","","",""
9.0,0.07241470366716385,0.0013675670829698173,"train",9840.0,"2021-11-25 16:42:09.408249","","","","","","",""
9.0,0.05269571766257286,0.0013710842645712853,"train",9860.0,"2021-11-25 16:42:12.451241","","","","","","",""
9.0,0.03464028984308243,0.0013745964093048219,"train",9880.0,"2021-11-25 16:42:15.933972","","","","","","",""
9.0,0.06277932971715927,0.0013781034637392886,"train",9900.0,"2021-11-25 16:42:19.085941","","","","","","",""
9.0,0.09280417114496231,0.0013816053745209864,"train",9920.0,"2021-11-25 16:42:22.237029","","","","","","",""
9.0,0.07573816180229187,0.0013851020883744697,"train",9940.0,"2021-11-25 16:42:25.389654","","","","","","",""
9.0,0.04787242040038109,0.001388593552103353,"train",9960.0,"2021-11-25 16:42:28.923907","","","","","","",""
9.0,0.06314695626497269,0.0013920797125911233,"train",9980.0,"2021-11-25 16:42:31.990549","","","","","","",""
9.0,0.052911825478076935,0.001395560516801947,"train",10000.0,"2021-11-25 16:42:35.039009","","","","","","",""
9.0,0.05632529407739639,0.0013990359117814774,"train",10020.0,"2021-11-25 16:42:38.084385","","","","","","",""
9.0,0.06398190557956696,0.0014025058446576583,"train",10040.0,"2021-11-25 16:42:41.129479","","","","","","",""
9.0,0.04232427477836609,0.0014059702626415317,"train",10060.0,"2021-11-25 16:42:44.660242","","","","","","",""
9.0,0.04350199177861214,0.0014094291130280377,"train",10080.0,"2021-11-25 16:42:47.733031","","","","","","",""
9.0,0.06886328011751175,0.0014128823431968183,"train",10100.0,"2021-11-25 16:42:50.799523","","","","","","",""
9.0,0.052062805742025375,0.001416329900613017,"train",10120.0,"2021-11-25 16:42:53.862116","","","","","","",""
9.0,0.055737175047397614,0.0014197717328280782,"train",10140.0,"2021-11-25 16:42:57.395203","","","","","","",""
9.0,0.059904925525188446,0.0014232077874805457,"train",10160.0,"2021-11-25 16:43:00.545265","","","","","","",""
9.0,0.06437273323535919,0.0014266380122968589,"train",10180.0,"2021-11-25 16:43:03.589516","","","","","","",""
9.0,0.0557093545794487,0.0014300623550921468,"train",10200.0,"2021-11-25 16:43:06.574224","","","","","","",""
9.0,0.05570875108242035,0.0014334807637710243,"train",10220.0,"2021-11-25 16:43:09.552433","","","","","","",""
9.0,0.07660466432571411,0.0014368931863283831,"train",10240.0,"2021-11-25 16:43:12.900017","","","","","","",""
9.0,0.10733883827924728,0.0014402995708501826,"train",10260.0,"2021-11-25 16:43:15.914932","","","","","","",""
9.0,0.05691815912723541,0.0014436998655142422,"train",10280.0,"2021-11-25 16:43:18.939025","","","","","","",""
9.0,0.05200624838471413,0.0014470940185910258,"train",10300.0,"2021-11-25 16:43:21.934152","","","","","","",""
9.0,0.07070595026016235,0.001450481978444431,"train",10320.0,"2021-11-25 16:43:25.337554","","","","","","",""
9.0,0.05261252820491791,0.0014538636935325763,"train",10340.0,"2021-11-25 16:43:28.355930","","","","","","",""
9.0,0.049733903259038925,0.0014572391124085817,"train",10360.0,"2021-11-25 16:43:31.434506","","","","","","",""
9.0,0.06107115000486374,0.0014606081837213525,"train",10380.0,"2021-11-25 16:43:34.582196","","","","","","",""
9.0,0.04392445087432861,0.0014639708562163639,"train",10400.0,"2021-11-25 16:43:37.745294","","","","","","",""
9.0,0.0856332927942276,0.001467327078736435,"train",10420.0,"2021-11-25 16:43:41.247491","","","","","","",""
9.0,0.06539983302354813,0.0014706768002225108,"train",10440.0,"2021-11-25 16:43:44.300130","","","","","","",""
9.0,0.05606928467750549,0.0014740199697144392,"train",10460.0,"2021-11-25 16:43:47.338864","","","","","","",""
9.0,0.051080986857414246,0.0014773565363517442,"train",10480.0,"2021-11-25 16:43:50.410342","","","","","","",""
9.0,0.07597540318965912,0.0014806864493744007,"train",10500.0,"2021-11-25 16:43:53.859527","","","","","","",""
9.0,0.05835703760385513,0.0014840096581236072,"train",10520.0,"2021-11-25 16:43:56.877162","","","","","","",""
9.0,0.056636299937963486,0.001487326112042556,"train",10540.0,"2021-11-25 16:43:59.887428","","","","","","",""
9.0,0.07223039865493774,0.0014906357606772013,"train",10560.0,"2021-11-25 16:44:02.961703","","","","","","",""
9.0,0.04633023217320442,0.0014939385536770291,"train",10580.0,"2021-11-25 16:44:06.091863","","","","","","",""
9.0,0.05896048620343208,0.0014972344407958218,"train",10600.0,"2021-11-25 16:44:09.694206","","","","","","",""
9.0,0.08078380674123764,0.0015005233718924213,"train",10620.0,"2021-11-25 16:44:12.840397","","","","","","",""
9.0,0.05258844047784805,0.0015038052969314946,"train",10640.0,"2021-11-25 16:44:15.983243","","","","","","",""
9.0,0.054181769490242004,0.0015070801659842939,"train",10660.0,"2021-11-25 16:44:19.160737","","","","","","",""
9.0,0.04882984235882759,0.001510347929229414,"train",10680.0,"2021-11-25 16:44:22.671357","","","","","","",""
9.0,0.06947976350784302,0.0015136085369535537,"train",10700.0,"2021-11-25 16:44:25.688268","","","","","","",""
9.0,0.05644757300615311,0.0015168619395522708,"train",10720.0,"2021-11-25 16:44:28.803741","","","","","","",""
9.0,0.03802794963121414,0.0015201080875307349,"train",10740.0,"2021-11-25 16:44:31.914263","","","","","","",""
9.0,"","","train",10740.0,"2021-11-25 16:46:00.200672",0.5888525067306992,0.5632710266445163,0.9359705559398185,0.5914984833729485,0.46314151034276396,0.474800576208553,0.3182724611637711
9.0,"","","val",10740.0,"2021-11-25 16:46:24.154834",0.5674939116316827,0.5314334946943083,0.9221812715904579,0.5646427074692942,0.44047393730714934,0.4501320047714811,0.29157289147840393
10.0,0.06968963146209717,0.0015233469315044834,"train",10760.0,"2021-11-25 16:46:29.656170","","","","","","",""
10.0,0.07351800054311752,0.0015265784222001709,"train",10780.0,"2021-11-25 16:46:33.214352","","","","","","",""
10.0,0.07414305955171585,0.0015298025104563185,"train",10800.0,"2021-11-25 16:46:36.294187","","","","","","",""
10.0,0.06594919413328171,0.001533019147224064,"train",10820.0,"2021-11-25 16:46:39.362883","","","","","","",""
10.0,0.048817992210388184,0.0015362282835679054,"train",10840.0,"2021-11-25 16:46:42.530165","","","","","","",""
10.0,0.048385895788669586,0.0015394298706664469,"train",10860.0,"2021-11-25 16:46:46.101292","","","","","","",""
10.0,0.04572388157248497,0.001542623859813141,"train",10880.0,"2021-11-25 16:46:49.262981","","","","","","",""
10.0,0.0426350012421608,0.00154581020241703,"train",10900.0,"2021-11-25 16:46:52.461674","","","","","","",""
10.0,0.06772462278604507,0.0015489888500034858,"train",10920.0,"2021-11-25 16:46:55.609024","","","","","","",""
10.0,0.06761382520198822,0.0015521597542149444,"train",10940.0,"2021-11-25 16:46:58.755902","","","","","","",""
10.0,0.08191734552383423,0.0015553228668116455,"train",10960.0,"2021-11-25 16:47:02.301075","","","","","","",""
10.0,0.06583037972450256,0.0015584781396723642,"train",10980.0,"2021-11-25 16:47:05.492044","","","","","","",""
10.0,0.06853990256786346,0.0015616255247951432,"train",11000.0,"2021-11-25 16:47:08.661353","","","","","","",""
10.0,0.054145824164152145,0.0015647649742980233,"train",11020.0,"2021-11-25 16:47:11.820818","","","","","","",""
10.0,0.054525744169950485,0.0015678964404197727,"train",11040.0,"2021-11-25 16:47:15.430817","","","","","","",""
10.0,0.049740251153707504,0.0015710198755206112,"train",11060.0,"2021-11-25 16:47:18.596507","","","","","","",""
10.0,0.07747597247362137,0.0015741352320829379,"train",11080.0,"2021-11-25 16:47:21.749158","","","","","","",""
10.0,0.04796828702092171,0.0015772424627120527,"train",11100.0,"2021-11-25 16:47:24.897149","","","","","","",""
10.0,0.05783623084425926,0.0015803415201368761,"train",11120.0,"2021-11-25 16:47:28.044547","","","","","","",""
10.0,0.06740225851535797,0.001583432357210671,"train",11140.0,"2021-11-25 16:47:31.539784","","","","","","",""
10.0,0.07216373085975647,0.001586514926911758,"train",11160.0,"2021-11-25 16:47:34.623795","","","","","","",""
10.0,0.05468311533331871,0.0015895891823442313,"train",11180.0,"2021-11-25 16:47:37.739330","","","","","","",""
10.0,0.039748404175043106,0.0015926550767386717,"train",11200.0,"2021-11-25 16:47:40.893076","","","","","","",""
10.0,0.08559031039476395,0.0015957125634528599,"train",11220.0,"2021-11-25 16:47:44.465361","","","","","","",""
10.0,0.07099480926990509,0.0015987615959724836,"train",11240.0,"2021-11-25 16:47:47.611308","","","","","","",""
10.0,0.04601973295211792,0.0016018021279118457,"train",11260.0,"2021-11-25 16:47:50.749378","","","","","","",""
10.0,0.04503297060728073,0.0016048341130145728,"train",11280.0,"2021-11-25 16:47:53.919510","","","","","","",""
10.0,0.05251026526093483,0.0016078575051543145,"train",11300.0,"2021-11-25 16:47:57.071096","","","","","","",""
10.0,0.0736662894487381,0.0016108722583354478,"train",11320.0,"2021-11-25 16:48:00.675824","","","","","","",""
10.0,0.044664639979600906,0.0016138783266937777,"train",11340.0,"2021-11-25 16:48:03.798928","","","","","","",""
10.0,0.05178029090166092,0.0016168756644972322,"train",11360.0,"2021-11-25 16:48:06.865472","","","","","","",""
10.0,0.04973098263144493,0.0016198642261465587,"train",11380.0,"2021-11-25 16:48:09.999810","","","","","","",""
10.0,0.05674025043845177,0.0016228439661760208,"train",11400.0,"2021-11-25 16:48:13.578306","","","","","","",""
10.0,0.078373983502388,0.001625814839254086,"train",11420.0,"2021-11-25 16:48:16.766641","","","","","","",""
10.0,0.04300372675061226,0.0016287768001841164,"train",11440.0,"2021-11-25 16:48:19.967770","","","","","","",""
10.0,0.04881329834461212,0.001631729803905059,"train",11460.0,"2021-11-25 16:48:23.021308","","","","","","",""
10.0,0.05090665444731712,0.0016346738054921273,"train",11480.0,"2021-11-25 16:48:26.056985","","","","","","",""
10.0,0.05936027318239212,0.001637608760157486,"train",11500.0,"2021-11-25 16:48:29.486362","","","","","","",""
10.0,0.07468999177217484,0.0016405346232509356,"train",11520.0,"2021-11-25 16:48:32.488359","","","","","","",""
10.0,0.06031930819153786,0.0016434513502605861,"train",11540.0,"2021-11-25 16:48:35.505374","","","","","","",""
10.0,0.044428881257772446,0.0016463588968135383,"train",11560.0,"2021-11-25 16:48:38.503788","","","","","","",""
10.0,0.06900385022163391,0.0016492572186765577,"train",11580.0,"2021-11-25 16:48:41.980895","","","","","","",""
10.0,0.08053962141275406,0.001652146271756747,"train",11600.0,"2021-11-25 16:48:45.132434","","","","","","",""
10.0,0.08180732280015945,0.0016550260121022172,"train",11620.0,"2021-11-25 16:48:48.287624","","","","","","",""
10.0,0.04009348154067993,0.0016578963959027562,"train",11640.0,"2021-11-25 16:48:51.434270","","","","","","",""
10.0,0.0754174292087555,0.001660757379490496,"train",11660.0,"2021-11-25 16:48:54.602434","","","","","","",""
10.0,0.0770321860909462,0.0016636089193405761,"train",11680.0,"2021-11-25 16:48:58.225048","","","","","","",""
10.0,0.05225282534956932,0.0016664509720718049,"train",11700.0,"2021-11-25 16:49:01.273739","","","","","","",""
10.0,0.061872534453868866,0.0016692834944473224,"train",11720.0,"2021-11-25 16:49:04.286104","","","","","","",""
10.0,0.07299847155809402,0.0016721064433752554,"train",11740.0,"2021-11-25 16:49:07.298308","","","","","","",""
10.0,0.050471097230911255,0.0016749197759093734,"train",11760.0,"2021-11-25 16:49:10.785856","","","","","","",""
10.0,0.0662798210978508,0.0016777234492497436,"train",11780.0,"2021-11-25 16:49:13.810757","","","","","","",""
10.0,0.06188825145363808,0.0016805174207433808,"train",11800.0,"2021-11-25 16:49:16.818744","","","","","","",""
10.0,"","","train",11814.0,"2021-11-25 16:50:47.986309",0.5889107181838027,0.5799582131568827,0.938856798956312,0.6071232624767717,0.4754539964355461,0.48954127945569315,0.3253130333445892
10.0,"","","val",11814.0,"2021-11-25 16:51:12.041029",0.5650585643047663,0.5380321747201915,0.9262968998427249,0.5748658152468125,0.45115676933312443,0.4619948233872905,0.29886778726396374
11.0,0.059863243252038956,0.0016833016478848956,"train",11820.0,"2021-11-25 16:51:15.365119","","","","","","",""
11.0,0.058863744139671326,0.0016860760883171426,"train",11840.0,"2021-11-25 16:51:18.484871","","","","","","",""
11.0,0.05686411261558533,0.001688840699831864,"train",11860.0,"2021-11-25 16:51:22.068171","","","","","","",""
11.0,0.04849929362535477,0.0016915954403703313,"train",11880.0,"2021-11-25 16:51:25.161713","","","","","","",""
11.0,0.04576808959245682,0.0016943402680239862,"train",11900.0,"2021-11-25 16:51:28.324120","","","","","","",""
11.0,0.07068073004484177,0.0016970751410350774,"train",11920.0,"2021-11-25 16:51:31.504284","","","","","","",""
11.0,0.05342941731214523,0.001699800017797296,"train",11940.0,"2021-11-25 16:51:35.119498","","","","","","",""
11.0,0.05891801044344902,0.0017025148568564086,"train",11960.0,"2021-11-25 16:51:38.282857","","","","","","",""
11.0,0.05874532088637352,0.001705219616910888,"train",11980.0,"2021-11-25 16:51:41.362012","","","","","","",""
11.0,0.06686679273843765,0.001707914256812541,"train",12000.0,"2021-11-25 16:51:44.440925","","","","","","",""
11.0,0.07353989034891129,0.0017105987355671352,"train",12020.0,"2021-11-25 16:51:47.531551","","","","","","",""
11.0,0.04493466764688492,0.0017132730123350227,"train",12040.0,"2021-11-25 16:51:51.053121","","","","","","",""
11.0,0.042991627007722855,0.00171593704643176,"train",12060.0,"2021-11-25 16:51:54.140464","","","","","","",""
11.0,0.047016169875860214,0.0017185907973287285,"train",12080.0,"2021-11-25 16:51:57.235419","","","","","","",""
11.0,0.049407072365283966,0.0017212342246537506,"train",12100.0,"2021-11-25 16:52:00.315695","","","","","","",""
11.0,0.05093693360686302,0.0017238672881917032,"train",12120.0,"2021-11-25 16:52:03.787366","","","","","","",""
11.0,0.045935362577438354,0.001726489947885131,"train",12140.0,"2021-11-25 16:52:06.859928","","","","","","",""
11.0,0.0466243214905262,0.0017291021638348543,"train",12160.0,"2021-11-25 16:52:09.939861","","","","","","",""
11.0,0.08255872875452042,0.0017317038963005765,"train",12180.0,"2021-11-25 16:52:13.050289","","","","","","",""
11.0,0.0642630085349083,0.00173429510570149,"train",12200.0,"2021-11-25 16:52:16.153541","","","","","","",""
11.0,0.07008273899555206,0.0017368757526168759,"train",12220.0,"2021-11-25 16:52:19.597206","","","","","","",""
11.0,0.057905636727809906,0.0017394457977867057,"train",12240.0,"2021-11-25 16:52:22.537572","","","","","","",""
11.0,0.0707143023610115,0.0017420052021122378,"train",12260.0,"2021-11-25 16:52:25.618842","","","","","","",""
11.0,0.05369056016206741,0.0017445539266566128,"train",12280.0,"2021-11-25 16:52:28.708207","","","","","","",""
11.0,0.0699244886636734,0.001747091932645445,"train",12300.0,"2021-11-25 16:52:32.178387","","","","","","",""
11.0,0.07669185847043991,0.0017496191814674125,"train",12320.0,"2021-11-25 16:52:35.256099","","","","","","",""
11.0,0.05247538536787033,0.001752135634674846,"train",12340.0,"2021-11-25 16:52:38.311052","","","","","","",""
11.0,0.0872407928109169,0.0017546412539843118,"train",12360.0,"2021-11-25 16:52:41.364547","","","","","","",""
11.0,0.07883155345916748,0.001757136001277194,"train",12380.0,"2021-11-25 16:52:44.415140","","","","","","",""
11.0,0.05596087872982025,0.001759619838600278,"train",12400.0,"2021-11-25 16:52:47.774823","","","","","","",""
11.0,0.062303755432367325,0.0017620927281663229,"train",12420.0,"2021-11-25 16:52:50.704489","","","","","","",""
11.0,0.05098435655236244,0.0017645546323546398,"train",12440.0,"2021-11-25 16:52:53.636290","","","","","","",""
11.0,0.03559481352567673,0.0017670055137116636,"train",12460.0,"2021-11-25 16:52:56.551879","","","","","","",""
11.0,0.05317995324730873,0.0017694453349515209,"train",12480.0,"2021-11-25 16:52:59.940551","","","","","","",""
11.0,0.06782982498407364,0.0017718740589566,"train",12500.0,"2021-11-25 16:53:02.859352","","","","","","",""
11.0,0.06322554498910904,0.0017742916487781134,"train",12520.0,"2021-11-25 16:53:05.780312","","","","","","",""
11.0,0.04476417973637581,0.0017766980676366608,"train",12540.0,"2021-11-25 16:53:08.707768","","","","","","",""
11.0,0.048545174300670624,0.001779093278922789,"train",12560.0,"2021-11-25 16:53:11.688587","","","","","","",""
11.0,0.07672366499900818,0.001781477246197548,"train",12580.0,"2021-11-25 16:53:15.044329","","","","","","",""
11.0,0.04880499094724655,0.0017838499331930462,"train",12600.0,"2021-11-25 16:53:17.970422","","","","","","",""
11.0,0.05297902226448059,0.001786211303813001,"train",12620.0,"2021-11-25 16:53:20.874114","","","","","","",""
11.0,0.0410933792591095,0.0017885613221332894,"train",12640.0,"2021-11-25 16:53:23.786789","","","","","","",""
11.0,0.08404258638620377,0.0017908999524024931,"train",12660.0,"2021-11-25 16:53:27.238359","","","","","","",""
11.0,0.041874006390571594,0.0017932271590424438,"train",12680.0,"2021-11-25 16:53:30.359666","","","","","","",""
11.0,0.054882898926734924,0.0017955429066487635,"train",12700.0,"2021-11-25 16:53:33.496627","","","","","","",""
11.0,0.051054369658231735,0.0017978471599914025,"train",12720.0,"2021-11-25 16:53:36.618200","","","","","","",""
11.0,0.08573702722787857,0.0018001398840151778,"train",12740.0,"2021-11-25 16:53:39.779319","","","","","","",""
11.0,0.04786893352866173,0.0018024210438403031,"train",12760.0,"2021-11-25 16:53:43.376933","","","","","","",""
11.0,0.061545416712760925,0.0018046906047629228,"train",12780.0,"2021-11-25 16:53:46.486533","","","","","","",""
11.0,0.05353061109781265,0.0018069485322556372,"train",12800.0,"2021-11-25 16:53:49.574525","","","","","","",""
11.0,0.05018793046474457,0.001809194791968029,"train",12820.0,"2021-11-25 16:53:52.642642","","","","","","",""
11.0,0.05485110357403755,0.0018114293497271863,"train",12840.0,"2021-11-25 16:53:56.097989","","","","","","",""
11.0,0.045011769980192184,0.0018136521715382218,"train",12860.0,"2021-11-25 16:53:59.156532","","","","","","",""
11.0,0.046365346759557724,0.0018158632235847892,"train",12880.0,"2021-11-25 16:54:02.303964","","","","","","",""
11.0,"","","train",12888.0,"2021-11-25 16:55:33.197244",0.6033034999636179,0.5986398015692648,0.9442317365890212,0.6143174731105328,0.4942249494065959,0.5047356167850297,0.34303245126629134
11.0,"","","val",12888.0,"2021-11-25 16:55:56.853730",0.5794966948857706,0.5505461313932574,0.9299844758627864,0.5816814754971468,0.46619546795642947,0.4731808126849341,0.31245513423365845
12.0,0.05160597339272499,0.0018180624722295999,"train",12900.0,"2021-11-25 16:56:01.106435","","","","","","",""
12.0,0.05316707119345665,0.001820249884014933,"train",12920.0,"2021-11-25 16:56:04.304160","","","","","","",""
12.0,0.0959797278046608,0.001822425425663144,"train",12940.0,"2021-11-25 16:56:07.854072","","","","","","",""
12.0,0.08238066732883453,0.0018245890640771725,"train",12960.0,"2021-11-25 16:56:11.000913","","","","","","",""
12.0,0.057507067918777466,0.0018267407663410452,"train",12980.0,"2021-11-25 16:56:14.203230","","","","","","",""
12.0,0.05235728621482849,0.0018288804997203755,"train",13000.0,"2021-11-25 16:56:17.392558","","","","","","",""
12.0,0.0637294203042984,0.0018310082316628634,"train",13020.0,"2021-11-25 16:56:20.966730","","","","","","",""
12.0,0.055955108255147934,0.0018331239297987893,"train",13040.0,"2021-11-25 16:56:24.007355","","","","","","",""
12.0,0.07199603319168091,0.0018352275619415066,"train",13060.0,"2021-11-25 16:56:27.082854","","","","","","",""
12.0,0.06773894280195236,0.0018373190960879326,"train",13080.0,"2021-11-25 16:56:30.114421","","","","","","",""
12.0,0.03859145566821098,0.0018393985004190336,"train",13100.0,"2021-11-25 16:56:33.176263","","","","","","",""
12.0,0.08063510805368423,0.00184146574330031,"train",13120.0,"2021-11-25 16:56:36.744573","","","","","","",""
12.0,0.05209802836179733,0.001843520793282278,"train",13140.0,"2021-11-25 16:56:39.937410","","","","","","",""
12.0,0.04577835276722908,0.0018455636191009464,"train",13160.0,"2021-11-25 16:56:43.111165","","","","","","",""
12.0,0.05064358189702034,0.001847594189678294,"train",13180.0,"2021-11-25 16:56:46.252064","","","","","","",""
12.0,0.0832030400633812,0.0018496124741227415,"train",13200.0,"2021-11-25 16:56:49.840361","","","","","","",""
12.0,0.07847107946872711,0.001851618441729622,"train",13220.0,"2021-11-25 16:56:53.022522","","","","","","",""
12.0,0.04560739919543266,0.0018536120619816467,"train",13240.0,"2021-11-25 16:56:56.051759","","","","","","",""
12.0,0.045866161584854126,0.0018555933045493712,"train",13260.0,"2021-11-25 16:56:59.105165","","","","","","",""
12.0,0.0796218141913414,0.0018575621392916554,"train",13280.0,"2021-11-25 16:57:02.126966","","","","","","",""
12.0,0.07457135617733002,0.0018595185362561225,"train",13300.0,"2021-11-25 16:57:05.619799","","","","","","",""
12.0,0.08904257416725159,0.0018614624656796155,"train",13320.0,"2021-11-25 16:57:08.635026","","","","","","",""
12.0,0.06718356907367706,0.0018633938979886484,"train",13340.0,"2021-11-25 16:57:11.640521","","","","","","",""
12.0,0.052527736872434616,0.0018653128037998568,"train",13360.0,"2021-11-25 16:57:14.645712","","","","","","",""
12.0,0.07264919579029083,0.0018672191539204459,"train",13380.0,"2021-11-25 16:57:18.116700","","","","","","",""
12.0,0.05492248758673668,0.0018691129193486335,"train",13400.0,"2021-11-25 16:57:21.107474","","","","","","",""
12.0,0.05475430563092232,0.0018709940712740908,"train",13420.0,"2021-11-25 16:57:24.104938","","","","","","",""
12.0,0.05947427451610565,0.0018728625810783823,"train",13440.0,"2021-11-25 16:57:27.125326","","","","","","",""
12.0,0.05679205805063248,0.0018747184203353996,"train",13460.0,"2021-11-25 16:57:30.143220","","","","","","",""
12.0,0.07646822184324265,0.0018765615608117947,"train",13480.0,"2021-11-25 16:57:33.530321","","","","","","",""
12.0,0.07000204175710678,0.0018783919744674096,"train",13500.0,"2021-11-25 16:57:36.680432","","","","","","",""
12.0,0.08463845402002335,0.0018802096334557027,"train",13520.0,"2021-11-25 16:57:39.850617","","","","","","",""
12.0,0.07007966935634613,0.0018820145101241712,"train",13540.0,"2021-11-25 16:57:42.992617","","","","","","",""
12.0,0.042142800986766815,0.0018838065770147745,"train",13560.0,"2021-11-25 16:57:46.605185","","","","","","",""
12.0,0.0411631241440773,0.0018855858068643496,"train",13580.0,"2021-11-25 16:57:49.749158","","","","","","",""
12.0,0.07327745109796524,0.001887352172605026,"train",13600.0,"2021-11-25 16:57:52.906224","","","","","","",""
12.0,0.0811147466301918,0.0018891056473646398,"train",13620.0,"2021-11-25 16:57:56.060344","","","","","","",""
12.0,0.04453812539577484,0.0018908462044671395,"train",13640.0,"2021-11-25 16:57:59.202921","","","","","","",""
12.0,0.046922095119953156,0.001892573817432993,"train",13660.0,"2021-11-25 16:58:02.817250","","","","","","",""
12.0,0.047103073447942734,0.0018942884599795914,"train",13680.0,"2021-11-25 16:58:05.881497","","","","","","",""
12.0,0.08545365929603577,0.001895990106021648,"train",13700.0,"2021-11-25 16:58:08.943024","","","","","","",""
12.0,0.055273283272981644,0.0018976787296715943,"train",13720.0,"2021-11-25 16:58:12.046746","","","","","","",""
12.0,0.04642479494214058,0.0018993543052399757,"train",13740.0,"2021-11-25 16:58:15.582127","","","","","","",""
12.0,0.08211207389831543,0.0019010168072358413,"train",13760.0,"2021-11-25 16:58:18.736679","","","","","","",""
12.0,0.09554419666528702,0.0019026662103671305,"train",13780.0,"2021-11-25 16:58:21.930195","","","","","","",""
12.0,0.07121768593788147,0.0019043024895410605,"train",13800.0,"2021-11-25 16:58:25.113566","","","","","","",""
12.0,0.04977947100996971,0.001905925619864506,"train",13820.0,"2021-11-25 16:58:28.273848","","","","","","",""
12.0,0.05237264931201935,0.001907535576644378,"train",13840.0,"2021-11-25 16:58:31.826012","","","","","","",""
12.0,0.05482029169797897,0.0019091323353880008,"train",13860.0,"2021-11-25 16:58:34.987470","","","","","","",""
12.0,0.05086398869752884,0.0019107158718034828,"train",13880.0,"2021-11-25 16:58:38.121836","","","","","","",""
12.0,0.03410503640770912,0.001912286161800088,"train",13900.0,"2021-11-25 16:58:41.272972","","","","","","",""
12.0,0.04331027716398239,0.0019138431814886008,"train",13920.0,"2021-11-25 16:58:44.894217","","","","","","",""
12.0,0.049773652106523514,0.0019153869071816896,"train",13940.0,"2021-11-25 16:58:48.030032","","","","","","",""
12.0,0.0923328772187233,0.0019169173153942693,"train",13960.0,"2021-11-25 16:58:51.047400","","","","","","",""
12.0,"","","train",13962.0,"2021-11-25 17:00:19.988769",0.5975987775594849,0.6019747428932928,0.9439655199529089,0.5982394840409299,0.4716920740895724,0.48852644655227057,0.32084295181175465
12.0,"","","val",13962.0,"2021-11-25 17:00:43.738600",0.5729444508871623,0.547154371371425,0.9272771193609851,0.564342934475584,0.4425835143637639,0.4563017960622281,0.29062695989707993
13.0,0.055557865649461746,0.0019184343828438557,"train",13980.0,"2021-11-25 17:00:48.851253","","","","","","",""
13.0,0.054201994091272354,0.0019199380864509208,"train",14000.0,"2021-11-25 17:00:51.931177","","","","","","",""
13.0,0.05254370719194412,0.0019214284033392457,"train",14020.0,"2021-11-25 17:00:55.473708","","","","","","",""
13.0,0.058785706758499146,0.0019229053108362649,"train",14040.0,"2021-11-25 17:00:58.530267","","","","","","",""
13.0,0.05698271468281746,0.0019243687864734145,"train",14060.0,"2021-11-25 17:01:01.722619","","","","","","",""
13.0,0.06653846055269241,0.0019258188079864732,"train",14080.0,"2021-11-25 17:01:04.919793","","","","","","",""
13.0,0.07319094240665436,0.0019272553533158999,"train",14100.0,"2021-11-25 17:01:08.526093","","","","","","",""
13.0,0.050833556801080704,0.0019286784006071697,"train",14120.0,"2021-11-25 17:01:11.558437","","","","","","",""
13.0,0.05246252566576004,0.0019300879282111083,"train",14140.0,"2021-11-25 17:01:14.642077","","","","","","",""
13.0,0.05608420446515083,0.0019314839146842185,"train",14160.0,"2021-11-25 17:01:17.739041","","","","","","",""
13.0,0.04335314780473709,0.0019328663387890076,"train",14180.0,"2021-11-25 17:01:20.830468","","","","","","",""
13.0,0.07947438210248947,0.0019342351794943119,"train",14200.0,"2021-11-25 17:01:24.304354","","","","","","",""
13.0,0.04539518430829048,0.0019355904159756138,"train",14220.0,"2021-11-25 17:01:27.415844","","","","","","",""
13.0,0.051922883838415146,0.0019369320276153613,"train",14240.0,"2021-11-25 17:01:30.527855","","","","","","",""
13.0,0.05944942682981491,0.00193825999400328,"train",14260.0,"2021-11-25 17:01:33.592582","","","","","","",""
13.0,0.051061227917671204,0.0019395742949366843,"train",14280.0,"2021-11-25 17:01:37.073222","","","","","","",""
13.0,0.06288938224315643,0.0019408749104207845,"train",14300.0,"2021-11-25 17:01:40.117630","","","","","","",""
13.0,0.03618565946817398,0.0019421618206689913,"train",14320.0,"2021-11-25 17:01:43.152368","","","","","","",""
13.0,0.06981243938207626,0.0019434350061032163,"train",14340.0,"2021-11-25 17:01:46.185609","","","","","","",""
13.0,0.05915026739239693,0.0019446944473541703,"train",14360.0,"2021-11-25 17:01:49.228252","","","","","","",""
13.0,0.0416996031999588,0.0019459401252616573,"train",14380.0,"2021-11-25 17:01:52.682451","","","","","","",""
13.0,0.05915413051843643,0.001947172020874868,"train",14400.0,"2021-11-25 17:01:55.712002","","","","","","",""
13.0,0.051359936594963074,0.0019483901154526647,"train",14420.0,"2021-11-25 17:01:58.726642","","","","","","",""
13.0,0.05135739967226982,0.0019495943904638694,"train",14440.0,"2021-11-25 17:02:01.777460","","","","","","",""
13.0,0.057739920914173126,0.0019507848275875444,"train",14460.0,"2021-11-25 17:02:05.256517","","","","","","",""
13.0,0.042944833636283875,0.0019519614087132712,"train",14480.0,"2021-11-25 17:02:08.309486","","","","","","",""
13.0,0.07133673876523972,0.0019531241159414263,"train",14500.0,"2021-11-25 17:02:11.363768","","","","","","",""
13.0,0.07061975449323654,0.001954272931583453,"train",14520.0,"2021-11-25 17:02:14.511644","","","","","","",""
13.0,0.05654894560575485,0.0019554078381621306,"train",14540.0,"2021-11-25 17:02:17.683629","","","","","","",""
13.0,0.08100251108407974,0.0019565288184118417,"train",14560.0,"2021-11-25 17:02:21.277983","","","","","","",""
13.0,0.06876329332590103,0.0019576358552788314,"train",14580.0,"2021-11-25 17:02:24.443320","","","","","","",""
13.0,0.04563794285058975,0.0019587289319214713,"train",14600.0,"2021-11-25 17:02:27.607787","","","","","","",""
13.0,0.042817503213882446,0.0019598080317105113,"train",14620.0,"2021-11-25 17:02:30.863791","","","","","","",""
13.0,0.03451884910464287,0.001960873138229337,"train",14640.0,"2021-11-25 17:02:34.373734","","","","","","",""
13.0,0.046466678380966187,0.0019619242352742153,"train",14660.0,"2021-11-25 17:02:37.412613","","","","","","",""
13.0,0.07616923004388809,0.001962961306854543,"train",14680.0,"2021-11-25 17:02:40.494073","","","","","","",""
13.0,0.037940386682748795,0.0019639843371930905,"train",14700.0,"2021-11-25 17:02:43.537221","","","","","","",""
13.0,0.04535185173153877,0.001964993310726241,"train",14720.0,"2021-11-25 17:02:46.590034","","","","","","",""
13.0,0.0619812048971653,0.0019659882121042262,"train",14740.0,"2021-11-25 17:02:50.014187","","","","","","",""
13.0,0.053798608481884,0.001966969026191363,"train",14760.0,"2021-11-25 17:02:53.015049","","","","","","",""
13.0,0.03586045280098915,0.0019679357380662805,"train",14780.0,"2021-11-25 17:02:55.981236","","","","","","",""
13.0,0.06634827703237534,0.001968888333022148,"train",14800.0,"2021-11-25 17:02:58.970993","","","","","","",""
13.0,0.07590781897306442,0.0019698267965669,"train",14820.0,"2021-11-25 17:03:02.547927","","","","","","",""
13.0,0.08324074745178223,0.0019707511144234557,"train",14840.0,"2021-11-25 17:03:05.720385","","","","","","",""
13.0,0.07063553482294083,0.001971661272529935,"train",14860.0,"2021-11-25 17:03:08.881474","","","","","","",""
13.0,0.08719057589769363,0.001972557257039875,"train",14880.0,"2021-11-25 17:03:11.938588","","","","","","",""
13.0,0.09403641521930695,0.0019734390543224385,"train",14900.0,"2021-11-25 17:03:14.990505","","","","","","",""
13.0,0.04576459527015686,0.001974306650962622,"train",14920.0,"2021-11-25 17:03:18.515639","","","","","","",""
13.0,0.04653897508978844,0.0019751600337614608,"train",14940.0,"2021-11-25 17:03:21.564842","","","","","","",""
13.0,0.053493477404117584,0.0019759991897362284,"train",14960.0,"2021-11-25 17:03:24.721539","","","","","","",""
13.0,0.06145589053630829,0.0019768241061206343,"train",14980.0,"2021-11-25 17:03:27.862997","","","","","","",""
13.0,0.05177121236920357,0.0019776347703650186,"train",15000.0,"2021-11-25 17:03:31.425130","","","","","","",""
13.0,0.06545042246580124,0.001978431170136543,"train",15020.0,"2021-11-25 17:03:34.607921","","","","","","",""
13.0,"","","train",15036.0,"2021-11-25 17:05:04.782981",0.6183657134541221,0.6283383191764333,0.9501392700122376,0.6392039462307739,0.5159657438812076,0.5374273246253769,0.3598803793150073
13.0,"","","val",15036.0,"2021-11-25 17:05:28.706988",0.5865128145656964,0.5639919811522631,0.931868515405183,0.5968913229232364,0.4729351638399376,0.49029232124896116,0.3135545283667443
14.0,0.034306593239307404,0.0019792132933193784,"train",15040.0,"2021-11-25 17:05:31.718111","","","","","","",""
14.0,0.042905744165182114,0.001979981128014888,"train",15060.0,"2021-11-25 17:05:34.924032","","","","","","",""
14.0,0.0376257598400116,0.001980734662541811,"train",15080.0,"2021-11-25 17:05:38.090609","","","","","","",""
14.0,0.050605013966560364,0.0019814738854364374,"train",15100.0,"2021-11-25 17:05:41.694453","","","","","","",""
14.0,0.05643796548247337,0.0019821987854527832,"train",15120.0,"2021-11-25 17:05:44.730681","","","","","","",""
14.0,0.05590539798140526,0.0019829093515627634,"train",15140.0,"2021-11-25 17:05:47.809353","","","","","","",""
14.0,0.08014686405658722,0.001983605572956358,"train",15160.0,"2021-11-25 17:05:50.886608","","","","","","",""
14.0,0.05204587057232857,0.001984287439041775,"train",15180.0,"2021-11-25 17:05:54.428739","","","","","","",""
14.0,0.05545331910252571,0.001984954939445616,"train",15200.0,"2021-11-25 17:05:57.529391","","","","","","",""
14.0,0.06506860256195068,0.0019856080640130295,"train",15220.0,"2021-11-25 17:06:00.635806","","","","","","",""
14.0,0.06271690130233765,0.0019862468028078676,"train",15240.0,"2021-11-25 17:06:03.745389","","","","","","",""
14.0,0.07405977696180344,0.001986871146112837,"train",15260.0,"2021-11-25 17:06:06.919199","","","","","","",""
14.0,0.07013147324323654,0.0019874810844296466,"train",15280.0,"2021-11-25 17:06:10.606365","","","","","","",""
14.0,0.043028052896261215,0.0019880766084791517,"train",15300.0,"2021-11-25 17:06:13.761550","","","","","","",""
14.0,0.0713176429271698,0.0019886577092014953,"train",15320.0,"2021-11-25 17:06:16.904165","","","","","","",""
14.0,0.04667343571782112,0.001989224377756247,"train",15340.0,"2021-11-25 17:06:19.960832","","","","","","",""
14.0,0.05038847401738167,0.0019897766055225353,"train",15360.0,"2021-11-25 17:06:23.421238","","","","","","",""
14.0,0.04612748324871063,0.0019903143840991813,"train",15380.0,"2021-11-25 17:06:26.598873","","","","","","",""
14.0,0.058442775160074234,0.0019908377053048246,"train",15400.0,"2021-11-25 17:06:29.623966","","","","","","",""
14.0,0.04048975929617882,0.001991346561178048,"train",15420.0,"2021-11-25 17:06:32.647601","","","","","","",""
14.0,0.08070357143878937,0.0019918409439775003,"train",15440.0,"2021-11-25 17:06:35.683112","","","","","","",""
14.0,0.08121008425951004,0.0019923208461820117,"train",15460.0,"2021-11-25 17:06:39.136519","","","","","","",""
14.0,0.051251623779535294,0.001992786260490709,"train",15480.0,"2021-11-25 17:06:42.108231","","","","","","",""
14.0,0.04576975852251053,0.0019932371798231287,"train",15500.0,"2021-11-25 17:06:45.037113","","","","","","",""
14.0,0.05246717482805252,0.0019936735973193212,"train",15520.0,"2021-11-25 17:06:47.970526","","","","","","",""
14.0,0.055860735476017,0.001994095506339958,"train",15540.0,"2021-11-25 17:06:51.417497","","","","","","",""
14.0,0.07017862796783447,0.001994502900466431,"train",15560.0,"2021-11-25 17:06:54.468573","","","","","","",""
14.0,0.047519803047180176,0.0019948957735009517,"train",15580.0,"2021-11-25 17:06:57.706139","","","","","","",""
14.0,0.0694444328546524,0.0019952741194666436,"train",15600.0,"2021-11-25 17:07:00.877264","","","","","","",""
14.0,0.07696086168289185,0.0019956379326076354,"train",15620.0,"2021-11-25 17:07:03.899351","","","","","","",""
14.0,0.042863618582487106,0.001995987207389146,"train",15640.0,"2021-11-25 17:07:07.429391","","","","","","",""
14.0,0.04985561966896057,0.0019963219384975706,"train",15660.0,"2021-11-25 17:07:10.515362","","","","","","",""
14.0,0.038563426584005356,0.001996642120840561,"train",15680.0,"2021-11-25 17:07:13.540566","","","","","","",""
14.0,0.05330955237150192,0.001996947749547103,"train",15700.0,"2021-11-25 17:07:16.690013","","","","","","",""
14.0,0.043788786977529526,0.0019972388199675905,"train",15720.0,"2021-11-25 17:07:20.223464","","","","","","",""
14.0,0.08835360407829285,0.001997515327673896,"train",15740.0,"2021-11-25 17:07:23.414279","","","","","","",""
14.0,0.045253727585077286,0.0019977772684594388,"train",15760.0,"2021-11-25 17:07:26.580660","","","","","","",""
14.0,0.0497627817094326,0.0019980246383392475,"train",15780.0,"2021-11-25 17:07:29.721887","","","","","","",""
14.0,0.041789568960666656,0.0019982574335500225,"train",15800.0,"2021-11-25 17:07:32.864580","","","","","","",""
14.0,0.07549773156642914,0.001998475650550192,"train",15820.0,"2021-11-25 17:07:36.482357","","","","","","",""
14.0,0.07130274921655655,0.0019986792860199657,"train",15840.0,"2021-11-25 17:07:39.623911","","","","","","",""
14.0,0.08845529705286026,0.001998868336861386,"train",15860.0,"2021-11-25 17:07:42.789037","","","","","","",""
14.0,0.04429180175065994,0.001999042800198376,"train",15880.0,"2021-11-25 17:07:45.988005","","","","","","",""
14.0,0.060964435338974,0.00199920267337678,"train",15900.0,"2021-11-25 17:07:49.603589","","","","","","",""
14.0,0.03637617826461792,0.0019993479539644077,"train",15920.0,"2021-11-25 17:07:52.776533","","","","","","",""
14.0,0.07179426401853561,0.0019994786397510697,"train",15940.0,"2021-11-25 17:07:55.957635","","","","","","",""
14.0,0.06414980441331863,0.0019995947287486096,"train",15960.0,"2021-11-25 17:07:59.025889","","","","","","",""
14.0,0.03821641206741333,0.0019996962191909367,"train",15980.0,"2021-11-25 17:08:02.054640","","","","","","",""
14.0,0.04249381273984909,0.0019997831095340513,"train",16000.0,"2021-11-25 17:08:05.489658","","","","","","",""
14.0,0.04634588956832886,0.001999855398456069,"train",16020.0,"2021-11-25 17:08:08.539954","","","","","","",""
14.0,0.05407905951142311,0.00199991308485724,"train",16040.0,"2021-11-25 17:08:11.494355","","","","","","",""
14.0,0.06389041990041733,0.001999956167859967,"train",16060.0,"2021-11-25 17:08:14.450914","","","","","","",""
14.0,0.04709186777472496,0.0019999846468088172,"train",16080.0,"2021-11-25 17:08:17.869582","","","","","","",""
14.0,0.05311824008822441,0.0019999985212705335,"train",16100.0,"2021-11-25 17:08:21.027946","","","","","","",""
14.0,"","","train",16110.0,"2021-11-25 17:09:51.530909",0.6175362002473986,0.6280138767809392,0.950439568261284,0.6414996070562432,0.529816228981986,0.5517955655073533,0.3651026133606987
14.0,"","","val",16110.0,"2021-11-25 17:10:15.199121",0.5806563840890642,0.5652140032881827,0.930479313973807,0.5954526644442774,0.4833219503911679,0.5025626531622468,0.3169318200181024
15.0,0.08204449713230133,0.0019999995774202316,"train",16120.0,"2021-11-25 17:10:19.230601","","","","","","",""
15.0,0.061284616589546204,0.0019999966438102564,"train",16140.0,"2021-11-25 17:10:22.438330","","","","","","",""
15.0,0.04634600505232811,0.0019999909162942875,"train",16160.0,"2021-11-25 17:10:26.103868","","","","","","",""
15.0,0.06458001583814621,0.001999982394888327,"train",16180.0,"2021-11-25 17:10:29.159977","","","","","","",""
15.0,0.04160979390144348,0.0019999710796161823,"train",16200.0,"2021-11-25 17:10:32.280661","","","","","","",""
15.0,0.04319123923778534,0.0019999569705094686,"train",16220.0,"2021-11-25 17:10:35.462922","","","","","","",""
15.0,0.04056858643889427,0.001999940067607605,"train",16240.0,"2021-11-25 17:10:38.619963","","","","","","",""
15.0,0.0577397458255291,0.001999920370957817,"train",16260.0,"2021-11-25 17:10:42.231573","","","","","","",""
15.0,0.0428173802793026,0.0019998978806151355,"train",16280.0,"2021-11-25 17:10:45.359256","","","","","","",""
15.0,0.0840933620929718,0.0019998725966423976,"train",16300.0,"2021-11-25 17:10:48.513758","","","","","","",""
15.0,0.05150787904858589,0.001999844519110244,"train",16320.0,"2021-11-25 17:10:51.661288","","","","","","",""
15.0,0.0687510222196579,0.001999813648097122,"train",16340.0,"2021-11-25 17:10:55.226218","","","","","","",""
15.0,0.06902042776346207,0.001999779983689282,"train",16360.0,"2021-11-25 17:10:58.428445","","","","","","",""
15.0,0.05022737383842468,0.0019997435259807806,"train",16380.0,"2021-11-25 17:11:01.558701","","","","","","",""
15.0,0.07075390964746475,0.001999704275073478,"train",16400.0,"2021-11-25 17:11:04.581657","","","","","","",""
15.0,0.06112227588891983,0.0019996622310770383,"train",16420.0,"2021-11-25 17:11:07.596439","","","","","","",""
15.0,0.0687049850821495,0.0019996173941089286,"train",16440.0,"2021-11-25 17:11:10.994182","","","","","","",""
15.0,0.06603385508060455,0.0019995697642944212,"train",16460.0,"2021-11-25 17:11:14.010788","","","","","","",""
15.0,0.06630314141511917,0.0019995193417665894,"train",16480.0,"2021-11-25 17:11:17.052781","","","","","","",""
15.0,0.0529065802693367,0.0019994661266663108,"train",16500.0,"2021-11-25 17:11:20.187123","","","","","","",""
15.0,0.0753902941942215,0.001999410119142264,"train",16520.0,"2021-11-25 17:11:23.734604","","","","","","",""
15.0,0.07252983003854752,0.0019993513193509297,"train",16540.0,"2021-11-25 17:11:26.885986","","","","","","",""
15.0,0.051535025238990784,0.0019992897274565906,"train",16560.0,"2021-11-25 17:11:29.928674","","","","","","",""
15.0,0.03493279963731766,0.0019992253436313303,"train",16580.0,"2021-11-25 17:11:33.047446","","","","","","",""
15.0,0.0533783994615078,0.0019991581680550313,"train",16600.0,"2021-11-25 17:11:36.173893","","","","","","",""
15.0,0.06436780095100403,0.0019990882009153785,"train",16620.0,"2021-11-25 17:11:39.651008","","","","","","",""
15.0,0.058188553899526596,0.001999015442407854,"train",16640.0,"2021-11-25 17:11:42.686165","","","","","","",""
15.0,0.0758456215262413,0.0019989398927357403,"train",16660.0,"2021-11-25 17:11:45.752036","","","","","","",""
15.0,0.07662291824817657,0.0019988615521101174,"train",16680.0,"2021-11-25 17:11:48.885660","","","","","","",""
15.0,0.07776561379432678,0.0019987804207498637,"train",16700.0,"2021-11-25 17:11:52.338592","","","","","","",""
15.0,0.06630697101354599,0.0019986964988816533,"train",16720.0,"2021-11-25 17:11:55.381623","","","","","","",""
15.0,0.03671394661068916,0.0019986097867399585,"train",16740.0,"2021-11-25 17:11:58.486062","","","","","","",""
15.0,0.032884381711483,0.0019985202845670463,"train",16760.0,"2021-11-25 17:12:01.640860","","","","","","",""
15.0,0.08673971146345139,0.0019984279926129798,"train",16780.0,"2021-11-25 17:12:04.825663","","","","","","",""
15.0,0.06552702188491821,0.001998332911135615,"train",16800.0,"2021-11-25 17:12:08.380142","","","","","","",""
15.0,0.11127559095621109,0.0019982350404006036,"train",16820.0,"2021-11-25 17:12:11.543699","","","","","","",""
15.0,0.04286263883113861,0.0019981343806813883,"train",16840.0,"2021-11-25 17:12:14.704154","","","","","","",""
15.0,0.0485110767185688,0.001998030932259205,"train",16860.0,"2021-11-25 17:12:17.832051","","","","","","",""
15.0,0.03492853045463562,0.0019979246954230823,"train",16880.0,"2021-11-25 17:12:21.431117","","","","","","",""
15.0,0.07343804836273193,0.0019978156704698363,"train",16900.0,"2021-11-25 17:12:24.466227","","","","","","",""
15.0,0.04563111066818237,0.001997703857704076,"train",16920.0,"2021-11-25 17:12:27.513612","","","","","","",""
15.0,0.042948540300130844,0.0019975892574381976,"train",16940.0,"2021-11-25 17:12:30.570714","","","","","","",""
15.0,0.04676802083849907,0.001997471869992386,"train",16960.0,"2021-11-25 17:12:33.583749","","","","","","",""
15.0,0.0865008756518364,0.0019973516956946127,"train",16980.0,"2021-11-25 17:12:36.977989","","","","","","",""
15.0,0.0630263239145279,0.0019972287348806366,"train",17000.0,"2021-11-25 17:12:40.000845","","","","","","",""
15.0,0.03952987492084503,0.0019971029878940003,"train",17020.0,"2021-11-25 17:12:43.035383","","","","","","",""
15.0,0.05271969735622406,0.0019969744550860317,"train",17040.0,"2021-11-25 17:12:46.069880","","","","","","",""
15.0,0.04299311712384224,0.0019968431368158433,"train",17060.0,"2021-11-25 17:12:49.577554","","","","","","",""
15.0,0.060512810945510864,0.001996709033450327,"train",17080.0,"2021-11-25 17:12:52.703350","","","","","","",""
15.0,0.06697095930576324,0.0019965721453641585,"train",17100.0,"2021-11-25 17:12:55.850026","","","","","","",""
15.0,0.0415102019906044,0.0019964324729397935,"train",17120.0,"2021-11-25 17:12:58.987981","","","","","","",""
15.0,0.05494038015604019,0.0019962900165674657,"train",17140.0,"2021-11-25 17:13:02.119074","","","","","","",""
15.0,0.04956059157848358,0.0019961447766451887,"train",17160.0,"2021-11-25 17:13:05.736357","","","","","","",""
15.0,0.04058234021067619,0.001995996753578751,"train",17180.0,"2021-11-25 17:13:08.863812","","","","","","",""
15.0,"","","train",17184.0,"2021-11-25 17:14:38.573052",0.6215236847849814,0.6398097193164701,0.9505101185832607,0.630887348764761,0.5108678333018237,0.5274580888800467,0.35822509226476906
15.0,"","","val",17184.0,"2021-11-25 17:15:01.833667",0.5832077003363099,0.5643372979848799,0.9292367861593215,0.5849383595523703,0.4695229744588794,0.48199818780452613,0.3124473024147481
16.0,0.05726111680269241,0.001995845947781719,"train",17200.0,"2021-11-25 17:15:06.744834","","","","","","",""
16.0,0.03254452720284462,0.001995692359675433,"train",17220.0,"2021-11-25 17:15:09.858340","","","","","","",""
16.0,0.053803954273462296,0.0019955359896890066,"train",17240.0,"2021-11-25 17:15:13.438740","","","","","","",""
16.0,0.051380448043346405,0.0019953768382593258,"train",17260.0,"2021-11-25 17:15:16.533513","","","","","","",""
16.0,0.03840351849794388,0.0019952149058310486,"train",17280.0,"2021-11-25 17:15:19.576141","","","","","","",""
16.0,0.0576908141374588,0.001995050192856602,"train",17300.0,"2021-11-25 17:15:22.577023","","","","","","",""
16.0,0.0596637986600399,0.001994882699796182,"train",17320.0,"2021-11-25 17:15:25.626761","","","","","","",""
16.0,0.06291571259498596,0.001994712427117752,"train",17340.0,"2021-11-25 17:15:29.201072","","","","","","",""
16.0,0.07634329795837402,0.0019945393752970413,"train",17360.0,"2021-11-25 17:15:32.301966","","","","","","",""
16.0,0.04474152997136116,0.001994363544817544,"train",17380.0,"2021-11-25 17:15:35.385413","","","","","","",""
16.0,0.040576331317424774,0.001994184936170517,"train",17400.0,"2021-11-25 17:15:38.526992","","","","","","",""
16.0,0.07276646792888641,0.0019940035498549804,"train",17420.0,"2021-11-25 17:15:41.937307","","","","","","",""
16.0,0.052082255482673645,0.0019938193863777145,"train",17440.0,"2021-11-25 17:15:44.927971","","","","","","",""
16.0,0.0462849885225296,0.001993632446253258,"train",17460.0,"2021-11-25 17:15:47.939680","","","","","","",""
16.0,0.06415216624736786,0.0019934427300039074,"train",17480.0,"2021-11-25 17:15:50.944801","","","","","","",""
16.0,0.04226125776767731,0.001993250238159717,"train",17500.0,"2021-11-25 17:15:53.983711","","","","","","",""
16.0,0.03455836698412895,0.0019930549712584944,"train",17520.0,"2021-11-25 17:15:57.558847","","","","","","",""
16.0,0.08530091494321823,0.001992856929845801,"train",17540.0,"2021-11-25 17:16:00.703389","","","","","","",""
16.0,0.0809856504201889,0.0019926561144749497,"train",17560.0,"2021-11-25 17:16:03.819891","","","","","","",""
16.0,0.05178578570485115,0.001992452525707004,"train",17580.0,"2021-11-25 17:16:06.933660","","","","","","",""
16.0,0.05470140278339386,0.0019922461641107767,"train",17600.0,"2021-11-25 17:16:10.534606","","","","","","",""
16.0,0.042391471564769745,0.001992037030262826,"train",17620.0,"2021-11-25 17:16:13.687491","","","","","","",""
16.0,0.05234578996896744,0.0019918251247474567,"train",17640.0,"2021-11-25 17:16:16.836879","","","","","","",""
16.0,0.04074259102344513,0.001991610448156718,"train",17660.0,"2021-11-25 17:16:19.969146","","","","","","",""
16.0,0.044116728007793427,0.0019913930010903996,"train",17680.0,"2021-11-25 17:16:23.113901","","","","","","",""
16.0,0.06133805215358734,0.001991172784156033,"train",17700.0,"2021-11-25 17:16:26.653749","","","","","","",""
16.0,0.04544597119092941,0.0019909497979688877,"train",17720.0,"2021-11-25 17:16:29.768637","","","","","","",""
16.0,0.043832529336214066,0.0019907240431519713,"train",17740.0,"2021-11-25 17:16:32.853686","","","","","","",""
16.0,0.030897017568349838,0.001990495520336026,"train",17760.0,"2021-11-25 17:16:35.882748","","","","","","",""
16.0,0.07796616852283478,0.0019902642301595284,"train",17780.0,"2021-11-25 17:16:39.309909","","","","","","",""
16.0,0.04268140345811844,0.001990030173268685,"train",17800.0,"2021-11-25 17:16:42.331465","","","","","","",""
16.0,0.040301527827978134,0.0019897933503174345,"train",17820.0,"2021-11-25 17:16:45.374027","","","","","","",""
16.0,0.055323127657175064,0.0019895537619674425,"train",17840.0,"2021-11-25 17:16:48.403129","","","","","","",""
16.0,0.06504129618406296,0.001989311408888101,"train",17860.0,"2021-11-25 17:16:51.399621","","","","","","",""
16.0,0.06625448167324066,0.001989066291756527,"train",17880.0,"2021-11-25 17:16:54.828886","","","","","","",""
16.0,0.03487512841820717,0.00198881841125756,"train",17900.0,"2021-11-25 17:16:57.899636","","","","","","",""
16.0,0.09353756159543991,0.0019885677680837595,"train",17920.0,"2021-11-25 17:17:00.953167","","","","","","",""
16.0,0.04424088075757027,0.001988314362935404,"train",17940.0,"2021-11-25 17:17:03.951856","","","","","","",""
16.0,0.026339499279856682,0.0019880581965204896,"train",17960.0,"2021-11-25 17:17:07.409729","","","","","","",""
16.0,0.07524873316287994,0.0019877992695547255,"train",17980.0,"2021-11-25 17:17:10.421471","","","","","","",""
16.0,0.041619788855314255,0.0019875375827615354,"train",18000.0,"2021-11-25 17:17:13.413658","","","","","","",""
16.0,0.050434794276952744,0.0019872731368720527,"train",18020.0,"2021-11-25 17:17:16.454357","","","","","","",""
16.0,0.06504605710506439,0.00198700593262512,"train",18040.0,"2021-11-25 17:17:19.526563","","","","","","",""
16.0,0.0336892232298851,0.001986735970767286,"train",18060.0,"2021-11-25 17:17:22.926143","","","","","","",""
16.0,0.054928552359342575,0.001986463252052804,"train",18080.0,"2021-11-25 17:17:25.942278","","","","","","",""
16.0,0.053463730961084366,0.0019861877772436305,"train",18100.0,"2021-11-25 17:17:28.951083","","","","","","",""
16.0,0.046853333711624146,0.001985909547109422,"train",18120.0,"2021-11-25 17:17:31.972443","","","","","","",""
16.0,0.0517541728913784,0.001985628562427533,"train",18140.0,"2021-11-25 17:17:35.378505","","","","","","",""
16.0,0.04486233741044998,0.001985344823983014,"train",18160.0,"2021-11-25 17:17:38.399389","","","","","","",""
16.0,0.0666450634598732,0.001985058332568609,"train",18180.0,"2021-11-25 17:17:41.386718","","","","","","",""
16.0,0.061746105551719666,0.001984769088984755,"train",18200.0,"2021-11-25 17:17:44.367077","","","","","","",""
16.0,0.040891580283641815,0.001984477094039576,"train",18220.0,"2021-11-25 17:17:47.382824","","","","","","",""
16.0,0.06670068949460983,0.001984182348548885,"train",18240.0,"2021-11-25 17:17:50.882437","","","","","","",""
16.0,"","","train",18258.0,"2021-11-25 17:19:23.522210",0.6270537728298042,0.6527002555424747,0.9525652029053874,0.640866733981568,0.5321349106578578,0.5479040588214236,0.37743093660643195
16.0,"","","val",18258.0,"2021-11-25 17:19:46.828107",0.5884842862112953,0.5720305568109209,0.9287129099367035,0.592420785653237,0.4846277964122875,0.4937916976111022,0.32289997812369226
17.0,0.0655372366309166,0.00198388485333618,"train",18260.0,"2021-11-25 17:19:49.505867","","","","","","",""
17.0,0.07092484831809998,0.0019835846092326396,"train",18280.0,"2021-11-25 17:19:52.625374","","","","","","",""
17.0,0.043000347912311554,0.0019832816170771246,"train",18300.0,"2021-11-25 17:19:55.707070","","","","","","",""
17.0,0.046296168118715286,0.001982975877716172,"train",18320.0,"2021-11-25 17:19:59.284065","","","","","","",""
17.0,0.04739827662706375,0.0019826673920039957,"train",18340.0,"2021-11-25 17:20:02.400217","","","","","","",""
17.0,0.08715087175369263,0.0019823561608024822,"train",18360.0,"2021-11-25 17:20:05.491340","","","","","","",""
17.0,0.04745222255587578,0.0019820421849811886,"train",18380.0,"2021-11-25 17:20:08.584426","","","","","","",""
17.0,0.050005603581666946,0.0019817254654173402,"train",18400.0,"2021-11-25 17:20:11.674469","","","","","","",""
17.0,0.04014936089515686,0.0019814060029958278,"train",18420.0,"2021-11-25 17:20:15.160336","","","","","","",""
17.0,0.05090861767530441,0.001981083798609206,"train",18440.0,"2021-11-25 17:20:18.267557","","","","","","",""
17.0,0.06739360839128494,0.0019807588531576908,"train",18460.0,"2021-11-25 17:20:21.394837","","","","","","",""
17.0,0.05461316928267479,0.0019804311675491555,"train",18480.0,"2021-11-25 17:20:24.494067","","","","","","",""
17.0,0.044340964406728745,0.00198010074269913,"train",18500.0,"2021-11-25 17:20:27.847202","","","","","","",""
17.0,0.07014331966638565,0.0019797675795307965,"train",18520.0,"2021-11-25 17:20:30.771379","","","","","","",""
17.0,0.04173099249601364,0.0019794316789749885,"train",18540.0,"2021-11-25 17:20:33.691842","","","","","","",""
17.0,0.043135836720466614,0.0019790930419701877,"train",18560.0,"2021-11-25 17:20:36.642182","","","","","","",""
17.0,0.04260912165045738,0.0019787516694625214,"train",18580.0,"2021-11-25 17:20:39.671554","","","","","","",""
17.0,0.05436301603913307,0.0019784075624057584,"train",18600.0,"2021-11-25 17:20:43.153728","","","","","","",""
17.0,0.0681617259979248,0.0019780607217613094,"train",18620.0,"2021-11-25 17:20:46.178546","","","","","","",""
17.0,0.043455589562654495,0.001977711148498221,"train",18640.0,"2021-11-25 17:20:49.128889","","","","","","",""
17.0,0.05695023015141487,0.0019773588435931756,"train",18660.0,"2021-11-25 17:20:52.156711","","","","","","",""
17.0,0.06727417558431625,0.0019770038080304873,"train",18680.0,"2021-11-25 17:20:55.658391","","","","","","",""
17.0,0.044613905251026154,0.001976646042802099,"train",18700.0,"2021-11-25 17:20:58.701529","","","","","","",""
17.0,0.08138129860162735,0.0019762855489075808,"train",18720.0,"2021-11-25 17:21:01.734821","","","","","","",""
17.0,0.08308174461126328,0.001975922327354126,"train",18740.0,"2021-11-25 17:21:04.750615","","","","","","",""
17.0,0.03774198517203331,0.001975556379156549,"train",18760.0,"2021-11-25 17:21:07.768658","","","","","","",""
17.0,0.07600212097167969,0.0019751877053372823,"train",18780.0,"2021-11-25 17:21:11.194454","","","","","","",""
17.0,0.06290075182914734,0.001974816306926373,"train",18800.0,"2021-11-25 17:21:14.238498","","","","","","",""
17.0,0.04524218663573265,0.001974442184961482,"train",18820.0,"2021-11-25 17:21:17.310583","","","","","","",""
17.0,0.07337019592523575,0.0019740653404878776,"train",18840.0,"2021-11-25 17:21:20.321382","","","","","","",""
17.0,0.03758807107806206,0.0019736857745584362,"train",18860.0,"2021-11-25 17:21:23.820734","","","","","","",""
17.0,0.07251494377851486,0.0019733034882336367,"train",18880.0,"2021-11-25 17:21:26.963609","","","","","","",""
17.0,0.03681590035557747,0.0019729184825815586,"train",18900.0,"2021-11-25 17:21:30.084995","","","","","","",""
17.0,0.0869620069861412,0.0019725307586778806,"train",18920.0,"2021-11-25 17:21:33.219302","","","","","","",""
17.0,0.06377973407506943,0.001972140317605874,"train",18940.0,"2021-11-25 17:21:36.351179","","","","","","",""
17.0,0.0785200223326683,0.0019717471604564028,"train",18960.0,"2021-11-25 17:21:39.886014","","","","","","",""
17.0,0.06481833755970001,0.0019713512883279185,"train",18980.0,"2021-11-25 17:21:42.981584","","","","","","",""
17.0,0.05830349028110504,0.00197095270232646,"train",19000.0,"2021-11-25 17:21:46.013238","","","","","","",""
17.0,0.04439633712172508,0.001970551403565646,"train",19020.0,"2021-11-25 17:21:49.076143","","","","","","",""
17.0,0.050568241626024246,0.0019701473931666765,"train",19040.0,"2021-11-25 17:21:52.577847","","","","","","",""
17.0,0.05117260292172432,0.001969740672258327,"train",19060.0,"2021-11-25 17:21:55.565574","","","","","","",""
17.0,0.06127629056572914,0.0019693312419769454,"train",19080.0,"2021-11-25 17:21:58.575037","","","","","","",""
17.0,0.052647192031145096,0.0019689191034664498,"train",19100.0,"2021-11-25 17:22:01.606422","","","","","","",""
17.0,0.05730127543210983,0.0019685042578783257,"train",19120.0,"2021-11-25 17:22:04.630112","","","","","","",""
17.0,0.056378986686468124,0.00196808670637162,"train",19140.0,"2021-11-25 17:22:08.149360","","","","","","",""
17.0,0.0841616541147232,0.001967666450112942,"train",19160.0,"2021-11-25 17:22:11.253686","","","","","","",""
17.0,0.05737883597612381,0.001967243490276456,"train",19180.0,"2021-11-25 17:22:14.425978","","","","","","",""
17.0,0.03758719936013222,0.0019668178280438818,"train",19200.0,"2021-11-25 17:22:17.633271","","","","","","",""
17.0,0.06259946525096893,0.0019663894646044875,"train",19220.0,"2021-11-25 17:22:21.185076","","","","","","",""
17.0,0.034941546618938446,0.001965958401155089,"train",19240.0,"2021-11-25 17:22:24.327193","","","","","","",""
17.0,0.060504842549562454,0.0019655246389000463,"train",19260.0,"2021-11-25 17:22:27.412604","","","","","","",""
17.0,0.03951994329690933,0.0019650881790512597,"train",19280.0,"2021-11-25 17:22:30.464164","","","","","","",""
17.0,0.06958218663930893,0.001964649022828165,"train",19300.0,"2021-11-25 17:22:33.550255","","","","","","",""
17.0,0.05791306868195534,0.0019642071714577325,"train",19320.0,"2021-11-25 17:22:37.016270","","","","","","",""
17.0,"","","train",19332.0,"2021-11-25 17:24:06.178870",0.6362948410099687,0.6611398777228621,0.9570462294629081,0.6687634213226152,0.5537739971576332,0.5757262805003829,0.3922466315993234
17.0,"","","val",19332.0,"2021-11-25 17:24:29.858373",0.5874985503884959,0.5675757509266199,0.9322982948275956,0.6099947604562906,0.49594084946456934,0.5097132892979408,0.32733307523210475
18.0,0.04049194976687431,0.0019637626261744634,"train",19340.0,"2021-11-25 17:24:33.472453","","","","","","",""
18.0,0.045945510268211365,0.001963315388220384,"train",19360.0,"2021-11-25 17:24:36.401780","","","","","","",""
18.0,0.07725976407527924,0.0019628654588450443,"train",19380.0,"2021-11-25 17:24:39.529529","","","","","","",""
18.0,0.04608030989766121,0.001962412839305514,"train",19400.0,"2021-11-25 17:24:43.182589","","","","","","",""
18.0,0.054333459585905075,0.0019619575308663785,"train",19420.0,"2021-11-25 17:24:46.330392","","","","","","",""
18.0,0.07786467671394348,0.001961499534799737,"train",19440.0,"2021-11-25 17:24:49.491831","","","","","","",""
18.0,0.07198024541139603,0.001961038852385196,"train",19460.0,"2021-11-25 17:24:52.637355","","","","","","",""
18.0,0.0397285632789135,0.0019605754849098683,"train",19480.0,"2021-11-25 17:24:55.784838","","","","","","",""
18.0,0.038227591663599014,0.0019601094336683693,"train",19500.0,"2021-11-25 17:24:59.224108","","","","","","",""
18.0,0.09242719411849976,0.0019596406999628116,"train",19520.0,"2021-11-25 17:25:02.318626","","","","","","",""
18.0,0.049844205379486084,0.0019591692851028022,"train",19540.0,"2021-11-25 17:25:05.336094","","","","","","",""
18.0,0.05753658711910248,0.001958695190405441,"train",19560.0,"2021-11-25 17:25:08.329410","","","","","","",""
18.0,0.08045735210180283,0.001958218417195312,"train",19580.0,"2021-11-25 17:25:11.764730","","","","","","",""
18.0,0.08505983650684357,0.001957738966804486,"train",19600.0,"2021-11-25 17:25:14.836328","","","","","","",""
18.0,0.07117615640163422,0.001957256840572511,"train",19620.0,"2021-11-25 17:25:17.909567","","","","","","",""
18.0,0.05539883300662041,0.0019567720398464133,"train",19640.0,"2021-11-25 17:25:21.016178","","","","","","",""
18.0,0.03802533075213432,0.00195628456598069,"train",19660.0,"2021-11-25 17:25:24.123799","","","","","","",""
18.0,0.04129176586866379,0.001955794420337307,"train",19680.0,"2021-11-25 17:25:27.622171","","","","","","",""
18.0,0.05217641219496727,0.0019553016042856957,"train",19700.0,"2021-11-25 17:25:30.717580","","","","","","",""
18.0,0.05524403974413872,0.001954806119202748,"train",19720.0,"2021-11-25 17:25:33.794275","","","","","","",""
18.0,0.06469020992517471,0.001954307966472812,"train",19740.0,"2021-11-25 17:25:36.738787","","","","","","",""
18.0,0.05280567333102226,0.0019538071474876914,"train",19760.0,"2021-11-25 17:25:40.195885","","","","","","",""
18.0,0.07424014061689377,0.001953303663646636,"train",19780.0,"2021-11-25 17:25:43.295655","","","","","","",""
18.0,0.07014498859643936,0.0019527975163563436,"train",19800.0,"2021-11-25 17:25:46.433333","","","","","","",""
18.0,0.07782148569822311,0.0019522887070309524,"train",19820.0,"2021-11-25 17:25:49.548913","","","","","","",""
18.0,0.051798392087221146,0.0019517772370920379,"train",19840.0,"2021-11-25 17:25:52.689754","","","","","","",""
18.0,0.04957500845193863,0.0019512631079686104,"train",19860.0,"2021-11-25 17:25:56.223399","","","","","","",""
18.0,0.045722946524620056,0.001950746321097108,"train",19880.0,"2021-11-25 17:25:59.388870","","","","","","",""
18.0,0.04488782957196236,0.0019502268779213957,"train",19900.0,"2021-11-25 17:26:02.548310","","","","","","",""
18.0,0.06402000784873962,0.0019497047798927598,"train",19920.0,"2021-11-25 17:26:05.708486","","","","","","",""
18.0,0.07318835705518723,0.001949180028469903,"train",19940.0,"2021-11-25 17:26:09.179600","","","","","","",""
18.0,0.030705109238624573,0.0019486526251189435,"train",19960.0,"2021-11-25 17:26:12.175944","","","","","","",""
18.0,0.045006342232227325,0.0019481225713134064,"train",19980.0,"2021-11-25 17:26:15.163471","","","","","","",""
18.0,0.03891606628894806,0.0019475898685342235,"train",20000.0,"2021-11-25 17:26:18.220384","","","","","","",""
18.0,0.031623657792806625,0.0019470545182697272,"train",20020.0,"2021-11-25 17:26:21.305375","","","","","","",""
18.0,0.06540899723768234,0.001946516522015647,"train",20040.0,"2021-11-25 17:26:24.779487","","","","","","",""
18.0,0.04566802456974983,0.0019459758812751047,"train",20060.0,"2021-11-25 17:26:27.942726","","","","","","",""
18.0,0.08936478942632675,0.0019454325975586106,"train",20080.0,"2021-11-25 17:26:31.146767","","","","","","",""
18.0,0.05198422074317932,0.0019448866723840602,"train",20100.0,"2021-11-25 17:26:34.350879","","","","","","",""
18.0,0.03630087152123451,0.001944338107276728,"train",20120.0,"2021-11-25 17:26:37.910684","","","","","","",""
18.0,0.048462577164173126,0.0019437869037692644,"train",20140.0,"2021-11-25 17:26:40.926808","","","","","","",""
18.0,0.039616137742996216,0.0019432330634016912,"train",20160.0,"2021-11-25 17:26:43.954362","","","","","","",""
18.0,0.05106866732239723,0.0019426765877213986,"train",20180.0,"2021-11-25 17:26:46.956966","","","","","","",""
18.0,0.04419928044080734,0.0019421174782831383,"train",20200.0,"2021-11-25 17:26:49.964968","","","","","","",""
18.0,0.05837266147136688,0.0019415557366490208,"train",20220.0,"2021-11-25 17:26:53.397981","","","","","","",""
