"epoch","loss","lr","part","step","time","accuracy","auprc","auroc","challenge_metric","f_beta_measure","f_measure","g_beta_measure"
0.0,0.21815751492977142,8.000730236035311e-05,"train",20.0,"2021-11-22 17:36:44.431586","","","","","","",""
0.0,0.15533137321472168,8.002920933031948e-05,"train",40.0,"2021-11-22 17:36:47.654216","","","","","","",""
0.0,0.14231811463832855,8.006572057662293e-05,"train",60.0,"2021-11-22 17:36:50.837185","","","","","","",""
0.0,0.12821869552135468,8.011683554380914e-05,"train",80.0,"2021-11-22 17:36:54.064622","","","","","","",""
0.0,0.13434891402721405,8.018255345425274e-05,"train",100.0,"2021-11-22 17:36:58.024214","","","","","","",""
0.0,0.11731240153312683,8.026287330817079e-05,"train",120.0,"2021-11-22 17:37:01.220240","","","","","","",""
0.0,0.13200552761554718,8.03577938836373e-05,"train",140.0,"2021-11-22 17:37:04.408181","","","","","","",""
0.0,0.10922164469957352,8.04673137366021e-05,"train",160.0,"2021-11-22 17:37:07.557908","","","","","","",""
0.0,0.11234904080629349,8.059143120091187e-05,"train",180.0,"2021-11-22 17:37:10.760072","","","","","","",""
0.0,0.1017533466219902,8.073014438833613e-05,"train",200.0,"2021-11-22 17:37:13.967173","","","","","","",""
0.0,0.10278678685426712,8.088345118859724e-05,"train",220.0,"2021-11-22 17:37:17.159573","","","","","","",""
0.0,0.1090969517827034,8.10513492693996e-05,"train",240.0,"2021-11-22 17:37:20.340224","","","","","","",""
0.0,0.13692501187324524,8.123383607646804e-05,"train",260.0,"2021-11-22 17:37:23.555889","","","","","","",""
0.0,0.10984589904546738,8.143090883358495e-05,"train",280.0,"2021-11-22 17:37:26.768382","","","","","","",""
0.0,0.11105066537857056,8.164256454263295e-05,"train",300.0,"2021-11-22 17:37:29.938946","","","","","","",""
0.0,0.09911361336708069,8.186879998364088e-05,"train",320.0,"2021-11-22 17:37:33.090942","","","","","","",""
0.0,0.10197282582521439,8.210961171483213e-05,"train",340.0,"2021-11-22 17:37:36.888496","","","","","","",""
0.0,0.11025654524564743,8.236499607267717e-05,"train",360.0,"2021-11-22 17:37:40.005568","","","","","","",""
0.0,0.10362230241298676,8.26349491719505e-05,"train",380.0,"2021-11-22 17:37:43.204021","","","","","","",""
0.0,0.10946270823478699,8.291946690578713e-05,"train",400.0,"2021-11-22 17:37:46.309380","","","","","","",""
0.0,0.08007178455591202,8.321854494574774e-05,"train",420.0,"2021-11-22 17:37:49.438735","","","","","","",""
0.0,0.11049208045005798,8.353217874188293e-05,"train",440.0,"2021-11-22 17:37:52.626400","","","","","","",""
0.0,0.11321559548377991,8.38603635228035e-05,"train",460.0,"2021-11-22 17:37:55.804491","","","","","","",""
0.0,0.10208834707736969,8.420309429575212e-05,"train",480.0,"2021-11-22 17:37:58.945116","","","","","","",""
0.0,0.10637034475803375,8.456036584667914e-05,"train",500.0,"2021-11-22 17:38:02.071359","","","","","","",""
0.0,0.10652298480272293,8.493217274032315e-05,"train",520.0,"2021-11-22 17:38:05.198051","","","","","","",""
0.0,0.11364258080720901,8.531850932029235e-05,"train",540.0,"2021-11-22 17:38:08.355933","","","","","","",""
0.0,0.10985532402992249,8.571936970915212e-05,"train",560.0,"2021-11-22 17:38:12.134485","","","","","","",""
0.0,0.1096956804394722,8.613474780851246e-05,"train",580.0,"2021-11-22 17:38:15.285069","","","","","","",""
0.0,0.09931521862745285,8.656463729912224e-05,"train",600.0,"2021-11-22 17:38:18.421184","","","","","","",""
0.0,0.09859160333871841,8.700903164096468e-05,"train",620.0,"2021-11-22 17:38:21.593109","","","","","","",""
0.0,0.09598765522241592,8.746792407335769e-05,"train",640.0,"2021-11-22 17:38:24.732954","","","","","","",""
0.0,0.08000525087118149,8.794130761505497e-05,"train",660.0,"2021-11-22 17:38:27.896536","","","","","","",""
0.0,0.10397683084011078,8.842917506435462e-05,"train",680.0,"2021-11-22 17:38:30.897039","","","","","","",""
0.0,0.09824854135513306,8.893151899920645e-05,"train",700.0,"2021-11-22 17:38:33.938547","","","","","","",""
0.0,0.11693158000707626,8.944833177732632e-05,"train",720.0,"2021-11-22 17:38:37.028613","","","","","","",""
0.0,0.09141504019498825,8.997960553631186e-05,"train",740.0,"2021-11-22 17:38:40.167701","","","","","","",""
0.0,0.09898895770311356,9.052533219376224e-05,"train",760.0,"2021-11-22 17:38:43.325985","","","","","","",""
0.0,0.09010615944862366,9.108550344740104e-05,"train",780.0,"2021-11-22 17:38:46.495513","","","","","","",""
0.0,0.09381276369094849,9.166011077520208e-05,"train",800.0,"2021-11-22 17:38:50.382891","","","","","","",""
0.0,0.09673264622688293,9.224914543552059e-05,"train",820.0,"2021-11-22 17:38:53.569746","","","","","","",""
0.0,0.10046816617250443,9.285259846722417e-05,"train",840.0,"2021-11-22 17:38:56.740111","","","","","","",""
0.0,0.08571918308734894,9.34704606898307e-05,"train",860.0,"2021-11-22 17:38:59.926647","","","","","","",""
0.0,0.11287761479616165,9.410272270364735e-05,"train",880.0,"2021-11-22 17:39:03.027238","","","","","","",""
0.0,0.09647010266780853,9.474937488991348e-05,"train",900.0,"2021-11-22 17:39:06.189491","","","","","","",""
0.0,0.09247846156358719,9.541040741094719e-05,"train",920.0,"2021-11-22 17:39:09.333380","","","","","","",""
0.0,0.0931224524974823,9.608581021029522e-05,"train",940.0,"2021-11-22 17:39:12.522400","","","","","","",""
0.0,0.09249129891395569,9.677557301288509e-05,"train",960.0,"2021-11-22 17:39:15.681858","","","","","","",""
0.0,0.08515071868896484,9.747968532518238e-05,"train",980.0,"2021-11-22 17:39:18.844969","","","","","","",""
0.0,0.08832144737243652,9.819813643535029e-05,"train",1000.0,"2021-11-22 17:39:22.020346","","","","","","",""
0.0,0.10701420158147812,9.893091541341185e-05,"train",1020.0,"2021-11-22 17:39:25.787007","","","","","","",""
0.0,0.09273190796375275,9.967801111141644e-05,"train",1040.0,"2021-11-22 17:39:28.899489","","","","","","",""
0.0,0.07250625640153885,0.00010043941216361023,"train",1060.0,"2021-11-22 17:39:32.003293","","","","","","",""
0.0,"","","train",1074.0,"2021-11-22 17:41:06.698017",0.39975260132431056,0.30431961474113023,0.8388735725808364,0.4038466937631139,0.2552879354434633,0.25037030989038267,0.15419122538346006
0.0,"","","val",1074.0,"2021-11-22 17:41:31.574919",0.39562797170358344,0.2980354591822603,0.8296984522198566,0.38969686557018673,0.24765906077057082,0.24156210231792707,0.14734914157157475
1.0,0.09676381945610046,0.00010121510698660771,"train",1080.0,"2021-11-22 17:41:35.407704","","","","","","",""
1.0,0.09525053948163986,0.00010200508377956928,"train",1100.0,"2021-11-22 17:41:38.864691","","","","","","",""
1.0,0.09686487168073654,0.00010280933052437993,"train",1120.0,"2021-11-22 17:41:42.034635","","","","","","",""
1.0,0.08829504251480103,0.00010362783498583223,"train",1140.0,"2021-11-22 17:41:45.103686","","","","","","",""
1.0,0.07083924114704132,0.0001044605847118124,"train",1160.0,"2021-11-22 17:41:48.853268","","","","","","",""
1.0,0.09754327684640884,0.0001053075670334907,"train",1180.0,"2021-11-22 17:41:51.940611","","","","","","",""
1.0,0.08125749230384827,0.00010616876906551181,"train",1200.0,"2021-11-22 17:41:55.030918","","","","","","",""
1.0,0.07896361500024796,0.0001070441777061941,"train",1220.0,"2021-11-22 17:41:58.149234","","","","","","",""
1.0,0.09282421320676804,0.00010793377963772563,"train",1240.0,"2021-11-22 17:42:01.378421","","","","","","",""
1.0,0.08147378265857697,0.0001088375613263698,"train",1260.0,"2021-11-22 17:42:04.640723","","","","","","",""
1.0,0.06629296392202377,0.00010975550902266908,"train",1280.0,"2021-11-22 17:42:08.438427","","","","","","",""
1.0,0.07243679463863373,0.00011068760876165474,"train",1300.0,"2021-11-22 17:42:11.552288","","","","","","",""
1.0,0.1057443842291832,0.0001116338463630598,"train",1320.0,"2021-11-22 17:42:14.711744","","","","","","",""
1.0,0.08363798260688782,0.00011259420743153455,"train",1340.0,"2021-11-22 17:42:17.866603","","","","","","",""
1.0,0.09852916747331619,0.00011356867735686535,"train",1360.0,"2021-11-22 17:42:21.149577","","","","","","",""
1.0,0.09715931862592697,0.00011455724131419621,"train",1380.0,"2021-11-22 17:42:24.365346","","","","","","",""
1.0,0.08658256381750107,0.00011555988426425654,"train",1400.0,"2021-11-22 17:42:28.137420","","","","","","",""
1.0,0.10820513963699341,0.00011657659095358746,"train",1420.0,"2021-11-22 17:42:31.312610","","","","","","",""
1.0,0.08570775389671326,0.00011760734591477516,"train",1440.0,"2021-11-22 17:42:34.548612","","","","","","",""
1.0,0.07782303541898727,0.00011865213346668618,"train",1460.0,"2021-11-22 17:42:37.838918","","","","","","",""
1.0,0.10695631802082062,0.00011971093771470502,"train",1480.0,"2021-11-22 17:42:41.136083","","","","","","",""
1.0,0.10727881640195847,0.0001207837425509777,"train",1500.0,"2021-11-22 17:42:44.428451","","","","","","",""
1.0,0.08621418476104736,0.00012187053165465503,"train",1520.0,"2021-11-22 17:42:48.304637","","","","","","",""
1.0,0.08434787392616272,0.000122971288492142,"train",1540.0,"2021-11-22 17:42:51.756039","","","","","","",""
1.0,0.09040823578834534,0.00012408599631734863,"train",1560.0,"2021-11-22 17:42:55.046979","","","","","","",""
1.0,0.09148940443992615,0.00012521463817194542,"train",1580.0,"2021-11-22 17:42:58.247364","","","","","","",""
1.0,0.08590366691350937,0.00012635719688562077,"train",1600.0,"2021-11-22 17:43:01.488347","","","","","","",""
1.0,0.07513648271560669,0.00012751365507634267,"train",1620.0,"2021-11-22 17:43:04.575083","","","","","","",""
1.0,0.0846886858344078,0.0001286839951506226,"train",1640.0,"2021-11-22 17:43:08.330403","","","","","","",""
1.0,0.06534364074468613,0.00012986819930378333,"train",1660.0,"2021-11-22 17:43:11.433315","","","","","","",""
1.0,0.06656993180513382,0.00013106624952023064,"train",1680.0,"2021-11-22 17:43:14.511791","","","","","","",""
1.0,0.0817987397313118,0.00013227812757372545,"train",1700.0,"2021-11-22 17:43:17.500932","","","","","","",""
1.0,0.0815729945898056,0.00013350381502766394,"train",1720.0,"2021-11-22 17:43:20.541347","","","","","","",""
1.0,0.090952567756176,0.00013474329323535494,"train",1740.0,"2021-11-22 17:43:23.588717","","","","","","",""
1.0,0.08052490651607513,0.0001359965433403059,"train",1760.0,"2021-11-22 17:43:27.269731","","","","","","",""
1.0,0.0861898884177208,0.00013726354627650872,"train",1780.0,"2021-11-22 17:43:30.403050","","","","","","",""
1.0,0.11185955256223679,0.00013854428276873052,"train",1800.0,"2021-11-22 17:43:33.569281","","","","","","",""
1.0,0.09341961145401001,0.00013983873333280506,"train",1820.0,"2021-11-22 17:43:36.756815","","","","","","",""
1.0,0.08002227544784546,0.00014114687827593156,"train",1840.0,"2021-11-22 17:43:39.866057","","","","","","",""
1.0,0.08998838067054749,0.00014246869769697352,"train",1860.0,"2021-11-22 17:43:43.593632","","","","","","",""
1.0,0.10401878505945206,0.00014380417148676054,"train",1880.0,"2021-11-22 17:43:46.798608","","","","","","",""
1.0,0.09041359275579453,0.00014515327932839404,"train",1900.0,"2021-11-22 17:43:50.048540","","","","","","",""
1.0,0.08097930252552032,0.0001465160006975598,"train",1920.0,"2021-11-22 17:43:53.267464","","","","","","",""
1.0,0.08475199341773987,0.00014789231486283454,"train",1940.0,"2021-11-22 17:43:56.447094","","","","","","",""
1.0,0.11088191717863083,0.00014928220088600633,"train",1960.0,"2021-11-22 17:43:59.582033","","","","","","",""
1.0,0.06539075076580048,0.00015068563762239045,"train",1980.0,"2021-11-22 17:44:03.288976","","","","","","",""
1.0,0.11606127768754959,0.00015210260372115238,"train",2000.0,"2021-11-22 17:44:06.411611","","","","","","",""
1.0,0.0810820534825325,0.00015353307762563115,"train",2020.0,"2021-11-22 17:44:09.529211","","","","","","",""
1.0,0.09095844626426697,0.00015497703757366872,"train",2040.0,"2021-11-22 17:44:12.636675","","","","","","",""
1.0,0.09437361359596252,0.00015643446159794,"train",2060.0,"2021-11-22 17:44:15.747093","","","","","","",""
1.0,0.0979936495423317,0.0001579053275262887,"train",2080.0,"2021-11-22 17:44:18.874313","","","","","","",""
1.0,0.08465245366096497,0.00015938961298206183,"train",2100.0,"2021-11-22 17:44:22.606440","","","","","","",""
1.0,0.07334279268980026,0.00016088729538445297,"train",2120.0,"2021-11-22 17:44:25.730384","","","","","","",""
1.0,0.08481275290250778,0.000162398351948844,"train",2140.0,"2021-11-22 17:44:28.846499","","","","","","",""
1.0,"","","train",2148.0,"2021-11-22 17:46:02.665413",0.42702466710325254,0.38772470248634383,0.8883794261668073,0.4538573649336703,0.30221488345263203,0.2964534474818426,0.19157717258997783
1.0,"","","val",2148.0,"2021-11-22 17:46:28.487549",0.42021338281340603,0.37123557176860583,0.8771887195233941,0.44266281994202755,0.2960556435854904,0.2880978537809996,0.18532012009716875
2.0,0.07368900626897812,0.00016392275968715297,"train",2160.0,"2021-11-22 17:46:33.249047","","","","","","",""
2.0,0.0797986313700676,0.00016546049540818223,"train",2180.0,"2021-11-22 17:46:36.426982","","","","","","",""
2.0,0.09331618249416351,0.00016701153571797313,"train",2200.0,"2021-11-22 17:46:39.543704","","","","","","",""
2.0,0.1053185984492302,0.00016857585702016015,"train",2220.0,"2021-11-22 17:46:43.415464","","","","","","",""
2.0,0.0787973627448082,0.00017015343551633126,"train",2240.0,"2021-11-22 17:46:46.542269","","","","","","",""
2.0,0.09405916184186935,0.0001717442472063892,"train",2260.0,"2021-11-22 17:46:49.648222","","","","","","",""
2.0,0.0839003250002861,0.00017334826788891681,"train",2280.0,"2021-11-22 17:46:52.781965","","","","","","",""
2.0,0.06920917332172394,0.00017496547316154555,"train",2300.0,"2021-11-22 17:46:55.943712","","","","","","",""
2.0,0.06198117136955261,0.00017659583842132573,"train",2320.0,"2021-11-22 17:46:59.091342","","","","","","",""
2.0,0.08612089604139328,0.00017823933886510217,"train",2340.0,"2021-11-22 17:47:02.240682","","","","","","",""
2.0,0.06518205255270004,0.00017989594948989015,"train",2360.0,"2021-11-22 17:47:05.985293","","","","","","",""
2.0,0.07445063441991806,0.00018156564509325753,"train",2380.0,"2021-11-22 17:47:09.144380","","","","","","",""
2.0,0.06112682446837425,0.0001832484002737059,"train",2400.0,"2021-11-22 17:47:12.256847","","","","","","",""
2.0,0.06830944865942001,0.00018494418943105877,"train",2420.0,"2021-11-22 17:47:15.354302","","","","","","",""
2.0,0.07040470838546753,0.00018665298676685078,"train",2440.0,"2021-11-22 17:47:18.485334","","","","","","",""
2.0,0.08257116377353668,0.0001883747662847191,"train",2460.0,"2021-11-22 17:47:21.627253","","","","","","",""
2.0,0.08480902016162872,0.00019010950179080112,"train",2480.0,"2021-11-22 17:47:24.815964","","","","","","",""
2.0,0.08870851248502731,0.00019185716689412995,"train",2500.0,"2021-11-22 17:47:28.686547","","","","","","",""
2.0,0.08946076780557632,0.00019361773500703797,"train",2520.0,"2021-11-22 17:47:31.781082","","","","","","",""
2.0,0.10855541378259659,0.00019539117934556168,"train",2540.0,"2021-11-22 17:47:34.898215","","","","","","",""
2.0,0.0531967431306839,0.00019717747292984696,"train",2560.0,"2021-11-22 17:47:37.945988","","","","","","",""
2.0,0.09670974314212799,0.0001989765885845624,"train",2580.0,"2021-11-22 17:47:40.982991","","","","","","",""
2.0,0.06788986176252365,0.00020078849893931014,"train",2600.0,"2021-11-22 17:47:44.044914","","","","","","",""
2.0,0.08026955276727676,0.0002026131764290434,"train",2620.0,"2021-11-22 17:47:47.201442","","","","","","",""
2.0,0.08765293657779694,0.00020445059329448614,"train",2640.0,"2021-11-22 17:47:50.977378","","","","","","",""
2.0,0.06984561681747437,0.00020630072158255497,"train",2660.0,"2021-11-22 17:47:54.058316","","","","","","",""
2.0,0.07537852972745895,0.00020816353314678467,"train",2680.0,"2021-11-22 17:47:57.131784","","","","","","",""
2.0,0.09750938415527344,0.00021003899964775505,"train",2700.0,"2021-11-22 17:48:00.249003","","","","","","",""
2.0,0.10510232299566269,0.00021192709255352473,"train",2720.0,"2021-11-22 17:48:03.352448","","","","","","",""
2.0,0.07308512926101685,0.00021382778314006255,"train",2740.0,"2021-11-22 17:48:06.433860","","","","","","",""
2.0,0.08153831213712692,0.00021574104249168615,"train",2760.0,"2021-11-22 17:48:09.495925","","","","","","",""
2.0,0.0987139344215393,0.00021766684150150133,"train",2780.0,"2021-11-22 17:48:13.187798","","","","","","",""
2.0,0.07010121643543243,0.00021960515087184485,"train",2800.0,"2021-11-22 17:48:16.266089","","","","","","",""
2.0,0.07826375216245651,0.00022155594111472978,"train",2820.0,"2021-11-22 17:48:19.435266","","","","","","",""
2.0,0.10948167741298676,0.0002235191825522959,"train",2840.0,"2021-11-22 17:48:22.602950","","","","","","",""
2.0,0.08671636134386063,0.00022549484531725838,"train",2860.0,"2021-11-22 17:48:25.783695","","","","","","",""
2.0,0.07004547119140625,0.00022748289935336434,"train",2880.0,"2021-11-22 17:48:28.994009","","","","","","",""
2.0,0.08833020180463791,0.00022948331441584964,"train",2900.0,"2021-11-22 17:48:32.205949","","","","","","",""
2.0,0.07307624816894531,0.00023149606007189785,"train",2920.0,"2021-11-22 17:48:35.945258","","","","","","",""
2.0,0.09278866648674011,0.00023352110570110476,"train",2940.0,"2021-11-22 17:48:39.057484","","","","","","",""
2.0,0.06256204843521118,0.00023555842049594305,"train",2960.0,"2021-11-22 17:48:42.177142","","","","","","",""
2.0,0.09787066280841827,0.00023760797346223305,"train",2980.0,"2021-11-22 17:48:45.305601","","","","","","",""
2.0,0.07802959531545639,0.00023966973341961028,"train",3000.0,"2021-11-22 17:48:48.502569","","","","","","",""
2.0,0.0823979601264,0.0002417436690020044,"train",3020.0,"2021-11-22 17:48:51.705638","","","","","","",""
2.0,0.09427276253700256,0.00024382974865811325,"train",3040.0,"2021-11-22 17:48:54.908233","","","","","","",""
2.0,0.07023361325263977,0.000245927940651884,"train",3060.0,"2021-11-22 17:48:58.731921","","","","","","",""
2.0,0.08163266628980637,0.0002480382130629953,"train",3080.0,"2021-11-22 17:49:01.918114","","","","","","",""
2.0,0.08669916540384293,0.0002501605337873443,"train",3100.0,"2021-11-22 17:49:05.038087","","","","","","",""
2.0,0.07283636182546616,0.0002522948705375337,"train",3120.0,"2021-11-22 17:49:08.212804","","","","","","",""
2.0,0.07312113046646118,0.00025444119084336303,"train",3140.0,"2021-11-22 17:49:11.417571","","","","","","",""
2.0,0.08256881684064865,0.00025659946205232364,"train",3160.0,"2021-11-22 17:49:14.590195","","","","","","",""
2.0,0.0849316418170929,0.0002587696513300941,"train",3180.0,"2021-11-22 17:49:17.737132","","","","","","",""
2.0,0.08564507216215134,0.0002609517256610412,"train",3200.0,"2021-11-22 17:49:21.529740","","","","","","",""
2.0,0.08231409639120102,0.00026314565184872084,"train",3220.0,"2021-11-22 17:49:24.542226","","","","","","",""
2.0,"","","train",3222.0,"2021-11-22 17:51:01.348323",0.44800989594702756,0.44713070923753445,0.9168696176112381,0.5085598739613013,0.3684091361291358,0.35960545343630035,0.23077082672018692
2.0,"","","val",3222.0,"2021-11-22 17:51:27.412196",0.43691290734083266,0.4184564012762176,0.9040316724611069,0.4943001578802675,0.3569761951314125,0.3445281073439971,0.22015928658900205
3.0,0.06435982137918472,0.0002653513965163838,"train",3240.0,"2021-11-22 17:51:33.185448","","","","","","",""
3.0,0.05489606782793999,0.0002675689261074836,"train",3260.0,"2021-11-22 17:51:36.485236","","","","","","",""
3.0,0.09943260252475739,0.00026979820688618605,"train",3280.0,"2021-11-22 17:51:39.631151","","","","","","",""
3.0,0.07964619249105453,0.00027203920493788433,"train",3300.0,"2021-11-22 17:51:42.762357","","","","","","",""
3.0,0.06810362637042999,0.00027429188616971277,"train",3320.0,"2021-11-22 17:51:45.895372","","","","","","",""
3.0,0.08204061537981033,0.0002765562163110668,"train",3340.0,"2021-11-22 17:51:49.025917","","","","","","",""
3.0,0.09925193339586258,0.00027883216091412503,"train",3360.0,"2021-11-22 17:51:52.891677","","","","","","",""
3.0,0.08137781918048859,0.0002811196853543707,"train",3380.0,"2021-11-22 17:51:56.090469","","","","","","",""
3.0,0.09456180781126022,0.00028341875483112134,"train",3400.0,"2021-11-22 17:51:59.395492","","","","","","",""
3.0,0.07077194005250931,0.00028572933436805644,"train",3420.0,"2021-11-22 17:52:02.536977","","","","","","",""
3.0,0.06324449926614761,0.0002880513888137504,"train",3440.0,"2021-11-22 17:52:05.670518","","","","","","",""
3.0,0.09481385350227356,0.0002903848828422063,"train",3460.0,"2021-11-22 17:52:08.823857","","","","","","",""
3.0,0.09401018172502518,0.00029272978095339465,"train",3480.0,"2021-11-22 17:52:11.994025","","","","","","",""
3.0,0.07795089483261108,0.00029508604747379243,"train",3500.0,"2021-11-22 17:52:15.162844","","","","","","",""
3.0,0.0929238498210907,0.00029745364655692653,"train",3520.0,"2021-11-22 17:52:18.973866","","","","","","",""
3.0,0.05654135346412659,0.0002998325421839181,"train",3540.0,"2021-11-22 17:52:22.187641","","","","","","",""
3.0,0.07208441942930222,0.0003022226981640318,"train",3560.0,"2021-11-22 17:52:25.280618","","","","","","",""
3.0,0.0878974124789238,0.00030462407813522494,"train",3580.0,"2021-11-22 17:52:28.347112","","","","","","",""
3.0,0.06920623034238815,0.0003070366455647027,"train",3600.0,"2021-11-22 17:52:31.433787","","","","","","",""
3.0,0.06749477237462997,0.000309460363749471,"train",3620.0,"2021-11-22 17:52:34.509245","","","","","","",""
3.0,0.07200300693511963,0.0003118951958168978,"train",3640.0,"2021-11-22 17:52:37.623076","","","","","","",""
3.0,0.06948927789926529,0.0003143411047252722,"train",3660.0,"2021-11-22 17:52:40.765943","","","","","","",""
3.0,0.10619336366653442,0.0003167980532643691,"train",3680.0,"2021-11-22 17:52:43.928121","","","","","","",""
3.0,0.0657193511724472,0.0003192660040560141,"train",3700.0,"2021-11-22 17:52:47.753767","","","","","","",""
3.0,0.1022205725312233,0.0003217449195546528,"train",3720.0,"2021-11-22 17:52:50.907029","","","","","","",""
3.0,0.0789555087685585,0.00032423476204792244,"train",3740.0,"2021-11-22 17:52:54.031313","","","","","","",""
3.0,0.06516702473163605,0.0003267354936572248,"train",3760.0,"2021-11-22 17:52:57.257803","","","","","","",""
3.0,0.04838189110159874,0.0003292470763383026,"train",3780.0,"2021-11-22 17:53:00.427672","","","","","","",""
3.0,0.06718618422746658,0.0003317694718818192,"train",3800.0,"2021-11-22 17:53:03.548939","","","","","","",""
3.0,0.07349418103694916,0.00033430264191393853,"train",3820.0,"2021-11-22 17:53:06.662430","","","","","","",""
3.0,0.08373764902353287,0.0003368465478969097,"train",3840.0,"2021-11-22 17:53:09.824185","","","","","","",""
3.0,0.05516493692994118,0.0003394011511296533,"train",3860.0,"2021-11-22 17:53:13.616709","","","","","","",""
3.0,0.06975898891687393,0.0003419664127483496,"train",3880.0,"2021-11-22 17:53:16.745566","","","","","","",""
3.0,0.06639508157968521,0.00034454229372703074,"train",3900.0,"2021-11-22 17:53:19.864634","","","","","","",""
3.0,0.07916475832462311,0.00034712875487817314,"train",3920.0,"2021-11-22 17:53:22.967020","","","","","","",""
3.0,0.06494516134262085,0.00034972575685329526,"train",3940.0,"2021-11-22 17:53:26.030287","","","","","","",""
3.0,0.06529463082551956,0.0003523332601435541,"train",3960.0,"2021-11-22 17:53:29.150298","","","","","","",""
3.0,0.08611283451318741,0.00035495122508034916,"train",3980.0,"2021-11-22 17:53:32.272281","","","","","","",""
3.0,0.08090764284133911,0.0003575796118359231,"train",4000.0,"2021-11-22 17:53:35.387950","","","","","","",""
3.0,0.05489887669682503,0.00036021838042396906,"train",4020.0,"2021-11-22 17:53:38.503860","","","","","","",""
3.0,0.08572059124708176,0.0003628674907002389,"train",4040.0,"2021-11-22 17:53:42.361452","","","","","","",""
3.0,0.07713039219379425,0.00036552690236315395,"train",4060.0,"2021-11-22 17:53:45.556007","","","","","","",""
3.0,0.09095819294452667,0.00036819657495441773,"train",4080.0,"2021-11-22 17:53:48.822240","","","","","","",""
3.0,0.07150669395923615,0.0003708764678596317,"train",4100.0,"2021-11-22 17:53:52.101018","","","","","","",""
3.0,0.08782444149255753,0.00037356654030891293,"train",4120.0,"2021-11-22 17:53:55.217860","","","","","","",""
3.0,0.06739549338817596,0.0003762667513775148,"train",4140.0,"2021-11-22 17:53:58.310343","","","","","","",""
3.0,0.09010125696659088,0.0003789770599864498,"train",4160.0,"2021-11-22 17:54:01.429650","","","","","","",""
3.0,0.07418741285800934,0.000381697424903113,"train",4180.0,"2021-11-22 17:54:04.562031","","","","","","",""
3.0,0.06715889275074005,0.0003844278047419108,"train",4200.0,"2021-11-22 17:54:07.633134","","","","","","",""
3.0,0.0684865266084671,0.0003871681579648903,"train",4220.0,"2021-11-22 17:54:11.347804","","","","","","",""
3.0,0.07635819911956787,0.0003899184428823709,"train",4240.0,"2021-11-22 17:54:14.409709","","","","","","",""
3.0,0.0706910640001297,0.0003926786176535783,"train",4260.0,"2021-11-22 17:54:17.483915","","","","","","",""
3.0,0.06255783885717392,0.0003954486402872818,"train",4280.0,"2021-11-22 17:54:20.524037","","","","","","",""
3.0,"","","train",4296.0,"2021-11-22 17:55:59.958527",0.5024958160518082,0.4934004443544015,0.9288864006476031,0.5466363050596476,0.3921741526216404,0.3938721402138904,0.25661601179331617
3.0,"","","val",4296.0,"2021-11-22 17:56:25.048311",0.49020062623216976,0.45933401369532734,0.9138586157853895,0.5284097967304735,0.3792291626215999,0.378939930547931,0.24428511455283652
4.0,0.0825733169913292,0.0003982284686424324,"train",4300.0,"2021-11-22 17:56:28.462297","","","","","","",""
4.0,0.060815248638391495,0.0004010180604288045,"train",4320.0,"2021-11-22 17:56:31.803469","","","","","","",""
4.0,0.07098300755023956,0.00040381737320763873,"train",4340.0,"2021-11-22 17:56:34.947636","","","","","","",""
4.0,0.10526497662067413,0.0004066263643922878,"train",4360.0,"2021-11-22 17:56:38.082011","","","","","","",""
4.0,0.09178013354539871,0.0004094449912488646,"train",4380.0,"2021-11-22 17:56:41.203631","","","","","","",""
4.0,0.0967077687382698,0.0004122732108968923,"train",4400.0,"2021-11-22 17:56:45.048451","","","","","","",""
4.0,0.056424979120492935,0.0004151109803099558,"train",4420.0,"2021-11-22 17:56:48.261138","","","","","","",""
4.0,0.07745388150215149,0.00041795825631635764,"train",4440.0,"2021-11-22 17:56:51.439395","","","","","","",""
4.0,0.05594838038086891,0.0004208149955997739,"train",4460.0,"2021-11-22 17:56:54.606321","","","","","","",""
4.0,0.07514654844999313,0.0004236811546999141,"train",4480.0,"2021-11-22 17:56:57.677944","","","","","","",""
4.0,0.06686369329690933,0.0004265566900131805,"train",4500.0,"2021-11-22 17:57:00.750870","","","","","","",""
4.0,0.05914256349205971,0.0004294415577933337,"train",4520.0,"2021-11-22 17:57:03.833281","","","","","","",""
4.0,0.07684117555618286,0.00043233571415215717,"train",4540.0,"2021-11-22 17:57:06.897097","","","","","","",""
4.0,0.07844557613134384,0.0004352391150601242,"train",4560.0,"2021-11-22 17:57:09.964293","","","","","","",""
4.0,0.04415227845311165,0.0004381517163470684,"train",4580.0,"2021-11-22 17:57:13.055388","","","","","","",""
4.0,0.07869139313697815,0.00044107347370285683,"train",4600.0,"2021-11-22 17:57:16.153852","","","","","","",""
4.0,0.06375324726104736,0.00044400434267806194,"train",4620.0,"2021-11-22 17:57:19.238630","","","","","","",""
4.0,0.05263675004243851,0.00044694427868463907,"train",4640.0,"2021-11-22 17:57:23.031158","","","","","","",""
4.0,0.06198780983686447,0.00044989323699660467,"train",4660.0,"2021-11-22 17:57:26.136245","","","","","","",""
4.0,0.06316366791725159,0.0004528511727507165,"train",4680.0,"2021-11-22 17:57:29.222700","","","","","","",""
4.0,0.05559766665101051,0.00045581804094715645,"train",4700.0,"2021-11-22 17:57:32.341622","","","","","","",""
4.0,0.059863097965717316,0.00045879379645021425,"train",4720.0,"2021-11-22 17:57:35.608704","","","","","","",""
4.0,0.04782709851861,0.0004617783939889759,"train",4740.0,"2021-11-22 17:57:38.822002","","","","","","",""
4.0,0.06898102909326553,0.0004647717881580103,"train",4760.0,"2021-11-22 17:57:41.964839","","","","","","",""
4.0,0.09169039130210876,0.0004677739334180617,"train",4780.0,"2021-11-22 17:57:45.089662","","","","","","",""
4.0,0.0844808965921402,0.00047078478409674144,"train",4800.0,"2021-11-22 17:57:48.274447","","","","","","",""
4.0,0.07812351733446121,0.00047380429438922305,"train",4820.0,"2021-11-22 17:57:51.456416","","","","","","",""
4.0,0.0685146152973175,0.00047683241835893946,"train",4840.0,"2021-11-22 17:57:54.600369","","","","","","",""
4.0,0.0592140331864357,0.0004798691099382815,"train",4860.0,"2021-11-22 17:57:58.366488","","","","","","",""
4.0,0.06800192594528198,0.0004829143229292986,"train",4880.0,"2021-11-22 17:58:01.541838","","","","","","",""
4.0,0.08358799666166306,0.0004859680110044023,"train",4900.0,"2021-11-22 17:58:04.763165","","","","","","",""
4.0,0.06393726915121078,0.0004890301277070699,"train",4920.0,"2021-11-22 17:58:08.007199","","","","","","",""
4.0,0.07707984745502472,0.0004921006264525525,"train",4940.0,"2021-11-22 17:58:11.148293","","","","","","",""
4.0,0.07687105983495712,0.0004951794605285824,"train",4960.0,"2021-11-22 17:58:14.274899","","","","","","",""
4.0,0.0731462836265564,0.0004982665830960853,"train",4980.0,"2021-11-22 17:58:17.437316","","","","","","",""
4.0,0.06614162027835846,0.0005013619471898913,"train",5000.0,"2021-11-22 17:58:20.658515","","","","","","",""
4.0,0.06199321150779724,0.0005044655057194504,"train",5020.0,"2021-11-22 17:58:23.879180","","","","","","",""
4.0,0.0642867311835289,0.0005075772114695486,"train",5040.0,"2021-11-22 17:58:26.959946","","","","","","",""
4.0,0.0864623486995697,0.0005106970171010257,"train",5060.0,"2021-11-22 17:58:30.129948","","","","","","",""
4.0,0.07265115529298782,0.0005138248751514966,"train",5080.0,"2021-11-22 17:58:33.849105","","","","","","",""
4.0,0.07104179263114929,0.0005169607380360731,"train",5100.0,"2021-11-22 17:58:36.911329","","","","","","",""
4.0,0.07225606590509415,0.000520104558048086,"train",5120.0,"2021-11-22 17:58:39.964935","","","","","","",""
4.0,0.05016716942191124,0.0005232562873598136,"train",5140.0,"2021-11-22 17:58:43.018803","","","","","","",""
4.0,0.057844385504722595,0.0005264158780232072,"train",5160.0,"2021-11-22 17:58:46.100512","","","","","","",""
4.0,0.08315868675708771,0.0005295832819706228,"train",5180.0,"2021-11-22 17:58:49.175489","","","","","","",""
4.0,0.059862107038497925,0.0005327584510155488,"train",5200.0,"2021-11-22 17:58:52.266907","","","","","","",""
4.0,0.0677187368273735,0.000535941336853343,"train",5220.0,"2021-11-22 17:58:55.364115","","","","","","",""
4.0,0.05185271427035332,0.0005391318910619655,"train",5240.0,"2021-11-22 17:58:58.443667","","","","","","",""
4.0,0.07837632298469543,0.0005423300651027144,"train",5260.0,"2021-11-22 17:59:01.534432","","","","","","",""
4.0,0.0739070326089859,0.0005455358103209663,"train",5280.0,"2021-11-22 17:59:04.608853","","","","","","",""
4.0,0.06380832195281982,0.0005487490779469157,"train",5300.0,"2021-11-22 17:59:07.697109","","","","","","",""
4.0,0.09356658905744553,0.000551969819096316,"train",5320.0,"2021-11-22 17:59:11.479151","","","","","","",""
4.0,0.05377063527703285,0.0005551979847712252,"train",5340.0,"2021-11-22 17:59:14.590345","","","","","","",""
4.0,0.057764653116464615,0.0005584335258607489,"train",5360.0,"2021-11-22 17:59:17.691984","","","","","","",""
4.0,"","","train",5370.0,"2021-11-22 18:00:52.664022",0.5214436440369643,0.53964733474273,0.9414753830821978,0.586499498762749,0.4502007069270144,0.45893701802026843,0.29676407610345373
4.0,"","","val",5370.0,"2021-11-22 18:01:17.914240",0.5049866635741621,0.49773186705973627,0.9271973137692864,0.5600727737166981,0.42714325542670345,0.43302362797567784,0.27502834253012776
5.0,0.06046780198812485,0.0005616763931417894,"train",5380.0,"2021-11-22 18:01:22.397051","","","","","","",""
5.0,0.0599241703748703,0.0005649265372797939,"train",5400.0,"2021-11-22 18:01:25.593720","","","","","","",""
5.0,0.0700077936053276,0.0005681839088295046,"train",5420.0,"2021-11-22 18:01:28.683902","","","","","","",""
5.0,0.0808662474155426,0.0005714484582357109,"train",5440.0,"2021-11-22 18:01:31.788503","","","","","","",""
5.0,0.07396072894334793,0.0005747201358340048,"train",5460.0,"2021-11-22 18:01:35.741631","","","","","","",""
5.0,0.09193860739469528,0.0005779988918515344,"train",5480.0,"2021-11-22 18:01:38.897556","","","","","","",""
5.0,0.07674103230237961,0.0005812846764077623,"train",5500.0,"2021-11-22 18:01:42.058251","","","","","","",""
5.0,0.0734155997633934,0.0005845774395152243,"train",5520.0,"2021-11-22 18:01:45.243888","","","","","","",""
5.0,0.047025278210639954,0.0005878771310802895,"train",5540.0,"2021-11-22 18:01:48.391796","","","","","","",""
5.0,0.05047173798084259,0.0005911837009039229,"train",5560.0,"2021-11-22 18:01:51.528308","","","","","","",""
5.0,0.06308632344007492,0.0005944970986824485,"train",5580.0,"2021-11-22 18:01:55.265105","","","","","","",""
5.0,0.0930107980966568,0.000597817274008315,"train",5600.0,"2021-11-22 18:01:58.411513","","","","","","",""
5.0,0.06379963457584381,0.0006011441763708635,"train",5620.0,"2021-11-22 18:02:01.570314","","","","","","",""
5.0,0.05190586298704147,0.0006044777551570929,"train",5640.0,"2021-11-22 18:02:04.696087","","","","","","",""
5.0,0.058419059962034225,0.000607817959652434,"train",5660.0,"2021-11-22 18:02:07.805138","","","","","","",""
5.0,0.05417398363351822,0.0006111647390415189,"train",5680.0,"2021-11-22 18:02:10.904622","","","","","","",""
5.0,0.09454316645860672,0.0006145180424089525,"train",5700.0,"2021-11-22 18:02:14.674430","","","","","","",""
5.0,0.07912841439247131,0.0006178778187400902,"train",5720.0,"2021-11-22 18:02:17.780201","","","","","","",""
5.0,0.09827183187007904,0.0006212440169218129,"train",5740.0,"2021-11-22 18:02:20.894412","","","","","","",""
5.0,0.06578445434570312,0.0006246165857433027,"train",5760.0,"2021-11-22 18:02:23.986358","","","","","","",""
5.0,0.07795429229736328,0.0006279954738968251,"train",5780.0,"2021-11-22 18:02:27.075604","","","","","","",""
5.0,0.08232291787862778,0.0006313806299785075,"train",5800.0,"2021-11-22 18:02:30.187839","","","","","","",""
5.0,0.09404230117797852,0.0006347720024891209,"train",5820.0,"2021-11-22 18:02:33.863101","","","","","","",""
5.0,0.0604492649435997,0.0006381695398348657,"train",5840.0,"2021-11-22 18:02:36.967432","","","","","","",""
5.0,0.07110591232776642,0.0006415731903281542,"train",5860.0,"2021-11-22 18:02:40.147435","","","","","","",""
5.0,0.07230734825134277,0.0006449829021883979,"train",5880.0,"2021-11-22 18:02:43.299408","","","","","","",""
5.0,0.06245262920856476,0.0006483986235427956,"train",5900.0,"2021-11-22 18:02:46.426826","","","","","","",""
5.0,0.06450162082910538,0.0006518203024271213,"train",5920.0,"2021-11-22 18:02:49.489148","","","","","","",""
5.0,0.08131463825702667,0.0006552478867865169,"train",5940.0,"2021-11-22 18:02:53.154025","","","","","","",""
5.0,0.06730937212705612,0.0006586813244762815,"train",5960.0,"2021-11-22 18:02:56.216690","","","","","","",""
5.0,0.056924134492874146,0.0006621205632626672,"train",5980.0,"2021-11-22 18:02:59.318990","","","","","","",""
5.0,0.0900733694434166,0.0006655655508236717,"train",6000.0,"2021-11-22 18:03:02.442118","","","","","","",""
5.0,0.07644299417734146,0.0006690162347498356,"train",6020.0,"2021-11-22 18:03:05.568047","","","","","","",""
5.0,0.07684088498353958,0.0006724725625450389,"train",6040.0,"2021-11-22 18:03:09.378823","","","","","","",""
5.0,0.0862538143992424,0.0006759344816273003,"train",6060.0,"2021-11-22 18:03:12.563874","","","","","","",""
5.0,0.06415209919214249,0.0006794019393295771,"train",6080.0,"2021-11-22 18:03:15.711549","","","","","","",""
5.0,0.05237855389714241,0.0006828748829005654,"train",6100.0,"2021-11-22 18:03:18.881811","","","","","","",""
5.0,0.05938521772623062,0.0006863532595055041,"train",6120.0,"2021-11-22 18:03:21.992811","","","","","","",""
5.0,0.05558966472744942,0.0006898370162269777,"train",6140.0,"2021-11-22 18:03:25.158337","","","","","","",""
5.0,0.05460914596915245,0.0006933261000657217,"train",6160.0,"2021-11-22 18:03:28.941518","","","","","","",""
5.0,0.06916451454162598,0.000696820457941429,"train",6180.0,"2021-11-22 18:03:32.265694","","","","","","",""
5.0,0.05007646977901459,0.000700320036693557,"train",6200.0,"2021-11-22 18:03:35.487221","","","","","","",""
5.0,0.061932649463415146,0.0007038247830821358,"train",6220.0,"2021-11-22 18:03:38.622677","","","","","","",""
5.0,0.062873974442482,0.0007073346437885815,"train",6240.0,"2021-11-22 18:03:41.693145","","","","","","",""
5.0,0.0799594298005104,0.000710849565416502,"train",6260.0,"2021-11-22 18:03:44.788966","","","","","","",""
5.0,0.07366093248128891,0.0007143694944925134,"train",6280.0,"2021-11-22 18:03:48.514697","","","","","","",""
5.0,0.057753194123506546,0.0007178943774670524,"train",6300.0,"2021-11-22 18:03:51.646394","","","","","","",""
5.0,0.05057409405708313,0.0007214241607151901,"train",6320.0,"2021-11-22 18:03:54.749304","","","","","","",""
5.0,0.08055379986763,0.000724958790537449,"train",6340.0,"2021-11-22 18:03:57.861836","","","","","","",""
5.0,0.053495172411203384,0.0007284982131606195,"train",6360.0,"2021-11-22 18:04:01.004895","","","","","","",""
5.0,0.061222143471241,0.0007320423747385781,"train",6380.0,"2021-11-22 18:04:04.083271","","","","","","",""
5.0,0.08584032952785492,0.0007355912213531054,"train",6400.0,"2021-11-22 18:04:07.783669","","","","","","",""
5.0,0.06772323697805405,0.000739144699014708,"train",6420.0,"2021-11-22 18:04:10.901106","","","","","","",""
5.0,0.05905204266309738,0.0007427027536634401,"train",6440.0,"2021-11-22 18:04:14.064643","","","","","","",""
5.0,"","","train",6444.0,"2021-11-22 18:05:47.008780",0.5559484828640034,0.5692497362803821,0.9498098523287521,0.5810976183765163,0.45473579656209373,0.46995794426007875,0.30116401288478645
5.0,"","","val",6444.0,"2021-11-22 18:06:12.998526",0.5368781166647338,0.5183682780564038,0.9335376513059697,0.5541826122634863,0.4258698113927573,0.4386772438309364,0.2770725605640386
6.0,0.060868553817272186,0.0007462653311697235,"train",6460.0,"2021-11-22 18:06:18.453020","","","","","","",""
6.0,0.06191208213567734,0.0007498323773351733,"train",6480.0,"2021-11-22 18:06:21.688812","","","","","","",""
6.0,0.0823839008808136,0.0007534038378934223,"train",6500.0,"2021-11-22 18:06:24.828754","","","","","","",""
6.0,0.05077625438570976,0.0007569796585109453,"train",6520.0,"2021-11-22 18:06:28.672277","","","","","","",""
6.0,0.06501980125904083,0.0007605597847878862,"train",6540.0,"2021-11-22 18:06:31.845875","","","","","","",""
6.0,0.0799945741891861,0.0007641441622588871,"train",6560.0,"2021-11-22 18:06:35.102904","","","","","","",""
6.0,0.05674699321389198,0.0007677327363939143,"train",6580.0,"2021-11-22 18:06:38.356151","","","","","","",""
6.0,0.0520673431456089,0.0007713254525990895,"train",6600.0,"2021-11-22 18:06:41.542286","","","","","","",""
6.0,0.05207177624106407,0.0007749222562175211,"train",6620.0,"2021-11-22 18:06:44.682702","","","","","","",""
6.0,0.07184183597564697,0.000778523092530133,"train",6640.0,"2021-11-22 18:06:47.848879","","","","","","",""
6.0,0.0676238164305687,0.0007821279067564996,"train",6660.0,"2021-11-22 18:06:51.503130","","","","","","",""
6.0,0.06661302596330643,0.0007857366440556786,"train",6680.0,"2021-11-22 18:06:54.574617","","","","","","",""
6.0,0.07060343027114868,0.0007893492495270442,"train",6700.0,"2021-11-22 18:06:57.715851","","","","","","",""
6.0,0.06085026636719704,0.0007929656682111239,"train",6720.0,"2021-11-22 18:07:00.850779","","","","","","",""
6.0,0.0416032075881958,0.0007965858450904332,"train",6740.0,"2021-11-22 18:07:04.050911","","","","","","",""
6.0,0.06950635462999344,0.000800209725090314,"train",6760.0,"2021-11-22 18:07:07.257178","","","","","","",""
6.0,0.06907568871974945,0.0008038372530797706,"train",6780.0,"2021-11-22 18:07:10.451429","","","","","","",""
6.0,0.06372170150279999,0.0008074683738723109,"train",6800.0,"2021-11-22 18:07:14.328686","","","","","","",""
6.0,0.04804185777902603,0.0008111030322267832,"train",6820.0,"2021-11-22 18:07:17.532448","","","","","","",""
6.0,0.06837789714336395,0.0008147411728482187,"train",6840.0,"2021-11-22 18:07:20.810238","","","","","","",""
6.0,0.05056614428758621,0.0008183827403886721,"train",6860.0,"2021-11-22 18:07:23.976326","","","","","","",""
6.0,0.08327673375606537,0.0008220276794480633,"train",6880.0,"2021-11-22 18:07:27.100913","","","","","","",""
6.0,0.07420229911804199,0.0008256759345750203,"train",6900.0,"2021-11-22 18:07:30.221103","","","","","","",""
6.0,0.09586098045110703,0.0008293274502677234,"train",6920.0,"2021-11-22 18:07:33.347187","","","","","","",""
6.0,0.06198061630129814,0.0008329821709747486,"train",6940.0,"2021-11-22 18:07:37.131154","","","","","","",""
6.0,0.04624304547905922,0.0008366400410959136,"train",6960.0,"2021-11-22 18:07:40.202754","","","","","","",""
6.0,0.05086183175444603,0.000840301004983123,"train",6980.0,"2021-11-22 18:07:43.290212","","","","","","",""
6.0,0.06897692382335663,0.0008439650069412147,"train",7000.0,"2021-11-22 18:07:46.398874","","","","","","",""
6.0,0.05170976370573044,0.0008476319912288095,"train",7020.0,"2021-11-22 18:07:49.553994","","","","","","",""
6.0,0.058156903833150864,0.0008513019020591544,"train",7040.0,"2021-11-22 18:07:52.712756","","","","","","",""
6.0,0.07503189146518707,0.0008549746836009771,"train",7060.0,"2021-11-22 18:07:55.900239","","","","","","",""
6.0,0.04786178097128868,0.0008586502799793306,"train",7080.0,"2021-11-22 18:07:59.709662","","","","","","",""
6.0,0.05736282095313072,0.0008623286352764453,"train",7100.0,"2021-11-22 18:08:02.968108","","","","","","",""
6.0,0.09170855581760406,0.0008660096935325802,"train",7120.0,"2021-11-22 18:08:06.171498","","","","","","",""
6.0,0.04044393450021744,0.0008696933987468731,"train",7140.0,"2021-11-22 18:08:09.376499","","","","","","",""
6.0,0.07393443584442139,0.0008733796948781924,"train",7160.0,"2021-11-22 18:08:12.516687","","","","","","",""
6.0,0.0754430964589119,0.0008770685258459915,"train",7180.0,"2021-11-22 18:08:15.680641","","","","","","",""
6.0,0.04956262931227684,0.0008807598355311595,"train",7200.0,"2021-11-22 18:08:18.883967","","","","","","",""
6.0,0.0712764784693718,0.0008844535677768764,"train",7220.0,"2021-11-22 18:08:22.910732","","","","","","",""
6.0,0.05308130383491516,0.0008881496663894681,"train",7240.0,"2021-11-22 18:08:26.228207","","","","","","",""
6.0,0.0757894515991211,0.0008918480751392592,"train",7260.0,"2021-11-22 18:08:29.416122","","","","","","",""
6.0,0.03646029159426689,0.00089554873776143,"train",7280.0,"2021-11-22 18:08:32.571613","","","","","","",""
6.0,0.08719442784786224,0.0008992515979568724,"train",7300.0,"2021-11-22 18:08:35.719586","","","","","","",""
6.0,0.055259283632040024,0.0009029565993930457,"train",7320.0,"2021-11-22 18:08:38.860494","","","","","","",""
6.0,0.05489519611001015,0.0009066636857048339,"train",7340.0,"2021-11-22 18:08:42.009325","","","","","","",""
6.0,0.06851662695407867,0.0009103728004954039,"train",7360.0,"2021-11-22 18:08:45.784424","","","","","","",""
6.0,0.06432566791772842,0.0009140838873370617,"train",7380.0,"2021-11-22 18:08:49.014661","","","","","","",""
6.0,0.05304288491606712,0.0009177968897721136,"train",7400.0,"2021-11-22 18:08:52.152911","","","","","","",""
6.0,0.055093664675951004,0.0009215117513137218,"train",7420.0,"2021-11-22 18:08:55.305358","","","","","","",""
6.0,0.08515749126672745,0.0009252284154467663,"train",7440.0,"2021-11-22 18:08:58.500856","","","","","","",""
6.0,0.06402544677257538,0.0009289468256287042,"train",7460.0,"2021-11-22 18:09:01.658262","","","","","","",""
6.0,0.059620484709739685,0.0009326669252904287,"train",7480.0,"2021-11-22 18:09:04.805681","","","","","","",""
6.0,0.07474645227193832,0.0009363886578371307,"train",7500.0,"2021-11-22 18:09:08.535590","","","","","","",""
6.0,"","","train",7518.0,"2021-11-22 18:10:44.669698",0.5671105289965801,0.5990454546335968,0.9548015483701646,0.587392845045598,0.4774056456829148,0.4938932909454469,0.32050887211421847
6.0,"","","val",7518.0,"2021-11-22 18:11:10.951107",0.5469094282732228,0.5372152826035244,0.9382742307166722,0.5555819534013393,0.4375905145800275,0.4490008769431214,0.2886179768326951
7.0,0.05763857439160347,0.0009401119666491604,"train",7520.0,"2021-11-22 18:11:14.035905","","","","","","",""
7.0,0.06836296617984772,0.0009438367950828869,"train",7540.0,"2021-11-22 18:11:17.347968","","","","","","",""
7.0,0.047987159341573715,0.000947563086471561,"train",7560.0,"2021-11-22 18:11:20.444162","","","","","","",""
7.0,0.04539813473820686,0.0009512907841261783,"train",7580.0,"2021-11-22 18:11:23.503263","","","","","","",""
7.0,0.047178592532873154,0.0009550198313363391,"train",7600.0,"2021-11-22 18:11:26.567895","","","","","","",""
7.0,0.0611560195684433,0.0009587501713711128,"train",7620.0,"2021-11-22 18:11:29.618672","","","","","","",""
7.0,0.046899884939193726,0.0009624817474799023,"train",7640.0,"2021-11-22 18:11:32.652040","","","","","","",""
7.0,0.05409928038716316,0.0009662145028933038,"train",7660.0,"2021-11-22 18:11:36.431611","","","","","","",""
7.0,0.10013335198163986,0.0009699483808239733,"train",7680.0,"2021-11-22 18:11:39.553623","","","","","","",""
7.0,0.05013846233487129,0.0009736833244674895,"train",7700.0,"2021-11-22 18:11:42.714188","","","","","","",""
7.0,0.06731487810611725,0.0009774192770032192,"train",7720.0,"2021-11-22 18:11:45.778082","","","","","","",""
7.0,0.08954542130231857,0.0009811561815951785,"train",7740.0,"2021-11-22 18:11:48.802792","","","","","","",""
7.0,0.058402612805366516,0.0009848939813929015,"train",7760.0,"2021-11-22 18:11:51.861476","","","","","","",""
7.0,0.05775297060608864,0.0009886326195323026,"train",7780.0,"2021-11-22 18:11:54.919755","","","","","","",""
7.0,0.048050496727228165,0.0009923720391365428,"train",7800.0,"2021-11-22 18:11:58.205049","","","","","","",""
7.0,0.05818118900060654,0.000996112183316893,"train",7820.0,"2021-11-22 18:12:01.945490","","","","","","",""
7.0,0.061910293996334076,0.0009998529951736029,"train",7840.0,"2021-11-22 18:12:05.028581","","","","","","",""
7.0,0.08441394567489624,0.0010035944177967638,"train",7860.0,"2021-11-22 18:12:08.094003","","","","","","",""
7.0,0.051863182336091995,0.0010073363942671744,"train",7880.0,"2021-11-22 18:12:11.143168","","","","","","",""
7.0,0.06367264688014984,0.0010110788676572094,"train",7900.0,"2021-11-22 18:12:14.202416","","","","","","",""
7.0,0.05918317660689354,0.0010148217810316822,"train",7920.0,"2021-11-22 18:12:17.233575","","","","","","",""
7.0,0.04783865436911583,0.0010185650774487127,"train",7940.0,"2021-11-22 18:12:20.341841","","","","","","",""
7.0,0.055483654141426086,0.0010223086999605951,"train",7960.0,"2021-11-22 18:12:23.435189","","","","","","",""
7.0,0.07347197085618973,0.0010260525916146609,"train",7980.0,"2021-11-22 18:12:26.551722","","","","","","",""
7.0,0.05765734985470772,0.0010297966954541469,"train",8000.0,"2021-11-22 18:12:30.293762","","","","","","",""
7.0,0.06046504154801369,0.001033540954519064,"train",8020.0,"2021-11-22 18:12:33.407679","","","","","","",""
7.0,0.051247257739305496,0.0010372853118470592,"train",8040.0,"2021-11-22 18:12:36.509375","","","","","","",""
7.0,0.07292862981557846,0.0010410297104742857,"train",8060.0,"2021-11-22 18:12:39.609935","","","","","","",""
7.0,0.0486556775867939,0.0010447740934362692,"train",8080.0,"2021-11-22 18:12:42.746762","","","","","","",""
7.0,0.056706447154283524,0.0010485184037687715,"train",8100.0,"2021-11-22 18:12:45.892500","","","","","","",""
7.0,0.03994882106781006,0.0010522625845086615,"train",8120.0,"2021-11-22 18:12:49.056810","","","","","","",""
7.0,0.05766068398952484,0.0010560065786947796,"train",8140.0,"2021-11-22 18:12:52.207022","","","","","","",""
7.0,0.05345486104488373,0.0010597503293688013,"train",8160.0,"2021-11-22 18:12:55.986505","","","","","","",""
7.0,0.04712503030896187,0.001063493779576111,"train",8180.0,"2021-11-22 18:12:59.199380","","","","","","",""
7.0,0.039293721318244934,0.0010672368723666614,"train",8200.0,"2021-11-22 18:13:02.406328","","","","","","",""
7.0,0.07664253562688828,0.0010709795507958426,"train",8220.0,"2021-11-22 18:13:05.692761","","","","","","",""
7.0,0.07072077691555023,0.0010747217579253504,"train",8240.0,"2021-11-22 18:13:08.960765","","","","","","",""
7.0,0.06037428230047226,0.0010784634368240487,"train",8260.0,"2021-11-22 18:13:12.178650","","","","","","",""
7.0,0.08846388012170792,0.0010822045305688382,"train",8280.0,"2021-11-22 18:13:15.365583","","","","","","",""
7.0,0.05202903226017952,0.0010859449822455227,"train",8300.0,"2021-11-22 18:13:18.550217","","","","","","",""
7.0,0.07468072324991226,0.001089684734949672,"train",8320.0,"2021-11-22 18:13:21.709530","","","","","","",""
7.0,0.05796223506331444,0.00109342373178749,"train",8340.0,"2021-11-22 18:13:25.335120","","","","","","",""
7.0,0.06535546481609344,0.0010971619158766821,"train",8360.0,"2021-11-22 18:13:28.481401","","","","","","",""
7.0,0.04805188253521919,0.0011008992303473152,"train",8380.0,"2021-11-22 18:13:31.762130","","","","","","",""
7.0,0.04480072483420372,0.001104635618342687,"train",8400.0,"2021-11-22 18:13:34.896183","","","","","","",""
7.0,0.05693240463733673,0.001108371023020191,"train",8420.0,"2021-11-22 18:13:38.039189","","","","","","",""
7.0,0.07023943215608597,0.0011121053875521787,"train",8440.0,"2021-11-22 18:13:41.169143","","","","","","",""
7.0,0.04870579019188881,0.0011158386551268257,"train",8460.0,"2021-11-22 18:13:44.277655","","","","","","",""
7.0,0.0547778457403183,0.0011195707689489972,"train",8480.0,"2021-11-22 18:13:47.380917","","","","","","",""
7.0,0.04235060140490532,0.0011233016722411097,"train",8500.0,"2021-11-22 18:13:51.142744","","","","","","",""
7.0,0.052133020013570786,0.0011270313082439951,"train",8520.0,"2021-11-22 18:13:54.236047","","","","","","",""
7.0,0.054266639053821564,0.001130759620217767,"train",8540.0,"2021-11-22 18:13:57.346327","","","","","","",""
7.0,0.08942507207393646,0.0011344865514426794,"train",8560.0,"2021-11-22 18:14:00.488310","","","","","","",""
7.0,0.0665765106678009,0.0011382120452199938,"train",8580.0,"2021-11-22 18:14:03.580299","","","","","","",""
7.0,"","","train",8592.0,"2021-11-22 18:15:37.197745",0.6068543986029251,0.6292953080038016,0.9622292267293648,0.631283491500886,0.5073797929163487,0.5242724379527801,0.34756743527818845
7.0,"","","val",8592.0,"2021-11-22 18:16:02.049391",0.577815145540995,0.5658443096808504,0.9448617743799356,0.5905403425948084,0.46244836329329847,0.47498843210655434,0.3065106818043533
8.0,0.06089770048856735,0.001141936044872839,"train",8600.0,"2021-11-22 18:16:06.196879","","","","","","",""
8.0,0.05537332221865654,0.0011456584937470744,"train",8620.0,"2021-11-22 18:16:09.380246","","","","","","",""
8.0,0.0681697353720665,0.0011493793352121522,"train",8640.0,"2021-11-22 18:16:12.485601","","","","","","",""
8.0,0.05197526887059212,0.0011530985126619784,"train",8660.0,"2021-11-22 18:16:15.621928","","","","","","",""
8.0,0.04812544211745262,0.001156815969515773,"train",8680.0,"2021-11-22 18:16:18.779619","","","","","","",""
8.0,0.04885806515812874,0.001160531649218934,"train",8700.0,"2021-11-22 18:16:22.637904","","","","","","",""
8.0,0.07652729004621506,0.001164245495243894,"train",8720.0,"2021-11-22 18:16:25.775847","","","","","","",""
8.0,0.07185284793376923,0.0011679574510909817,"train",8740.0,"2021-11-22 18:16:28.898810","","","","","","",""
8.0,0.045136161148548126,0.0011716674602892828,"train",8760.0,"2021-11-22 18:16:32.030945","","","","","","",""
8.0,0.0846950113773346,0.0011753754663974968,"train",8780.0,"2021-11-22 18:16:35.113994","","","","","","",""
8.0,0.04686969146132469,0.0011790814130047968,"train",8800.0,"2021-11-22 18:16:38.198390","","","","","","",""
8.0,0.07009055465459824,0.001182785243731688,"train",8820.0,"2021-11-22 18:16:41.262530","","","","","","",""
8.0,0.05665869265794754,0.0011864869022308656,"train",8840.0,"2021-11-22 18:16:44.322420","","","","","","",""
8.0,0.06834462285041809,0.0011901863321880693,"train",8860.0,"2021-11-22 18:16:47.496452","","","","","","",""
8.0,0.039061982184648514,0.001193883477322945,"train",8880.0,"2021-11-22 18:16:50.660183","","","","","","",""
8.0,0.05747436359524727,0.0011975782813898961,"train",8900.0,"2021-11-22 18:16:53.720526","","","","","","",""
8.0,0.05716954544186592,0.0012012706881789417,"train",8920.0,"2021-11-22 18:16:57.324916","","","","","","",""
8.0,0.05861863121390343,0.001204960641516572,"train",8940.0,"2021-11-22 18:17:00.376049","","","","","","",""
8.0,0.07199084758758545,0.0012086480852666014,"train",8960.0,"2021-11-22 18:17:03.428558","","","","","","",""
8.0,0.05560131371021271,0.0012123329633310235,"train",8980.0,"2021-11-22 18:17:06.482902","","","","","","",""
8.0,0.07896623760461807,0.0012160152196508643,"train",9000.0,"2021-11-22 18:17:09.600044","","","","","","",""
8.0,0.04997403174638748,0.0012196947982070355,"train",9020.0,"2021-11-22 18:17:12.679778","","","","","","",""
8.0,0.06973661482334137,0.0012233716430211856,"train",9040.0,"2021-11-22 18:17:15.790604","","","","","","",""
8.0,0.07964795082807541,0.001227045698156553,"train",9060.0,"2021-11-22 18:17:18.912010","","","","","","",""
8.0,0.06659479439258575,0.0012307169077188148,"train",9080.0,"2021-11-22 18:17:22.016453","","","","","","",""
8.0,0.044325150549411774,0.0012343852158569401,"train",9100.0,"2021-11-22 18:17:25.138267","","","","","","",""
8.0,0.06558559089899063,0.0012380505667640377,"train",9120.0,"2021-11-22 18:17:28.180696","","","","","","",""
8.0,0.06822291016578674,0.0012417129046782046,"train",9140.0,"2021-11-22 18:17:31.246379","","","","","","",""
8.0,0.07179362326860428,0.0012453721738833758,"train",9160.0,"2021-11-22 18:17:34.998827","","","","","","",""
8.0,0.049193717539310455,0.001249028318710172,"train",9180.0,"2021-11-22 18:17:38.081237","","","","","","",""
8.0,0.048300232738256454,0.0012526812835367447,"train",9200.0,"2021-11-22 18:17:41.155289","","","","","","",""
8.0,0.044444479048252106,0.0012563310127896242,"train",9220.0,"2021-11-22 18:17:44.246938","","","","","","",""
8.0,0.07520308345556259,0.0012599774509445645,"train",9240.0,"2021-11-22 18:17:47.331681","","","","","","",""
8.0,0.04385792464017868,0.0012636205425273874,"train",9260.0,"2021-11-22 18:17:50.392999","","","","","","",""
8.0,0.04932567477226257,0.0012672602321148268,"train",9280.0,"2021-11-22 18:17:53.564027","","","","","","",""
8.0,0.05672313645482063,0.0012708964643353732,"train",9300.0,"2021-11-22 18:17:56.769655","","","","","","",""
8.0,0.05481300130486488,0.001274529183870114,"train",9320.0,"2021-11-22 18:18:00.018793","","","","","","",""
8.0,0.06541486829519272,0.0012781583354535748,"train",9340.0,"2021-11-22 18:18:03.193013","","","","","","",""
8.0,0.044633716344833374,0.0012817838638745646,"train",9360.0,"2021-11-22 18:18:06.329468","","","","","","",""
8.0,0.06810279190540314,0.001285405713977009,"train",9380.0,"2021-11-22 18:18:10.031620","","","","","","",""
8.0,0.051291052252054214,0.0012890238306607947,"train",9400.0,"2021-11-22 18:18:13.222131","","","","","","",""
8.0,0.05504358932375908,0.001292638158882606,"train",9420.0,"2021-11-22 18:18:16.350000","","","","","","",""
8.0,0.07117228955030441,0.0012962486436567603,"train",9440.0,"2021-11-22 18:18:19.488677","","","","","","",""
8.0,0.07074999809265137,0.0012998552300560484,"train",9460.0,"2021-11-22 18:18:22.559301","","","","","","",""
8.0,0.046075429767370224,0.0013034578632125668,"train",9480.0,"2021-11-22 18:18:25.666087","","","","","","",""
8.0,0.06642083078622818,0.0013070564883185534,"train",9500.0,"2021-11-22 18:18:28.757943","","","","","","",""
8.0,0.08593916893005371,0.001310651050627223,"train",9520.0,"2021-11-22 18:18:31.804962","","","","","","",""
8.0,0.08475121855735779,0.001314241495453598,"train",9540.0,"2021-11-22 18:18:34.886755","","","","","","",""
8.0,0.06969698518514633,0.00131782776817534,"train",9560.0,"2021-11-22 18:18:37.947887","","","","","","",""
8.0,0.06044919788837433,0.0013214098142335837,"train",9580.0,"2021-11-22 18:18:41.020405","","","","","","",""
8.0,0.03691251203417778,0.001324987579133764,"train",9600.0,"2021-11-22 18:18:44.085073","","","","","","",""
8.0,0.04503801465034485,0.0013285610084464463,"train",9620.0,"2021-11-22 18:18:47.824345","","","","","","",""
8.0,0.038165394216775894,0.001332130047808155,"train",9640.0,"2021-11-22 18:18:50.919968","","","","","","",""
8.0,0.08326627314090729,0.001335694642922199,"train",9660.0,"2021-11-22 18:18:54.035133","","","","","","",""
8.0,"","","train",9666.0,"2021-11-22 18:20:26.342856",0.6010041475660336,0.6447735931949583,0.9651538540401599,0.633315144825551,0.5337019513914684,0.5463982262522161,0.35935232404005313
8.0,"","","val",9666.0,"2021-11-22 18:20:51.715419",0.5704511191000812,0.5699976806565058,0.9485806870479949,0.5881873111130107,0.49067356540900786,0.5020158836796595,0.31991583102208926
9.0,0.05997235327959061,0.0013392547395594985,"train",9680.0,"2021-11-22 18:20:56.836049","","","","","","",""
9.0,0.04668918251991272,0.001342810283559412,"train",9700.0,"2021-11-22 18:20:59.918184","","","","","","",""
9.0,0.0732400044798851,0.0013463612208305564,"train",9720.0,"2021-11-22 18:21:03.017732","","","","","","",""
9.0,0.048224449157714844,0.0013499074973516321,"train",9740.0,"2021-11-22 18:21:06.101088","","","","","","",""
9.0,0.05975121632218361,0.0013534490591722464,"train",9760.0,"2021-11-22 18:21:09.923168","","","","","","",""
9.0,0.044140130281448364,0.0013569858524137305,"train",9780.0,"2021-11-22 18:21:13.074158","","","","","","",""
9.0,0.051599834114313126,0.001360517823269962,"train",9800.0,"2021-11-22 18:21:16.247944","","","","","","",""
9.0,0.04624713584780693,0.0013640449180081834,"train",9820.0,"2021-11-22 18:21:19.371039","","","","","","",""
9.0,0.046433188021183014,0.0013675670829698173,"train",9840.0,"2021-11-22 18:21:22.514604","","","","","","",""
9.0,0.06632008403539658,0.0013710842645712853,"train",9860.0,"2021-11-22 18:21:25.635878","","","","","","",""
9.0,0.050170011818408966,0.0013745964093048219,"train",9880.0,"2021-11-22 18:21:29.418619","","","","","","",""
9.0,0.04231660068035126,0.0013781034637392886,"train",9900.0,"2021-11-22 18:21:32.598181","","","","","","",""
9.0,0.0525033213198185,0.0013816053745209864,"train",9920.0,"2021-11-22 18:21:35.817964","","","","","","",""
9.0,0.0911342054605484,0.0013851020883744697,"train",9940.0,"2021-11-22 18:21:39.035632","","","","","","",""
9.0,0.10330193489789963,0.001388593552103353,"train",9960.0,"2021-11-22 18:21:42.252751","","","","","","",""
9.0,0.07087460160255432,0.0013920797125911233,"train",9980.0,"2021-11-22 18:21:45.481364","","","","","","",""
9.0,0.04129467532038689,0.001395560516801947,"train",10000.0,"2021-11-22 18:21:49.321451","","","","","","",""
9.0,0.0716114416718483,0.0013990359117814774,"train",10020.0,"2021-11-22 18:21:52.592246","","","","","","",""
9.0,0.05409804731607437,0.0014025058446576583,"train",10040.0,"2021-11-22 18:21:55.835638","","","","","","",""
9.0,0.04716577008366585,0.0014059702626415317,"train",10060.0,"2021-11-22 18:21:59.130498","","","","","","",""
9.0,0.050331272184848785,0.0014094291130280377,"train",10080.0,"2021-11-22 18:22:02.384568","","","","","","",""
9.0,0.0502752810716629,0.0014128823431968183,"train",10100.0,"2021-11-22 18:22:06.104520","","","","","","",""
9.0,0.07260511815547943,0.001416329900613017,"train",10120.0,"2021-11-22 18:22:09.206583","","","","","","",""
9.0,0.06988044083118439,0.0014197717328280782,"train",10140.0,"2021-11-22 18:22:12.301622","","","","","","",""
9.0,0.07144668698310852,0.0014232077874805457,"train",10160.0,"2021-11-22 18:22:15.398949","","","","","","",""
9.0,0.0714673176407814,0.0014266380122968589,"train",10180.0,"2021-11-22 18:22:18.497665","","","","","","",""
9.0,0.06641454249620438,0.0014300623550921468,"train",10200.0,"2021-11-22 18:22:21.596763","","","","","","",""
9.0,0.05850424990057945,0.0014334807637710243,"train",10220.0,"2021-11-22 18:22:25.295424","","","","","","",""
9.0,0.04607617110013962,0.0014368931863283831,"train",10240.0,"2021-11-22 18:22:28.369322","","","","","","",""
9.0,0.048089951276779175,0.0014402995708501826,"train",10260.0,"2021-11-22 18:22:31.456119","","","","","","",""
9.0,0.05854351073503494,0.0014436998655142422,"train",10280.0,"2021-11-22 18:22:34.567502","","","","","","",""
9.0,0.03776467591524124,0.0014470940185910258,"train",10300.0,"2021-11-22 18:22:37.630003","","","","","","",""
9.0,0.0454392209649086,0.001450481978444431,"train",10320.0,"2021-11-22 18:22:40.739906","","","","","","",""
9.0,0.08285365998744965,0.0014538636935325763,"train",10340.0,"2021-11-22 18:22:44.520081","","","","","","",""
9.0,0.053550686687231064,0.0014572391124085817,"train",10360.0,"2021-11-22 18:22:47.597951","","","","","","",""
9.0,0.07691513001918793,0.0014606081837213525,"train",10380.0,"2021-11-22 18:22:50.737896","","","","","","",""
9.0,0.04507358372211456,0.0014639708562163639,"train",10400.0,"2021-11-22 18:22:53.866468","","","","","","",""
9.0,0.035067301243543625,0.001467327078736435,"train",10420.0,"2021-11-22 18:22:56.971058","","","","","","",""
9.0,0.04923531785607338,0.0014706768002225108,"train",10440.0,"2021-11-22 18:23:00.084852","","","","","","",""
9.0,0.03754134103655815,0.0014740199697144392,"train",10460.0,"2021-11-22 18:23:03.806202","","","","","","",""
9.0,0.05530863627791405,0.0014773565363517442,"train",10480.0,"2021-11-22 18:23:06.976007","","","","","","",""
9.0,0.05111554265022278,0.0014806864493744007,"train",10500.0,"2021-11-22 18:23:10.124179","","","","","","",""
9.0,0.06808941811323166,0.0014840096581236072,"train",10520.0,"2021-11-22 18:23:13.255549","","","","","","",""
9.0,0.08140341192483902,0.001487326112042556,"train",10540.0,"2021-11-22 18:23:16.386788","","","","","","",""
9.0,0.05045228824019432,0.0014906357606772013,"train",10560.0,"2021-11-22 18:23:19.549950","","","","","","",""
9.0,0.07730211317539215,0.0014939385536770291,"train",10580.0,"2021-11-22 18:23:23.377782","","","","","","",""
9.0,0.04391947016119957,0.0014972344407958218,"train",10600.0,"2021-11-22 18:23:26.564738","","","","","","",""
9.0,0.03601131588220596,0.0015005233718924213,"train",10620.0,"2021-11-22 18:23:29.731142","","","","","","",""
9.0,0.08102244883775711,0.0015038052969314946,"train",10640.0,"2021-11-22 18:23:32.890372","","","","","","",""
9.0,0.04812416434288025,0.0015070801659842939,"train",10660.0,"2021-11-22 18:23:36.021947","","","","","","",""
9.0,0.052081722766160965,0.001510347929229414,"train",10680.0,"2021-11-22 18:23:39.122805","","","","","","",""
9.0,0.04341614246368408,0.0015136085369535537,"train",10700.0,"2021-11-22 18:23:42.791466","","","","","","",""
9.0,0.06959186494350433,0.0015168619395522708,"train",10720.0,"2021-11-22 18:23:45.950564","","","","","","",""
9.0,0.05687921494245529,0.0015201080875307349,"train",10740.0,"2021-11-22 18:23:49.021303","","","","","","",""
9.0,"","","train",10740.0,"2021-11-22 18:25:25.551369",0.6159935967401586,0.6708480656079314,0.9684017787739214,0.6578282136933998,0.5478141154102087,0.5706182984787246,0.3771193498622699
9.0,"","","val",10740.0,"2021-11-22 18:25:49.929685",0.5811782442305462,0.592836644329427,0.9516425086080063,0.6100364796932675,0.49472745653657463,0.5111056340881655,0.32878558689576376
10.0,0.046620938926935196,0.0015233469315044834,"train",10760.0,"2021-11-22 18:25:55.916717","","","","","","",""
10.0,0.06079705059528351,0.0015265784222001709,"train",10780.0,"2021-11-22 18:25:58.998794","","","","","","",""
10.0,0.0428825281560421,0.0015298025104563185,"train",10800.0,"2021-11-22 18:26:02.076807","","","","","","",""
10.0,0.04372331127524376,0.001533019147224064,"train",10820.0,"2021-11-22 18:26:05.845765","","","","","","",""
10.0,0.051927193999290466,0.0015362282835679054,"train",10840.0,"2021-11-22 18:26:08.971047","","","","","","",""
10.0,0.09454090893268585,0.0015394298706664469,"train",10860.0,"2021-11-22 18:26:12.128854","","","","","","",""
10.0,0.06436584889888763,0.001542623859813141,"train",10880.0,"2021-11-22 18:26:15.254887","","","","","","",""
10.0,0.06929571181535721,0.00154581020241703,"train",10900.0,"2021-11-22 18:26:18.365545","","","","","","",""
10.0,0.03160039708018303,0.0015489888500034858,"train",10920.0,"2021-11-22 18:26:21.469063","","","","","","",""
10.0,0.07393061369657516,0.0015521597542149444,"train",10940.0,"2021-11-22 18:26:24.571002","","","","","","",""
10.0,0.06832313537597656,0.0015553228668116455,"train",10960.0,"2021-11-22 18:26:28.255419","","","","","","",""
10.0,0.05177390202879906,0.0015584781396723642,"train",10980.0,"2021-11-22 18:26:31.443028","","","","","","",""
10.0,0.03660958632826805,0.0015616255247951432,"train",11000.0,"2021-11-22 18:26:34.641248","","","","","","",""
10.0,0.07610231637954712,0.0015647649742980233,"train",11020.0,"2021-11-22 18:26:37.852650","","","","","","",""
10.0,0.03868112340569496,0.0015678964404197727,"train",11040.0,"2021-11-22 18:26:41.063459","","","","","","",""
10.0,0.07456260174512863,0.0015710198755206112,"train",11060.0,"2021-11-22 18:26:44.248764","","","","","","",""
10.0,0.07966795563697815,0.0015741352320829379,"train",11080.0,"2021-11-22 18:26:47.392366","","","","","","",""
10.0,0.05530470237135887,0.0015772424627120527,"train",11100.0,"2021-11-22 18:26:51.188076","","","","","","",""
10.0,0.04055819287896156,0.0015803415201368761,"train",11120.0,"2021-11-22 18:26:54.339787","","","","","","",""
10.0,0.07794224470853806,0.001583432357210671,"train",11140.0,"2021-11-22 18:26:57.498571","","","","","","",""
10.0,0.03873766213655472,0.001586514926911758,"train",11160.0,"2021-11-22 18:27:00.715828","","","","","","",""
10.0,0.04020490124821663,0.0015895891823442313,"train",11180.0,"2021-11-22 18:27:03.950398","","","","","","",""
10.0,0.04716077446937561,0.0015926550767386717,"train",11200.0,"2021-11-22 18:27:07.110771","","","","","","",""
10.0,0.0375533401966095,0.0015957125634528599,"train",11220.0,"2021-11-22 18:27:10.292818","","","","","","",""
10.0,0.09305254369974136,0.0015987615959724836,"train",11240.0,"2021-11-22 18:27:14.147017","","","","","","",""
10.0,0.047135163098573685,0.0016018021279118457,"train",11260.0,"2021-11-22 18:27:17.335553","","","","","","",""
10.0,0.049983374774456024,0.0016048341130145728,"train",11280.0,"2021-11-22 18:27:20.515243","","","","","","",""
10.0,0.08909328281879425,0.0016078575051543145,"train",11300.0,"2021-11-22 18:27:23.683818","","","","","","",""
10.0,0.05627870932221413,0.0016108722583354478,"train",11320.0,"2021-11-22 18:27:26.863221","","","","","","",""
10.0,0.04166611656546593,0.0016138783266937777,"train",11340.0,"2021-11-22 18:27:30.060769","","","","","","",""
10.0,0.05446619540452957,0.0016168756644972322,"train",11360.0,"2021-11-22 18:27:33.218725","","","","","","",""
10.0,0.04574592784047127,0.0016198642261465587,"train",11380.0,"2021-11-22 18:27:36.902402","","","","","","",""
10.0,0.06984356790781021,0.0016228439661760208,"train",11400.0,"2021-11-22 18:27:40.007194","","","","","","",""
10.0,0.07321559637784958,0.001625814839254086,"train",11420.0,"2021-11-22 18:27:43.131512","","","","","","",""
10.0,0.06846169382333755,0.0016287768001841164,"train",11440.0,"2021-11-22 18:27:46.291393","","","","","","",""
10.0,0.04109221324324608,0.001631729803905059,"train",11460.0,"2021-11-22 18:27:49.497377","","","","","","",""
10.0,0.06087403744459152,0.0016346738054921273,"train",11480.0,"2021-11-22 18:27:52.781660","","","","","","",""
10.0,0.06023218482732773,0.001637608760157486,"train",11500.0,"2021-11-22 18:27:55.921451","","","","","","",""
10.0,0.07902060449123383,0.0016405346232509356,"train",11520.0,"2021-11-22 18:27:59.669474","","","","","","",""
10.0,0.03832211345434189,0.0016434513502605861,"train",11540.0,"2021-11-22 18:28:02.805855","","","","","","",""
10.0,0.049965132027864456,0.0016463588968135383,"train",11560.0,"2021-11-22 18:28:05.918640","","","","","","",""
10.0,0.055021800100803375,0.0016492572186765577,"train",11580.0,"2021-11-22 18:28:09.020999","","","","","","",""
10.0,0.06433440744876862,0.001652146271756747,"train",11600.0,"2021-11-22 18:28:12.151716","","","","","","",""
10.0,0.05072334408760071,0.0016550260121022172,"train",11620.0,"2021-11-22 18:28:15.254961","","","","","","",""
10.0,0.06265132129192352,0.0016578963959027562,"train",11640.0,"2021-11-22 18:28:18.435445","","","","","","",""
10.0,0.054799262434244156,0.001660757379490496,"train",11660.0,"2021-11-22 18:28:22.116037","","","","","","",""
10.0,0.04257455840706825,0.0016636089193405761,"train",11680.0,"2021-11-22 18:28:25.229852","","","","","","",""
10.0,0.044446781277656555,0.0016664509720718049,"train",11700.0,"2021-11-22 18:28:28.376529","","","","","","",""
10.0,0.04903343319892883,0.0016692834944473224,"train",11720.0,"2021-11-22 18:28:31.471144","","","","","","",""
10.0,0.05771069601178169,0.0016721064433752554,"train",11740.0,"2021-11-22 18:28:34.537411","","","","","","",""
10.0,0.05505410209298134,0.0016749197759093734,"train",11760.0,"2021-11-22 18:28:37.589647","","","","","","",""
10.0,0.050131287425756454,0.0016777234492497436,"train",11780.0,"2021-11-22 18:28:41.264653","","","","","","",""
10.0,0.06204184517264366,0.0016805174207433808,"train",11800.0,"2021-11-22 18:28:44.343994","","","","","","",""
10.0,"","","train",11814.0,"2021-11-22 18:30:23.128671",0.6235610856436004,0.6837006878287964,0.9704480588532726,0.666747154413828,0.5738976167104977,0.5883426711565867,0.39146636013315395
10.0,"","","val",11814.0,"2021-11-22 18:30:49.473432",0.5812362286907109,0.5968256042808636,0.9517335476427695,0.6131383818512066,0.5188276713663018,0.5315783031545196,0.33769893332795614
11.0,0.0537077970802784,0.0016833016478848956,"train",11820.0,"2021-11-22 18:30:53.291664","","","","","","",""
11.0,0.08205950260162354,0.0016860760883171426,"train",11840.0,"2021-11-22 18:30:56.668729","","","","","","",""
11.0,0.039967190474271774,0.001688840699831864,"train",11860.0,"2021-11-22 18:30:59.845245","","","","","","",""
11.0,0.066289022564888,0.0016915954403703313,"train",11880.0,"2021-11-22 18:31:03.063450","","","","","","",""
11.0,0.07967417687177658,0.0016943402680239862,"train",11900.0,"2021-11-22 18:31:06.150669","","","","","","",""
11.0,0.05788367614150047,0.0016970751410350774,"train",11920.0,"2021-11-22 18:31:09.147288","","","","","","",""
11.0,0.05954016372561455,0.001699800017797296,"train",11940.0,"2021-11-22 18:31:12.164182","","","","","","",""
11.0,0.04140458628535271,0.0017025148568564086,"train",11960.0,"2021-11-22 18:31:16.096693","","","","","","",""
11.0,0.049571167677640915,0.001705219616910888,"train",11980.0,"2021-11-22 18:31:19.282901","","","","","","",""
11.0,0.05783494934439659,0.001707914256812541,"train",12000.0,"2021-11-22 18:31:22.472713","","","","","","",""
11.0,0.03378770500421524,0.0017105987355671352,"train",12020.0,"2021-11-22 18:31:25.605471","","","","","","",""
11.0,0.043212711811065674,0.0017132730123350227,"train",12040.0,"2021-11-22 18:31:28.748453","","","","","","",""
11.0,0.0476965568959713,0.00171593704643176,"train",12060.0,"2021-11-22 18:31:31.882704","","","","","","",""
11.0,0.07055453211069107,0.0017185907973287285,"train",12080.0,"2021-11-22 18:31:35.015554","","","","","","",""
11.0,0.08058848232030869,0.0017212342246537506,"train",12100.0,"2021-11-22 18:31:38.080553","","","","","","",""
11.0,0.06535283476114273,0.0017238672881917032,"train",12120.0,"2021-11-22 18:31:41.762327","","","","","","",""
11.0,0.047379106283187866,0.001726489947885131,"train",12140.0,"2021-11-22 18:31:44.887670","","","","","","",""
11.0,0.0326567105948925,0.0017291021638348543,"train",12160.0,"2021-11-22 18:31:48.030550","","","","","","",""
11.0,0.06719185411930084,0.0017317038963005765,"train",12180.0,"2021-11-22 18:31:51.124864","","","","","","",""
11.0,0.04570009931921959,0.00173429510570149,"train",12200.0,"2021-11-22 18:31:54.235599","","","","","","",""
11.0,0.05313536152243614,0.0017368757526168759,"train",12220.0,"2021-11-22 18:31:57.404270","","","","","","",""
11.0,0.07741305977106094,0.0017394457977867057,"train",12240.0,"2021-11-22 18:32:00.523720","","","","","","",""
11.0,0.058354612439870834,0.0017420052021122378,"train",12260.0,"2021-11-22 18:32:03.595681","","","","","","",""
11.0,0.057770464569330215,0.0017445539266566128,"train",12280.0,"2021-11-22 18:32:06.736401","","","","","","",""
11.0,0.06956616044044495,0.001747091932645445,"train",12300.0,"2021-11-22 18:32:10.431353","","","","","","",""
11.0,0.07238773256540298,0.0017496191814674125,"train",12320.0,"2021-11-22 18:32:13.391750","","","","","","",""
11.0,0.052333906292915344,0.001752135634674846,"train",12340.0,"2021-11-22 18:32:16.537225","","","","","","",""
11.0,0.054963964968919754,0.0017546412539843118,"train",12360.0,"2021-11-22 18:32:19.853783","","","","","","",""
11.0,0.04214421659708023,0.001757136001277194,"train",12380.0,"2021-11-22 18:32:23.186244","","","","","","",""
11.0,0.07638818025588989,0.001759619838600278,"train",12400.0,"2021-11-22 18:32:26.374836","","","","","","",""
11.0,0.04684991389513016,0.0017620927281663229,"train",12420.0,"2021-11-22 18:32:29.573396","","","","","","",""
11.0,0.03954450041055679,0.0017645546323546398,"train",12440.0,"2021-11-22 18:32:32.745671","","","","","","",""
11.0,0.057607486844062805,0.0017670055137116636,"train",12460.0,"2021-11-22 18:32:36.565924","","","","","","",""
11.0,0.042938899248838425,0.0017694453349515209,"train",12480.0,"2021-11-22 18:32:39.764297","","","","","","",""
11.0,0.07885675877332687,0.0017718740589566,"train",12500.0,"2021-11-22 18:32:42.915441","","","","","","",""
11.0,0.06457304954528809,0.0017742916487781134,"train",12520.0,"2021-11-22 18:32:46.027809","","","","","","",""
11.0,0.07052621990442276,0.0017766980676366608,"train",12540.0,"2021-11-22 18:32:49.137835","","","","","","",""
11.0,0.04436009004712105,0.001779093278922789,"train",12560.0,"2021-11-22 18:32:52.252504","","","","","","",""
11.0,0.06802033632993698,0.001781477246197548,"train",12580.0,"2021-11-22 18:32:55.387702","","","","","","",""
11.0,0.03368436545133591,0.0017838499331930462,"train",12600.0,"2021-11-22 18:32:58.537653","","","","","","",""
11.0,0.040086086839437485,0.001786211303813001,"train",12620.0,"2021-11-22 18:33:01.625060","","","","","","",""
11.0,0.058168597519397736,0.0017885613221332894,"train",12640.0,"2021-11-22 18:33:05.297057","","","","","","",""
11.0,0.06679396331310272,0.0017908999524024931,"train",12660.0,"2021-11-22 18:33:08.471674","","","","","","",""
11.0,0.04282789304852486,0.0017932271590424438,"train",12680.0,"2021-11-22 18:33:11.579456","","","","","","",""
11.0,0.039678625762462616,0.0017955429066487635,"train",12700.0,"2021-11-22 18:33:14.665448","","","","","","",""
11.0,0.0538293793797493,0.0017978471599914025,"train",12720.0,"2021-11-22 18:33:17.757260","","","","","","",""
11.0,0.059267558157444,0.0018001398840151778,"train",12740.0,"2021-11-22 18:33:20.859452","","","","","","",""
11.0,0.046237993985414505,0.0018024210438403031,"train",12760.0,"2021-11-22 18:33:23.992286","","","","","","",""
11.0,0.04286592826247215,0.0018046906047629228,"train",12780.0,"2021-11-22 18:33:27.163851","","","","","","",""
11.0,0.06945497542619705,0.0018069485322556372,"train",12800.0,"2021-11-22 18:33:30.881205","","","","","","",""
11.0,0.05243218317627907,0.001809194791968029,"train",12820.0,"2021-11-22 18:33:33.975169","","","","","","",""
11.0,0.0496276393532753,0.0018114293497271863,"train",12840.0,"2021-11-22 18:33:37.076940","","","","","","",""
11.0,0.06170666590332985,0.0018136521715382218,"train",12860.0,"2021-11-22 18:33:40.206275","","","","","","",""
11.0,0.04787885397672653,0.0018158632235847892,"train",12880.0,"2021-11-22 18:33:43.347145","","","","","","",""
11.0,"","","train",12888.0,"2021-11-22 18:35:15.863511",0.6306774357854908,0.706982383570912,0.9742277846241225,0.6953216471001409,0.5934255505000766,0.6146811852975749,0.4136022986762024
11.0,"","","val",12888.0,"2021-11-22 18:35:40.432069",0.5791487881247825,0.6071850330838674,0.9532715212945041,0.6286555147014256,0.5225400125103425,0.5390939297160205,0.3412835679987106
12.0,0.048363521695137024,0.0018180624722295999,"train",12900.0,"2021-11-22 18:35:45.264522","","","","","","",""
12.0,0.04945702105760574,0.001820249884014933,"train",12920.0,"2021-11-22 18:35:48.491855","","","","","","",""
12.0,0.04236438870429993,0.001822425425663144,"train",12940.0,"2021-11-22 18:35:51.594520","","","","","","",""
12.0,0.05276479199528694,0.0018245890640771725,"train",12960.0,"2021-11-22 18:35:54.668495","","","","","","",""
12.0,0.031606871634721756,0.0018267407663410452,"train",12980.0,"2021-11-22 18:35:57.760099","","","","","","",""
12.0,0.04749726504087448,0.0018288804997203755,"train",13000.0,"2021-11-22 18:36:01.587711","","","","","","",""
12.0,0.05447397008538246,0.0018310082316628634,"train",13020.0,"2021-11-22 18:36:04.765489","","","","","","",""
12.0,0.07479846477508545,0.0018331239297987893,"train",13040.0,"2021-11-22 18:36:07.917161","","","","","","",""
12.0,0.07277468591928482,0.0018352275619415066,"train",13060.0,"2021-11-22 18:36:11.088493","","","","","","",""
12.0,0.047561902552843094,0.0018373190960879326,"train",13080.0,"2021-11-22 18:36:14.256762","","","","","","",""
12.0,0.04006379470229149,0.0018393985004190336,"train",13100.0,"2021-11-22 18:36:17.394867","","","","","","",""
12.0,0.03449928015470505,0.00184146574330031,"train",13120.0,"2021-11-22 18:36:20.493176","","","","","","",""
12.0,0.08408575505018234,0.001843520793282278,"train",13140.0,"2021-11-22 18:36:23.624799","","","","","","",""
12.0,0.06409581750631332,0.0018455636191009464,"train",13160.0,"2021-11-22 18:36:26.763755","","","","","","",""
12.0,0.04152461513876915,0.001847594189678294,"train",13180.0,"2021-11-22 18:36:29.859556","","","","","","",""
12.0,0.04354894906282425,0.0018496124741227415,"train",13200.0,"2021-11-22 18:36:33.015165","","","","","","",""
12.0,0.05622699856758118,0.001851618441729622,"train",13220.0,"2021-11-22 18:36:36.744157","","","","","","",""
12.0,0.06267161667346954,0.0018536120619816467,"train",13240.0,"2021-11-22 18:36:39.910340","","","","","","",""
12.0,0.048133522272109985,0.0018555933045493712,"train",13260.0,"2021-11-22 18:36:43.049283","","","","","","",""
12.0,0.04039052128791809,0.0018575621392916554,"train",13280.0,"2021-11-22 18:36:46.167395","","","","","","",""
12.0,0.04467178136110306,0.0018595185362561225,"train",13300.0,"2021-11-22 18:36:49.372018","","","","","","",""
12.0,0.04139101132750511,0.0018614624656796155,"train",13320.0,"2021-11-22 18:36:52.587772","","","","","","",""
12.0,0.09272729605436325,0.0018633938979886484,"train",13340.0,"2021-11-22 18:36:55.901651","","","","","","",""
12.0,0.053739916533231735,0.0018653128037998568,"train",13360.0,"2021-11-22 18:36:59.149469","","","","","","",""
12.0,0.06906308978796005,0.0018672191539204459,"train",13380.0,"2021-11-22 18:37:02.372141","","","","","","",""
12.0,0.06588225066661835,0.0018691129193486335,"train",13400.0,"2021-11-22 18:37:05.584949","","","","","","",""
12.0,0.0646270290017128,0.0018709940712740908,"train",13420.0,"2021-11-22 18:37:08.808991","","","","","","",""
12.0,0.03784734010696411,0.0018728625810783823,"train",13440.0,"2021-11-22 18:37:12.020834","","","","","","",""
12.0,0.033032163977622986,0.0018747184203353996,"train",13460.0,"2021-11-22 18:37:15.829622","","","","","","",""
12.0,0.050858013331890106,0.0018765615608117947,"train",13480.0,"2021-11-22 18:37:19.102946","","","","","","",""
12.0,0.054732389748096466,0.0018783919744674096,"train",13500.0,"2021-11-22 18:37:22.349327","","","","","","",""
12.0,0.07552238553762436,0.0018802096334557027,"train",13520.0,"2021-11-22 18:37:25.631928","","","","","","",""
12.0,0.07722195237874985,0.0018820145101241712,"train",13540.0,"2021-11-22 18:37:28.842638","","","","","","",""
12.0,0.04333421215415001,0.0018838065770147745,"train",13560.0,"2021-11-22 18:37:32.070635","","","","","","",""
12.0,0.0506170317530632,0.0018855858068643496,"train",13580.0,"2021-11-22 18:37:35.276886","","","","","","",""
12.0,0.07448127120733261,0.001887352172605026,"train",13600.0,"2021-11-22 18:37:38.493486","","","","","","",""
12.0,0.0683673769235611,0.0018891056473646398,"train",13620.0,"2021-11-22 18:37:41.658629","","","","","","",""
12.0,0.045876748859882355,0.0018908462044671395,"train",13640.0,"2021-11-22 18:37:44.772003","","","","","","",""
12.0,0.08507552742958069,0.001892573817432993,"train",13660.0,"2021-11-22 18:37:47.897470","","","","","","",""
12.0,0.06570649147033691,0.0018942884599795914,"train",13680.0,"2021-11-22 18:37:51.686815","","","","","","",""
12.0,0.041943661868572235,0.001895990106021648,"train",13700.0,"2021-11-22 18:37:54.780414","","","","","","",""
12.0,0.06276313215494156,0.0018976787296715943,"train",13720.0,"2021-11-22 18:37:57.885000","","","","","","",""
12.0,0.06074421852827072,0.0018993543052399757,"train",13740.0,"2021-11-22 18:38:01.014925","","","","","","",""
12.0,0.06211215630173683,0.0019010168072358413,"train",13760.0,"2021-11-22 18:38:04.140694","","","","","","",""
12.0,0.08614062517881393,0.0019026662103671305,"train",13780.0,"2021-11-22 18:38:07.215244","","","","","","",""
12.0,0.06172197684645653,0.0019043024895410605,"train",13800.0,"2021-11-22 18:38:10.254909","","","","","","",""
12.0,0.07998008280992508,0.001905925619864506,"train",13820.0,"2021-11-22 18:38:13.298028","","","","","","",""
12.0,0.03239072486758232,0.001907535576644378,"train",13840.0,"2021-11-22 18:38:16.244550","","","","","","",""
12.0,0.046466462314128876,0.0019091323353880008,"train",13860.0,"2021-11-22 18:38:19.297676","","","","","","",""
12.0,0.039628881961107254,0.0019107158718034828,"train",13880.0,"2021-11-22 18:38:22.380187","","","","","","",""
12.0,0.0481143482029438,0.001912286161800088,"train",13900.0,"2021-11-22 18:38:25.495573","","","","","","",""
12.0,0.04620976001024246,0.0019138431814886008,"train",13920.0,"2021-11-22 18:38:29.243428","","","","","","",""
12.0,0.0523299016058445,0.0019153869071816896,"train",13940.0,"2021-11-22 18:38:32.412715","","","","","","",""
12.0,0.059532102197408676,0.0019169173153942693,"train",13960.0,"2021-11-22 18:38:35.493494","","","","","","",""
12.0,"","","train",13962.0,"2021-11-22 18:40:06.897759",0.6602051953721895,0.7287378447623085,0.9771651249295361,0.7080302857975463,0.6012647766484713,0.6324165716758922,0.4287571106324766
12.0,"","","val",13962.0,"2021-11-22 18:40:31.867000",0.6024005566508176,0.6129572012827059,0.9561693265107165,0.6367725673149598,0.5320158929406988,0.5534136164101017,0.35626044322221095
13.0,0.05486055091023445,0.0019184343828438557,"train",13980.0,"2021-11-22 18:40:37.610615","","","","","","",""
13.0,0.0413353331387043,0.0019199380864509208,"train",14000.0,"2021-11-22 18:40:40.783133","","","","","","",""
13.0,0.04774586856365204,0.0019214284033392457,"train",14020.0,"2021-11-22 18:40:43.879490","","","","","","",""
13.0,0.043230846524238586,0.0019229053108362649,"train",14040.0,"2021-11-22 18:40:46.940721","","","","","","",""
13.0,0.07108813524246216,0.0019243687864734145,"train",14060.0,"2021-11-22 18:40:50.707199","","","","","","",""
13.0,0.04155214503407478,0.0019258188079864732,"train",14080.0,"2021-11-22 18:40:53.749583","","","","","","",""
13.0,0.03766410052776337,0.0019272553533158999,"train",14100.0,"2021-11-22 18:40:56.841730","","","","","","",""
13.0,0.04369191825389862,0.0019286784006071697,"train",14120.0,"2021-11-22 18:40:59.982226","","","","","","",""
13.0,0.06956283748149872,0.0019300879282111083,"train",14140.0,"2021-11-22 18:41:03.198638","","","","","","",""
13.0,0.0554632842540741,0.0019314839146842185,"train",14160.0,"2021-11-22 18:41:06.369234","","","","","","",""
13.0,0.058342307806015015,0.0019328663387890076,"train",14180.0,"2021-11-22 18:41:10.092235","","","","","","",""
13.0,0.060238245874643326,0.0019342351794943119,"train",14200.0,"2021-11-22 18:41:13.254182","","","","","","",""
13.0,0.07413355261087418,0.0019355904159756138,"train",14220.0,"2021-11-22 18:41:16.426492","","","","","","",""
13.0,0.03907233104109764,0.0019369320276153613,"train",14240.0,"2021-11-22 18:41:19.609058","","","","","","",""
13.0,0.03510262072086334,0.00193825999400328,"train",14260.0,"2021-11-22 18:41:22.775744","","","","","","",""
13.0,0.04549242928624153,0.0019395742949366843,"train",14280.0,"2021-11-22 18:41:25.989494","","","","","","",""
13.0,0.06262841075658798,0.0019408749104207845,"train",14300.0,"2021-11-22 18:41:29.761285","","","","","","",""
13.0,0.05274708569049835,0.0019421618206689913,"train",14320.0,"2021-11-22 18:41:32.911480","","","","","","",""
13.0,0.07232894748449326,0.0019434350061032163,"train",14340.0,"2021-11-22 18:41:36.053613","","","","","","",""
13.0,0.038561392575502396,0.0019446944473541703,"train",14360.0,"2021-11-22 18:41:39.190099","","","","","","",""
13.0,0.03962445259094238,0.0019459401252616573,"train",14380.0,"2021-11-22 18:41:42.325728","","","","","","",""
13.0,0.04761536046862602,0.001947172020874868,"train",14400.0,"2021-11-22 18:41:46.115209","","","","","","",""
13.0,0.05417821183800697,0.0019483901154526647,"train",14420.0,"2021-11-22 18:41:49.306438","","","","","","",""
13.0,0.043877143412828445,0.0019495943904638694,"train",14440.0,"2021-11-22 18:41:52.600235","","","","","","",""
13.0,0.04176878184080124,0.0019507848275875444,"train",14460.0,"2021-11-22 18:41:55.839746","","","","","","",""
13.0,0.043623123317956924,0.0019519614087132712,"train",14480.0,"2021-11-22 18:41:58.934691","","","","","","",""
13.0,0.04074956104159355,0.0019531241159414263,"train",14500.0,"2021-11-22 18:42:02.012765","","","","","","",""
13.0,0.05466780439019203,0.001954272931583453,"train",14520.0,"2021-11-22 18:42:05.723245","","","","","","",""
13.0,0.06546583771705627,0.0019554078381621306,"train",14540.0,"2021-11-22 18:42:08.810834","","","","","","",""
13.0,0.04765801131725311,0.0019565288184118417,"train",14560.0,"2021-11-22 18:42:11.872658","","","","","","",""
13.0,0.05663970857858658,0.0019576358552788314,"train",14580.0,"2021-11-22 18:42:14.960595","","","","","","",""
13.0,0.06830912083387375,0.0019587289319214713,"train",14600.0,"2021-11-22 18:42:18.033119","","","","","","",""
13.0,0.035420991480350494,0.0019598080317105113,"train",14620.0,"2021-11-22 18:42:21.105115","","","","","","",""
13.0,0.06662337481975555,0.001960873138229337,"train",14640.0,"2021-11-22 18:42:24.787079","","","","","","",""
13.0,0.05330628901720047,0.0019619242352742153,"train",14660.0,"2021-11-22 18:42:27.872872","","","","","","",""
13.0,0.05293964594602585,0.001962961306854543,"train",14680.0,"2021-11-22 18:42:30.934495","","","","","","",""
13.0,0.051609691232442856,0.0019639843371930905,"train",14700.0,"2021-11-22 18:42:34.044783","","","","","","",""
13.0,0.037744250148534775,0.001964993310726241,"train",14720.0,"2021-11-22 18:42:37.168705","","","","","","",""
13.0,0.04129347577691078,0.0019659882121042262,"train",14740.0,"2021-11-22 18:42:40.283693","","","","","","",""
13.0,0.051899105310440063,0.001966969026191363,"train",14760.0,"2021-11-22 18:42:44.054659","","","","","","",""
13.0,0.03775207698345184,0.0019679357380662805,"train",14780.0,"2021-11-22 18:42:47.197427","","","","","","",""
13.0,0.04340597614645958,0.001968888333022148,"train",14800.0,"2021-11-22 18:42:50.328566","","","","","","",""
13.0,0.06078911945223808,0.0019698267965669,"train",14820.0,"2021-11-22 18:42:53.509834","","","","","","",""
13.0,0.06223202124238014,0.0019707511144234557,"train",14840.0,"2021-11-22 18:42:56.650178","","","","","","",""
13.0,0.050414975732564926,0.001971661272529935,"train",14860.0,"2021-11-22 18:42:59.856192","","","","","","",""
13.0,0.06415830552577972,0.001972557257039875,"train",14880.0,"2021-11-22 18:43:03.522083","","","","","","",""
13.0,0.05902329087257385,0.0019734390543224385,"train",14900.0,"2021-11-22 18:43:06.564523","","","","","","",""
13.0,0.06145085021853447,0.001974306650962622,"train",14920.0,"2021-11-22 18:43:09.646356","","","","","","",""
13.0,0.04635623097419739,0.0019751600337614608,"train",14940.0,"2021-11-22 18:43:12.801625","","","","","","",""
13.0,0.037012457847595215,0.0019759991897362284,"train",14960.0,"2021-11-22 18:43:15.934523","","","","","","",""
13.0,0.038252975791692734,0.0019768241061206343,"train",14980.0,"2021-11-22 18:43:19.038282","","","","","","",""
13.0,0.0671849325299263,0.0019776347703650186,"train",15000.0,"2021-11-22 18:43:22.811996","","","","","","",""
13.0,0.057398680597543716,0.001978431170136543,"train",15020.0,"2021-11-22 18:43:25.907112","","","","","","",""
13.0,"","","train",15036.0,"2021-11-22 18:44:59.921079",0.6576875500254675,0.7345327904133243,0.9786980319306308,0.7210576646518846,0.6193942913651758,0.638154406469664,0.4373254309418473
13.0,"","","val",15036.0,"2021-11-22 18:45:24.400319",0.5931810274846341,0.6058184024662658,0.9549775587341002,0.6416035816486534,0.5388947345179778,0.5513254608392812,0.3523272381006708
14.0,0.041439030319452286,0.0019792132933193784,"train",15040.0,"2021-11-22 18:45:27.846227","","","","","","",""
14.0,0.04065695032477379,0.001979981128014888,"train",15060.0,"2021-11-22 18:45:31.153789","","","","","","",""
14.0,0.060035742819309235,0.001980734662541811,"train",15080.0,"2021-11-22 18:45:34.417440","","","","","","",""
14.0,0.041227471083402634,0.0019814738854364374,"train",15100.0,"2021-11-22 18:45:37.604995","","","","","","",""
14.0,0.06255029141902924,0.0019821987854527832,"train",15120.0,"2021-11-22 18:45:41.456134","","","","","","",""
14.0,0.059189118444919586,0.0019829093515627634,"train",15140.0,"2021-11-22 18:45:44.577176","","","","","","",""
14.0,0.0460750013589859,0.001983605572956358,"train",15160.0,"2021-11-22 18:45:47.714290","","","","","","",""
14.0,0.06871064752340317,0.001984287439041775,"train",15180.0,"2021-11-22 18:45:50.921910","","","","","","",""
14.0,0.04381144046783447,0.001984954939445616,"train",15200.0,"2021-11-22 18:45:54.157214","","","","","","",""
14.0,0.03212160989642143,0.0019856080640130295,"train",15220.0,"2021-11-22 18:45:57.387244","","","","","","",""
14.0,0.05940283462405205,0.0019862468028078676,"train",15240.0,"2021-11-22 18:46:00.537044","","","","","","",""
14.0,0.04719099774956703,0.001986871146112837,"train",15260.0,"2021-11-22 18:46:04.339093","","","","","","",""
14.0,0.039820704609155655,0.0019874810844296466,"train",15280.0,"2021-11-22 18:46:07.448978","","","","","","",""
14.0,0.05658504366874695,0.0019880766084791517,"train",15300.0,"2021-11-22 18:46:10.584153","","","","","","",""
14.0,0.06853965669870377,0.0019886577092014953,"train",15320.0,"2021-11-22 18:46:13.740272","","","","","","",""
14.0,0.034553833305835724,0.001989224377756247,"train",15340.0,"2021-11-22 18:46:16.938922","","","","","","",""
14.0,0.03935655578970909,0.0019897766055225353,"train",15360.0,"2021-11-22 18:46:20.133512","","","","","","",""
14.0,0.0768323466181755,0.0019903143840991813,"train",15380.0,"2021-11-22 18:46:23.216927","","","","","","",""
14.0,0.03676876425743103,0.0019908377053048246,"train",15400.0,"2021-11-22 18:46:26.842674","","","","","","",""
14.0,0.05826929956674576,0.001991346561178048,"train",15420.0,"2021-11-22 18:46:29.888207","","","","","","",""
14.0,0.08744091540575027,0.0019918409439775003,"train",15440.0,"2021-11-22 18:46:32.925482","","","","","","",""
14.0,0.03556375578045845,0.0019923208461820117,"train",15460.0,"2021-11-22 18:46:36.018505","","","","","","",""
14.0,0.05680778995156288,0.001992786260490709,"train",15480.0,"2021-11-22 18:46:39.137856","","","","","","",""
14.0,0.051422204822301865,0.0019932371798231287,"train",15500.0,"2021-11-22 18:46:42.285265","","","","","","",""
14.0,0.03129766508936882,0.0019936735973193212,"train",15520.0,"2021-11-22 18:46:45.561706","","","","","","",""
14.0,0.04169323667883873,0.001994095506339958,"train",15540.0,"2021-11-22 18:46:49.336162","","","","","","",""
14.0,0.0414874367415905,0.001994502900466431,"train",15560.0,"2021-11-22 18:46:52.400887","","","","","","",""
14.0,0.04347460716962814,0.0019948957735009517,"train",15580.0,"2021-11-22 18:46:55.572747","","","","","","",""
14.0,0.03748399391770363,0.0019952741194666436,"train",15600.0,"2021-11-22 18:46:58.817542","","","","","","",""
14.0,0.03371186554431915,0.0019956379326076354,"train",15620.0,"2021-11-22 18:47:02.034486","","","","","","",""
14.0,0.06442111730575562,0.001995987207389146,"train",15640.0,"2021-11-22 18:47:05.183221","","","","","","",""
14.0,0.050307925790548325,0.0019963219384975706,"train",15660.0,"2021-11-22 18:47:08.312010","","","","","","",""
14.0,0.04158702492713928,0.001996642120840561,"train",15680.0,"2021-11-22 18:47:12.080061","","","","","","",""
14.0,0.03953619673848152,0.001996947749547103,"train",15700.0,"2021-11-22 18:47:15.187060","","","","","","",""
14.0,0.03867408260703087,0.0019972388199675905,"train",15720.0,"2021-11-22 18:47:18.315820","","","","","","",""
14.0,0.04498967528343201,0.001997515327673896,"train",15740.0,"2021-11-22 18:47:21.456680","","","","","","",""
14.0,0.032837048172950745,0.0019977772684594388,"train",15760.0,"2021-11-22 18:47:24.612654","","","","","","",""
14.0,0.04930872842669487,0.0019980246383392475,"train",15780.0,"2021-11-22 18:47:27.769619","","","","","","",""
14.0,0.06590597331523895,0.0019982574335500225,"train",15800.0,"2021-11-22 18:47:30.906250","","","","","","",""
14.0,0.046519603580236435,0.001998475650550192,"train",15820.0,"2021-11-22 18:47:34.655486","","","","","","",""
14.0,0.05955539643764496,0.0019986792860199657,"train",15840.0,"2021-11-22 18:47:37.803282","","","","","","",""
14.0,0.033041901886463165,0.001998868336861386,"train",15860.0,"2021-11-22 18:47:41.017504","","","","","","",""
14.0,0.07433237880468369,0.001999042800198376,"train",15880.0,"2021-11-22 18:47:44.172090","","","","","","",""
14.0,0.031522251665592194,0.00199920267337678,"train",15900.0,"2021-11-22 18:47:47.330767","","","","","","",""
14.0,0.02827892266213894,0.0019993479539644077,"train",15920.0,"2021-11-22 18:47:50.469893","","","","","","",""
14.0,0.05128273740410805,0.0019994786397510697,"train",15940.0,"2021-11-22 18:47:53.589016","","","","","","",""
14.0,0.0647556334733963,0.0019995947287486096,"train",15960.0,"2021-11-22 18:47:57.334421","","","","","","",""
14.0,0.04002225026488304,0.0019996962191909367,"train",15980.0,"2021-11-22 18:48:00.449472","","","","","","",""
14.0,0.07527411729097366,0.0019997831095340513,"train",16000.0,"2021-11-22 18:48:03.519002","","","","","","",""
14.0,0.04460478946566582,0.001999855398456069,"train",16020.0,"2021-11-22 18:48:06.596079","","","","","","",""
14.0,0.0716785192489624,0.00199991308485724,"train",16040.0,"2021-11-22 18:48:09.696219","","","","","","",""
14.0,0.04775933176279068,0.001999956167859967,"train",16060.0,"2021-11-22 18:48:12.828449","","","","","","",""
14.0,0.032318588346242905,0.0019999846468088172,"train",16080.0,"2021-11-22 18:48:16.674860","","","","","","",""
14.0,0.04258721321821213,0.0019999985212705335,"train",16100.0,"2021-11-22 18:48:19.822880","","","","","","",""
14.0,"","","train",16110.0,"2021-11-22 18:49:57.606383",0.6738557811249364,0.7598592219890813,0.9813913504608149,0.7514470685277808,0.6703176416615757,0.6912871695961464,0.4767460707976702
14.0,"","","val",16110.0,"2021-11-22 18:50:22.348222",0.598399628899455,0.6175487468060725,0.9565357589508198,0.6617569202017816,0.5677191051996311,0.5801792064502976,0.3731045039182951
15.0,0.05478600412607193,0.0019999995774202316,"train",16120.0,"2021-11-22 18:50:26.917945","","","","","","",""
15.0,0.0683458000421524,0.0019999966438102564,"train",16140.0,"2021-11-22 18:50:30.186296","","","","","","",""
15.0,0.08430986851453781,0.0019999909162942875,"train",16160.0,"2021-11-22 18:50:33.427604","","","","","","",""
15.0,0.05904356390237808,0.001999982394888327,"train",16180.0,"2021-11-22 18:50:36.608535","","","","","","",""
15.0,0.029333047568798065,0.0019999710796161823,"train",16200.0,"2021-11-22 18:50:39.775527","","","","","","",""
15.0,0.03669349476695061,0.0019999569705094686,"train",16220.0,"2021-11-22 18:50:42.914333","","","","","","",""
15.0,0.04477279633283615,0.001999940067607605,"train",16240.0,"2021-11-22 18:50:46.068628","","","","","","",""
15.0,0.06444805860519409,0.001999920370957817,"train",16260.0,"2021-11-22 18:50:49.929321","","","","","","",""
15.0,0.04188443347811699,0.0019998978806151355,"train",16280.0,"2021-11-22 18:50:53.094384","","","","","","",""
15.0,0.04338656738400459,0.0019998725966423976,"train",16300.0,"2021-11-22 18:50:56.240599","","","","","","",""
15.0,0.026898832991719246,0.001999844519110244,"train",16320.0,"2021-11-22 18:50:59.374429","","","","","","",""
15.0,0.0605817474424839,0.001999813648097122,"train",16340.0,"2021-11-22 18:51:02.531444","","","","","","",""
15.0,0.07260562479496002,0.001999779983689282,"train",16360.0,"2021-11-22 18:51:05.694688","","","","","","",""
15.0,0.05058269575238228,0.0019997435259807806,"train",16380.0,"2021-11-22 18:51:08.851659","","","","","","",""
15.0,0.06247803941369057,0.001999704275073478,"train",16400.0,"2021-11-22 18:51:12.111811","","","","","","",""
15.0,0.028685562312602997,0.0019996622310770383,"train",16420.0,"2021-11-22 18:51:15.846087","","","","","","",""
15.0,0.06918341666460037,0.0019996173941089286,"train",16440.0,"2021-11-22 18:51:19.012265","","","","","","",""
15.0,0.03464778885245323,0.0019995697642944212,"train",16460.0,"2021-11-22 18:51:22.170777","","","","","","",""
15.0,0.04481528699398041,0.0019995193417665894,"train",16480.0,"2021-11-22 18:51:25.318086","","","","","","",""
15.0,0.03863588720560074,0.0019994661266663108,"train",16500.0,"2021-11-22 18:51:28.501153","","","","","","",""
15.0,0.04029098525643349,0.001999410119142264,"train",16520.0,"2021-11-22 18:51:31.676283","","","","","","",""
15.0,0.03892628476023674,0.0019993513193509297,"train",16540.0,"2021-11-22 18:51:34.840532","","","","","","",""
15.0,0.055902715772390366,0.0019992897274565906,"train",16560.0,"2021-11-22 18:51:38.035057","","","","","","",""
15.0,0.0342913419008255,0.0019992253436313303,"train",16580.0,"2021-11-22 18:51:41.229541","","","","","","",""
15.0,0.0756337121129036,0.0019991581680550313,"train",16600.0,"2021-11-22 18:51:44.928331","","","","","","",""
15.0,0.05735483765602112,0.0019990882009153785,"train",16620.0,"2021-11-22 18:51:48.026598","","","","","","",""
15.0,0.06278158724308014,0.001999015442407854,"train",16640.0,"2021-11-22 18:51:51.156987","","","","","","",""
15.0,0.05506875738501549,0.0019989398927357403,"train",16660.0,"2021-11-22 18:51:54.223191","","","","","","",""
15.0,0.07475386559963226,0.0019988615521101174,"train",16680.0,"2021-11-22 18:51:57.288573","","","","","","",""
15.0,0.04249122366309166,0.0019987804207498637,"train",16700.0,"2021-11-22 18:52:00.351638","","","","","","",""
15.0,0.056190360337495804,0.0019986964988816533,"train",16720.0,"2021-11-22 18:52:03.498184","","","","","","",""
15.0,0.042356062680482864,0.0019986097867399585,"train",16740.0,"2021-11-22 18:52:06.642089","","","","","","",""
15.0,0.039769887924194336,0.0019985202845670463,"train",16760.0,"2021-11-22 18:52:10.492376","","","","","","",""
15.0,0.06453796476125717,0.0019984279926129798,"train",16780.0,"2021-11-22 18:52:13.692236","","","","","","",""
15.0,0.05573725327849388,0.001998332911135615,"train",16800.0,"2021-11-22 18:52:16.863497","","","","","","",""
15.0,0.03836067393422127,0.0019982350404006036,"train",16820.0,"2021-11-22 18:52:19.968628","","","","","","",""
15.0,0.03950420767068863,0.0019981343806813883,"train",16840.0,"2021-11-22 18:52:23.092833","","","","","","",""
15.0,0.046058669686317444,0.001998030932259205,"train",16860.0,"2021-11-22 18:52:26.211847","","","","","","",""
15.0,0.046629227697849274,0.0019979246954230823,"train",16880.0,"2021-11-22 18:52:29.319817","","","","","","",""
15.0,0.07348088175058365,0.0019978156704698363,"train",16900.0,"2021-11-22 18:52:32.460608","","","","","","",""
15.0,0.051659613847732544,0.001997703857704076,"train",16920.0,"2021-11-22 18:52:35.655730","","","","","","",""
15.0,0.08125608414411545,0.0019975892574381976,"train",16940.0,"2021-11-22 18:52:39.427080","","","","","","",""
15.0,0.03081117756664753,0.001997471869992386,"train",16960.0,"2021-11-22 18:52:42.628877","","","","","","",""
15.0,0.05025823414325714,0.0019973516956946127,"train",16980.0,"2021-11-22 18:52:45.770906","","","","","","",""
15.0,0.0746242105960846,0.0019972287348806366,"train",17000.0,"2021-11-22 18:52:48.839247","","","","","","",""
15.0,0.06621028482913971,0.0019971029878940003,"train",17020.0,"2021-11-22 18:52:51.913053","","","","","","",""
15.0,0.05106547847390175,0.0019969744550860317,"train",17040.0,"2021-11-22 18:52:55.043615","","","","","","",""
15.0,0.05882623791694641,0.0019968431368158433,"train",17060.0,"2021-11-22 18:52:58.171823","","","","","","",""
15.0,0.08678412437438965,0.001996709033450327,"train",17080.0,"2021-11-22 18:53:01.244420","","","","","","",""
15.0,0.08749829977750778,0.0019965721453641585,"train",17100.0,"2021-11-22 18:53:05.079811","","","","","","",""
15.0,0.046914149075746536,0.0019964324729397935,"train",17120.0,"2021-11-22 18:53:08.216249","","","","","","",""
15.0,0.07064890116453171,0.0019962900165674657,"train",17140.0,"2021-11-22 18:53:11.378864","","","","","","",""
15.0,0.044739991426467896,0.0019961447766451887,"train",17160.0,"2021-11-22 18:53:14.527263","","","","","","",""
15.0,0.03109324537217617,0.001995996753578751,"train",17180.0,"2021-11-22 18:53:17.647754","","","","","","",""
15.0,"","","train",17184.0,"2021-11-22 18:54:50.262247",0.6710470785126974,0.76833622278827,0.982678680416125,0.7123319764647741,0.6226974435163031,0.6544898118836967,0.44788836384835623
15.0,"","","val",17184.0,"2021-11-22 18:55:14.930977",0.5986895512002783,0.6189922613158495,0.9551282559008073,0.6205584524171858,0.5239527634749599,0.5481338718176196,0.34513212911216284
16.0,0.03060993365943432,0.001995845947781719,"train",17200.0,"2021-11-22 18:55:20.533066","","","","","","",""
16.0,0.024585120379924774,0.001995692359675433,"train",17220.0,"2021-11-22 18:55:23.899507","","","","","","",""
16.0,0.027040841057896614,0.0019955359896890066,"train",17240.0,"2021-11-22 18:55:27.199439","","","","","","",""
16.0,0.05370921269059181,0.0019953768382593258,"train",17260.0,"2021-11-22 18:55:30.372066","","","","","","",""
16.0,0.04903695359826088,0.0019952149058310486,"train",17280.0,"2021-11-22 18:55:33.503516","","","","","","",""
16.0,0.04574611783027649,0.001995050192856602,"train",17300.0,"2021-11-22 18:55:37.343905","","","","","","",""
16.0,0.04235271364450455,0.001994882699796182,"train",17320.0,"2021-11-22 18:55:40.474262","","","","","","",""
16.0,0.02626609057188034,0.001994712427117752,"train",17340.0,"2021-11-22 18:55:43.618567","","","","","","",""
16.0,0.05949168652296066,0.0019945393752970413,"train",17360.0,"2021-11-22 18:55:46.746155","","","","","","",""
16.0,0.08090052753686905,0.001994363544817544,"train",17380.0,"2021-11-22 18:55:49.820674","","","","","","",""
16.0,0.060279481112957,0.001994184936170517,"train",17400.0,"2021-11-22 18:55:52.910537","","","","","","",""
16.0,0.04506988450884819,0.0019940035498549804,"train",17420.0,"2021-11-22 18:55:56.045082","","","","","","",""
16.0,0.04072380065917969,0.0019938193863777145,"train",17440.0,"2021-11-22 18:55:59.191059","","","","","","",""
16.0,0.043472062796354294,0.001993632446253258,"train",17460.0,"2021-11-22 18:56:02.387879","","","","","","",""
16.0,0.0424167700111866,0.0019934427300039074,"train",17480.0,"2021-11-22 18:56:05.517918","","","","","","",""
16.0,0.05615023523569107,0.001993250238159717,"train",17500.0,"2021-11-22 18:56:08.719292","","","","","","",""
16.0,0.032117441296577454,0.0019930549712584944,"train",17520.0,"2021-11-22 18:56:11.903181","","","","","","",""
16.0,0.051548127084970474,0.001992856929845801,"train",17540.0,"2021-11-22 18:56:15.684758","","","","","","",""
16.0,0.05144311860203743,0.0019926561144749497,"train",17560.0,"2021-11-22 18:56:18.780395","","","","","","",""
16.0,0.054054610431194305,0.001992452525707004,"train",17580.0,"2021-11-22 18:56:21.868470","","","","","","",""
16.0,0.09056317061185837,0.0019922461641107767,"train",17600.0,"2021-11-22 18:56:24.954106","","","","","","",""
16.0,0.041913922876119614,0.001992037030262826,"train",17620.0,"2021-11-22 18:56:28.061141","","","","","","",""
16.0,0.04387142136693001,0.0019918251247474567,"train",17640.0,"2021-11-22 18:56:31.167983","","","","","","",""
16.0,0.039509523659944534,0.001991610448156718,"train",17660.0,"2021-11-22 18:56:34.296679","","","","","","",""
16.0,0.05292890965938568,0.0019913930010903996,"train",17680.0,"2021-11-22 18:56:37.556371","","","","","","",""
16.0,0.048575010150671005,0.001991172784156033,"train",17700.0,"2021-11-22 18:56:40.750656","","","","","","",""
16.0,0.03379862755537033,0.0019909497979688877,"train",17720.0,"2021-11-22 18:56:43.904740","","","","","","",""
16.0,0.07208283245563507,0.0019907240431519713,"train",17740.0,"2021-11-22 18:56:46.971298","","","","","","",""
16.0,0.056603800505399704,0.001990495520336026,"train",17760.0,"2021-11-22 18:56:50.643237","","","","","","",""
16.0,0.05095790699124336,0.0019902642301595284,"train",17780.0,"2021-11-22 18:56:53.800093","","","","","","",""
16.0,0.03989623859524727,0.001990030173268685,"train",17800.0,"2021-11-22 18:56:56.961983","","","","","","",""
16.0,0.04076230525970459,0.0019897933503174345,"train",17820.0,"2021-11-22 18:57:00.100823","","","","","","",""
16.0,0.04695603996515274,0.0019895537619674425,"train",17840.0,"2021-11-22 18:57:03.219131","","","","","","",""
16.0,0.058916930109262466,0.001989311408888101,"train",17860.0,"2021-11-22 18:57:06.331647","","","","","","",""
16.0,0.03746028244495392,0.001989066291756527,"train",17880.0,"2021-11-22 18:57:09.477943","","","","","","",""
16.0,0.03255544975399971,0.00198881841125756,"train",17900.0,"2021-11-22 18:57:12.581321","","","","","","",""
16.0,0.06818965822458267,0.0019885677680837595,"train",17920.0,"2021-11-22 18:57:15.673652","","","","","","",""
16.0,0.07147474586963654,0.001988314362935404,"train",17940.0,"2021-11-22 18:57:18.786084","","","","","","",""
16.0,0.034865446388721466,0.0019880581965204896,"train",17960.0,"2021-11-22 18:57:21.907987","","","","","","",""
16.0,0.03352755308151245,0.0019877992695547255,"train",17980.0,"2021-11-22 18:57:25.680099","","","","","","",""
16.0,0.03012128546833992,0.0019875375827615354,"train",18000.0,"2021-11-22 18:57:28.871908","","","","","","",""
16.0,0.05174854025244713,0.0019872731368720527,"train",18020.0,"2021-11-22 18:57:32.085117","","","","","","",""
16.0,0.052742648869752884,0.00198700593262512,"train",18040.0,"2021-11-22 18:57:35.292805","","","","","","",""
16.0,0.07116123288869858,0.001986735970767286,"train",18060.0,"2021-11-22 18:57:38.492132","","","","","","",""
16.0,0.03152494877576828,0.001986463252052804,"train",18080.0,"2021-11-22 18:57:41.648971","","","","","","",""
16.0,0.031796351075172424,0.0019861877772436305,"train",18100.0,"2021-11-22 18:57:44.784059","","","","","","",""
16.0,0.037682950496673584,0.001985909547109422,"train",18120.0,"2021-11-22 18:57:47.955305","","","","","","",""
16.0,0.03863738849759102,0.001985628562427533,"train",18140.0,"2021-11-22 18:57:51.127580","","","","","","",""
16.0,0.03447900339961052,0.001985344823983014,"train",18160.0,"2021-11-22 18:57:54.295343","","","","","","",""
16.0,0.046901021152734756,0.001985058332568609,"train",18180.0,"2021-11-22 18:57:57.439788","","","","","","",""
16.0,0.04830804094672203,0.001984769088984755,"train",18200.0,"2021-11-22 18:58:00.577702","","","","","","",""
16.0,0.04283136874437332,0.001984477094039576,"train",18220.0,"2021-11-22 18:58:04.456656","","","","","","",""
16.0,0.058652136474847794,0.001984182348548885,"train",18240.0,"2021-11-22 18:58:07.607168","","","","","","",""
16.0,"","","train",18258.0,"2021-11-22 18:59:46.095378",0.6977370297606054,0.7994119495784956,0.9866343389864831,0.7638902401770371,0.6850716754774372,0.7205957328455266,0.5024353381921987
16.0,"","","val",18258.0,"2021-11-22 19:00:12.353260",0.6106923344543662,0.6354218055928142,0.9610953450470933,0.6567030334077066,0.5630678034235281,0.5909601086345273,0.37469455164903853
17.0,0.04605776071548462,0.00198388485333618,"train",18260.0,"2021-11-22 19:00:15.502208","","","","","","",""
17.0,0.029796624556183815,0.0019835846092326396,"train",18280.0,"2021-11-22 19:00:18.911471","","","","","","",""
17.0,0.03228216618299484,0.0019832816170771246,"train",18300.0,"2021-11-22 19:00:22.093162","","","","","","",""
17.0,0.03500388190150261,0.001982975877716172,"train",18320.0,"2021-11-22 19:00:25.184833","","","","","","",""
17.0,0.02188405767083168,0.0019826673920039957,"train",18340.0,"2021-11-22 19:00:28.269629","","","","","","",""
17.0,0.05804499611258507,0.0019823561608024822,"train",18360.0,"2021-11-22 19:00:32.078791","","","","","","",""
17.0,0.02683498151600361,0.0019820421849811886,"train",18380.0,"2021-11-22 19:00:35.255071","","","","","","",""
17.0,0.051988907158374786,0.0019817254654173402,"train",18400.0,"2021-11-22 19:00:38.431102","","","","","","",""
17.0,0.032662469893693924,0.0019814060029958278,"train",18420.0,"2021-11-22 19:00:41.532045","","","","","","",""
17.0,0.04822418838739395,0.001981083798609206,"train",18440.0,"2021-11-22 19:00:44.590092","","","","","","",""
17.0,0.03260182589292526,0.0019807588531576908,"train",18460.0,"2021-11-22 19:00:47.674183","","","","","","",""
17.0,0.028707807883620262,0.0019804311675491555,"train",18480.0,"2021-11-22 19:00:51.413137","","","","","","",""
17.0,0.03784715756773949,0.00198010074269913,"train",18500.0,"2021-11-22 19:00:54.600660","","","","","","",""
17.0,0.04203534871339798,0.0019797675795307965,"train",18520.0,"2021-11-22 19:00:57.778358","","","","","","",""
17.0,0.026407642289996147,0.0019794316789749885,"train",18540.0,"2021-11-22 19:01:00.955278","","","","","","",""
17.0,0.05696994438767433,0.0019790930419701877,"train",18560.0,"2021-11-22 19:01:04.107693","","","","","","",""
17.0,0.03825455531477928,0.0019787516694625214,"train",18580.0,"2021-11-22 19:01:07.234674","","","","","","",""
17.0,0.04578758403658867,0.0019784075624057584,"train",18600.0,"2021-11-22 19:01:11.011592","","","","","","",""
17.0,0.047668375074863434,0.0019780607217613094,"train",18620.0,"2021-11-22 19:01:14.291948","","","","","","",""
17.0,0.06423556804656982,0.001977711148498221,"train",18640.0,"2021-11-22 19:01:17.471000","","","","","","",""
17.0,0.04722323641180992,0.0019773588435931756,"train",18660.0,"2021-11-22 19:01:20.605985","","","","","","",""
17.0,0.03943881392478943,0.0019770038080304873,"train",18680.0,"2021-11-22 19:01:23.757119","","","","","","",""
17.0,0.0573737658560276,0.001976646042802099,"train",18700.0,"2021-11-22 19:01:27.524348","","","","","","",""
17.0,0.054513175040483475,0.0019762855489075808,"train",18720.0,"2021-11-22 19:01:30.656670","","","","","","",""
17.0,0.07687736302614212,0.001975922327354126,"train",18740.0,"2021-11-22 19:01:33.920181","","","","","","",""
17.0,0.04847460612654686,0.001975556379156549,"train",18760.0,"2021-11-22 19:01:37.182254","","","","","","",""
17.0,0.03143683075904846,0.0019751877053372823,"train",18780.0,"2021-11-22 19:01:40.361779","","","","","","",""
17.0,0.03624504432082176,0.001974816306926373,"train",18800.0,"2021-11-22 19:01:43.485649","","","","","","",""
17.0,0.03507784754037857,0.001974442184961482,"train",18820.0,"2021-11-22 19:01:47.280517","","","","","","",""
17.0,0.04055590555071831,0.0019740653404878776,"train",18840.0,"2021-11-22 19:01:50.408454","","","","","","",""
17.0,0.07070185244083405,0.0019736857745584362,"train",18860.0,"2021-11-22 19:01:53.534829","","","","","","",""
17.0,0.042944252490997314,0.0019733034882336367,"train",18880.0,"2021-11-22 19:01:56.677682","","","","","","",""
17.0,0.026528678834438324,0.0019729184825815586,"train",18900.0,"2021-11-22 19:01:59.812900","","","","","","",""
17.0,0.0347977876663208,0.0019725307586778806,"train",18920.0,"2021-11-22 19:02:02.920168","","","","","","",""
17.0,0.0677003264427185,0.001972140317605874,"train",18940.0,"2021-11-22 19:02:06.478322","","","","","","",""
17.0,0.04672592133283615,0.0019717471604564028,"train",18960.0,"2021-11-22 19:02:09.575317","","","","","","",""
17.0,0.03933515027165413,0.0019713512883279185,"train",18980.0,"2021-11-22 19:02:12.693829","","","","","","",""
17.0,0.040022388100624084,0.00197095270232646,"train",19000.0,"2021-11-22 19:02:15.817951","","","","","","",""
17.0,0.045784592628479004,0.001970551403565646,"train",19020.0,"2021-11-22 19:02:18.918154","","","","","","",""
17.0,0.03216465562582016,0.0019701473931666765,"train",19040.0,"2021-11-22 19:02:22.032228","","","","","","",""
17.0,0.0641646757721901,0.001969740672258327,"train",19060.0,"2021-11-22 19:02:25.808859","","","","","","",""
17.0,0.05771012231707573,0.0019693312419769454,"train",19080.0,"2021-11-22 19:02:28.998130","","","","","","",""
17.0,0.03885756805539131,0.0019689191034664498,"train",19100.0,"2021-11-22 19:02:32.206737","","","","","","",""
17.0,0.06801382452249527,0.0019685042578783257,"train",19120.0,"2021-11-22 19:02:35.419360","","","","","","",""
17.0,0.061419516801834106,0.00196808670637162,"train",19140.0,"2021-11-22 19:02:38.630139","","","","","","",""
17.0,0.05041573941707611,0.001967666450112942,"train",19160.0,"2021-11-22 19:02:41.840894","","","","","","",""
17.0,0.05098552256822586,0.001967243490276456,"train",19180.0,"2021-11-22 19:02:45.700329","","","","","","",""
17.0,0.07325717806816101,0.0019668178280438818,"train",19200.0,"2021-11-22 19:02:48.874508","","","","","","",""
17.0,0.040357913821935654,0.0019663894646044875,"train",19220.0,"2021-11-22 19:02:52.054128","","","","","","",""
17.0,0.04679318889975548,0.001965958401155089,"train",19240.0,"2021-11-22 19:02:55.224461","","","","","","",""
17.0,0.04043734073638916,0.0019655246389000463,"train",19260.0,"2021-11-22 19:02:58.398988","","","","","","",""
17.0,0.03643746301531792,0.0019650881790512597,"train",19280.0,"2021-11-22 19:03:01.573044","","","","","","",""
17.0,0.04721583053469658,0.001964649022828165,"train",19300.0,"2021-11-22 19:03:05.422979","","","","","","",""
17.0,0.050117358565330505,0.0019642071714577325,"train",19320.0,"2021-11-22 19:03:08.684131","","","","","","",""
17.0,"","","train",19332.0,"2021-11-22 19:04:43.570761",0.7059739503747362,0.8173931581024105,0.9880877969914278,0.7570727606507285,0.6940621199159782,0.7237276987076068,0.5127817100725545
17.0,"","","val",19332.0,"2021-11-22 19:05:08.759004",0.6059376087208628,0.6289078495975163,0.9598349277829126,0.6392106891047382,0.5581251977997727,0.5809020052890691,0.3694583674697902
18.0,0.03785128518939018,0.0019637626261744634,"train",19340.0,"2021-11-22 19:05:13.015163","","","","","","",""
18.0,0.026871297508478165,0.001963315388220384,"train",19360.0,"2021-11-22 19:05:16.366602","","","","","","",""
18.0,0.034236546605825424,0.0019628654588450443,"train",19380.0,"2021-11-22 19:05:19.656609","","","","","","",""
18.0,0.05474184826016426,0.001962412839305514,"train",19400.0,"2021-11-22 19:05:22.929496","","","","","","",""
18.0,0.08163672685623169,0.0019619575308663785,"train",19420.0,"2021-11-22 19:05:26.917951","","","","","","",""
18.0,0.025330794975161552,0.001961499534799737,"train",19440.0,"2021-11-22 19:05:30.166118","","","","","","",""
18.0,0.05968790873885155,0.001961038852385196,"train",19460.0,"2021-11-22 19:05:33.373154","","","","","","",""
18.0,0.0731445774435997,0.0019605754849098683,"train",19480.0,"2021-11-22 19:05:36.551465","","","","","","",""
18.0,0.02640054002404213,0.0019601094336683693,"train",19500.0,"2021-11-22 19:05:39.767101","","","","","","",""
18.0,0.04953443631529808,0.0019596406999628116,"train",19520.0,"2021-11-22 19:05:42.976550","","","","","","",""
18.0,0.05487285554409027,0.0019591692851028022,"train",19540.0,"2021-11-22 19:05:46.146405","","","","","","",""
18.0,0.03156507760286331,0.001958695190405441,"train",19560.0,"2021-11-22 19:05:49.868792","","","","","","",""
18.0,0.02395518496632576,0.001958218417195312,"train",19580.0,"2021-11-22 19:05:52.993705","","","","","","",""
18.0,0.06040230020880699,0.001957738966804486,"train",19600.0,"2021-11-22 19:05:56.152989","","","","","","",""
18.0,0.046059221029281616,0.001957256840572511,"train",19620.0,"2021-11-22 19:05:59.400626","","","","","","",""
18.0,0.07082676142454147,0.0019567720398464133,"train",19640.0,"2021-11-22 19:06:02.670383","","","","","","",""
18.0,0.06580592691898346,0.00195628456598069,"train",19660.0,"2021-11-22 19:06:05.887621","","","","","","",""
18.0,0.03535019978880882,0.001955794420337307,"train",19680.0,"2021-11-22 19:06:09.033238","","","","","","",""
18.0,0.06724599003791809,0.0019553016042856957,"train",19700.0,"2021-11-22 19:06:12.804163","","","","","","",""
18.0,0.03832587972283363,0.001954806119202748,"train",19720.0,"2021-11-22 19:06:15.963505","","","","","","",""
18.0,0.05100632086396217,0.001954307966472812,"train",19740.0,"2021-11-22 19:06:19.079816","","","","","","",""
18.0,0.027545128017663956,0.0019538071474876914,"train",19760.0,"2021-11-22 19:06:22.187678","","","","","","",""
18.0,0.052111197263002396,0.001953303663646636,"train",19780.0,"2021-11-22 19:06:25.338218","","","","","","",""
18.0,0.028678420931100845,0.0019527975163563436,"train",19800.0,"2021-11-22 19:06:28.678955","","","","","","",""
18.0,0.056563764810562134,0.0019522887070309524,"train",19820.0,"2021-11-22 19:06:32.009167","","","","","","",""
18.0,0.054753389209508896,0.0019517772370920379,"train",19840.0,"2021-11-22 19:06:35.869993","","","","","","",""
18.0,0.05988243967294693,0.0019512631079686104,"train",19860.0,"2021-11-22 19:06:38.986846","","","","","","",""
18.0,0.05961018428206444,0.001950746321097108,"train",19880.0,"2021-11-22 19:06:42.013101","","","","","","",""
18.0,0.023426439613103867,0.0019502268779213957,"train",19900.0,"2021-11-22 19:06:45.000937","","","","","","",""
18.0,0.04228563979268074,0.0019497047798927598,"train",19920.0,"2021-11-22 19:06:48.123077","","","","","","",""
18.0,0.03508305549621582,0.001949180028469903,"train",19940.0,"2021-11-22 19:06:51.269472","","","","","","",""
18.0,0.06651992350816727,0.0019486526251189435,"train",19960.0,"2021-11-22 19:06:54.375073","","","","","","",""
18.0,0.030520601198077202,0.0019481225713134064,"train",19980.0,"2021-11-22 19:06:58.094981","","","","","","",""
18.0,0.04417399317026138,0.0019475898685342235,"train",20000.0,"2021-11-22 19:07:01.200603","","","","","","",""
18.0,0.05574128404259682,0.0019470545182697272,"train",20020.0,"2021-11-22 19:07:04.314235","","","","","","",""
18.0,0.05531861260533333,0.001946516522015647,"train",20040.0,"2021-11-22 19:07:07.433672","","","","","","",""
18.0,0.05483858287334442,0.0019459758812751047,"train",20060.0,"2021-11-22 19:07:10.537665","","","","","","",""
18.0,0.031695157289505005,0.0019454325975586106,"train",20080.0,"2021-11-22 19:07:13.647593","","","","","","",""
18.0,0.0644153356552124,0.0019448866723840602,"train",20100.0,"2021-11-22 19:07:16.787056","","","","","","",""
18.0,0.06009245291352272,0.001944338107276728,"train",20120.0,"2021-11-22 19:07:20.569991","","","","","","",""
18.0,0.04009623825550079,0.0019437869037692644,"train",20140.0,"2021-11-22 19:07:23.799915","","","","","","",""
18.0,0.03429458662867546,0.0019432330634016912,"train",20160.0,"2021-11-22 19:07:26.926164","","","","","","",""
18.0,0.04935353621840477,0.0019426765877213986,"train",20180.0,"2021-11-22 19:07:30.071514","","","","","","",""
18.0,0.07046236097812653,0.0019421174782831383,"train",20200.0,"2021-11-22 19:07:33.180866","","","","","","",""
18.0,0.045282311737537384,0.0019415557366490208,"train",20220.0,"2021-11-22 19:07:36.332459","","","","","","",""
