"epoch","loss","lr","part","step","time","accuracy","auprc","auroc","challenge_metric","f_beta_measure","f_measure","g_beta_measure"
0.0,0.39704492688179016,8.000730236035311e-05,"train",20.0,"2021-11-22 06:54:29.864307","","","","","","",""
0.0,0.1808898001909256,8.002920933031948e-05,"train",40.0,"2021-11-22 06:54:35.262327","","","","","","",""
0.0,0.13700512051582336,8.006572057662293e-05,"train",60.0,"2021-11-22 06:54:39.919101","","","","","","",""
0.0,0.1507384479045868,8.011683554380914e-05,"train",80.0,"2021-11-22 06:54:44.649902","","","","","","",""
0.0,0.12038420140743256,8.018255345425274e-05,"train",100.0,"2021-11-22 06:54:49.364683","","","","","","",""
0.0,0.12299701571464539,8.026287330817079e-05,"train",120.0,"2021-11-22 06:54:54.035515","","","","","","",""
0.0,0.14329025149345398,8.03577938836373e-05,"train",140.0,"2021-11-22 06:54:59.235830","","","","","","",""
0.0,0.11376478523015976,8.04673137366021e-05,"train",160.0,"2021-11-22 06:55:03.935642","","","","","","",""
0.0,0.12817071378231049,8.059143120091187e-05,"train",180.0,"2021-11-22 06:55:08.755396","","","","","","",""
0.0,0.1238299161195755,8.073014438833613e-05,"train",200.0,"2021-11-22 06:55:13.452873","","","","","","",""
0.0,0.1272605061531067,8.088345118859724e-05,"train",220.0,"2021-11-22 06:55:18.148241","","","","","","",""
0.0,0.12709391117095947,8.10513492693996e-05,"train",240.0,"2021-11-22 06:55:23.289314","","","","","","",""
0.0,0.12000463902950287,8.123383607646804e-05,"train",260.0,"2021-11-22 06:55:27.976292","","","","","","",""
0.0,0.1177741065621376,8.143090883358495e-05,"train",280.0,"2021-11-22 06:55:32.595277","","","","","","",""
0.0,0.1119416356086731,8.164256454263295e-05,"train",300.0,"2021-11-22 06:55:37.276767","","","","","","",""
0.0,0.11738357692956924,8.186879998364088e-05,"train",320.0,"2021-11-22 06:55:41.943916","","","","","","",""
0.0,0.108253613114357,8.210961171483213e-05,"train",340.0,"2021-11-22 06:55:47.310105","","","","","","",""
0.0,0.12957943975925446,8.236499607267717e-05,"train",360.0,"2021-11-22 06:55:51.923080","","","","","","",""
0.0,0.10634949803352356,8.26349491719505e-05,"train",380.0,"2021-11-22 06:55:56.630817","","","","","","",""
0.0,0.10274141281843185,8.291946690578713e-05,"train",400.0,"2021-11-22 06:56:01.283120","","","","","","",""
0.0,0.12525144219398499,8.321854494574774e-05,"train",420.0,"2021-11-22 06:56:06.064021","","","","","","",""
0.0,0.10486730933189392,8.353217874188293e-05,"train",440.0,"2021-11-22 06:56:11.502398","","","","","","",""
0.0,0.12972891330718994,8.38603635228035e-05,"train",460.0,"2021-11-22 06:56:16.278395","","","","","","",""
0.0,0.09945908933877945,8.420309429575212e-05,"train",480.0,"2021-11-22 06:56:21.101427","","","","","","",""
0.0,0.10942703485488892,8.456036584667914e-05,"train",500.0,"2021-11-22 06:56:25.912585","","","","","","",""
0.0,0.08820651471614838,8.493217274032315e-05,"train",520.0,"2021-11-22 06:56:30.607300","","","","","","",""
0.0,0.10539577901363373,8.531850932029235e-05,"train",540.0,"2021-11-22 06:56:35.828195","","","","","","",""
0.0,0.11731091141700745,8.571936970915212e-05,"train",560.0,"2021-11-22 06:56:40.470310","","","","","","",""
0.0,0.1028769388794899,8.613474780851246e-05,"train",580.0,"2021-11-22 06:56:45.211128","","","","","","",""
0.0,0.11153333634138107,8.656463729912224e-05,"train",600.0,"2021-11-22 06:56:49.980777","","","","","","",""
0.0,0.1034887433052063,8.700903164096468e-05,"train",620.0,"2021-11-22 06:56:54.711309","","","","","","",""
0.0,0.08856293559074402,8.746792407335769e-05,"train",640.0,"2021-11-22 06:57:00.104282","","","","","","",""
0.0,0.1114763543009758,8.794130761505497e-05,"train",660.0,"2021-11-22 06:57:04.945145","","","","","","",""
0.0,0.07843747735023499,8.842917506435462e-05,"train",680.0,"2021-11-22 06:57:09.589271","","","","","","",""
0.0,0.09622783213853836,8.893151899920645e-05,"train",700.0,"2021-11-22 06:57:14.270069","","","","","","",""
0.0,0.08057335764169693,8.944833177732632e-05,"train",720.0,"2021-11-22 06:57:19.081632","","","","","","",""
0.0,0.09192631393671036,8.997960553631186e-05,"train",740.0,"2021-11-22 06:57:24.480149","","","","","","",""
0.0,0.09565752744674683,9.052533219376224e-05,"train",760.0,"2021-11-22 06:57:29.167449","","","","","","",""
0.0,0.11018569022417068,9.108550344740104e-05,"train",780.0,"2021-11-22 06:57:33.776103","","","","","","",""
0.0,0.08232656866312027,9.166011077520208e-05,"train",800.0,"2021-11-22 06:57:38.348911","","","","","","",""
0.0,0.09664011001586914,9.224914543552059e-05,"train",820.0,"2021-11-22 06:57:42.981687","","","","","","",""
0.0,0.0832124724984169,9.285259846722417e-05,"train",840.0,"2021-11-22 06:57:48.224967","","","","","","",""
0.0,0.09942511469125748,9.34704606898307e-05,"train",860.0,"2021-11-22 06:57:53.121214","","","","","","",""
0.0,0.0910768061876297,9.410272270364735e-05,"train",880.0,"2021-11-22 06:57:58.034075","","","","","","",""
0.0,0.10447512567043304,9.474937488991348e-05,"train",900.0,"2021-11-22 06:58:02.742929","","","","","","",""
0.0,0.08182258903980255,9.541040741094719e-05,"train",920.0,"2021-11-22 06:58:07.605230","","","","","","",""
0.0,0.09719652682542801,9.608581021029522e-05,"train",940.0,"2021-11-22 06:58:13.090824","","","","","","",""
0.0,0.11440566927194595,9.677557301288509e-05,"train",960.0,"2021-11-22 06:58:17.984829","","","","","","",""
0.0,0.09487555176019669,9.747968532518238e-05,"train",980.0,"2021-11-22 06:58:22.681357","","","","","","",""
0.0,0.0936557948589325,9.819813643535029e-05,"train",1000.0,"2021-11-22 06:58:27.254751","","","","","","",""
0.0,0.08634308725595474,9.893091541341185e-05,"train",1020.0,"2021-11-22 06:58:32.015902","","","","","","",""
0.0,0.0881274864077568,9.967801111141644e-05,"train",1040.0,"2021-11-22 06:58:37.214980","","","","","","",""
0.0,0.08961433917284012,0.00010043941216361023,"train",1060.0,"2021-11-22 06:58:42.217048","","","","","","",""
0.0,"","","train",1074.0,"2021-11-22 07:00:32.956610",0.4136069271629193,0.27615047985171665,0.8242988051920825,0.3373505099949831,0.18495402251116966,0.17865143570883607,0.11576462955402096
0.0,"","","val",1074.0,"2021-11-22 07:01:02.107795",0.40913835092195294,0.2712963674946533,0.8207368880024478,0.3318036438498941,0.18209789762421608,0.17602425646761904,0.11264445156434442
1.0,0.10627304762601852,0.00010121510698660771,"train",1080.0,"2021-11-22 07:01:06.341814","","","","","","",""
1.0,0.0764765664935112,0.00010200508377956928,"train",1100.0,"2021-11-22 07:01:11.487360","","","","","","",""
1.0,0.09360513836145401,0.00010280933052437993,"train",1120.0,"2021-11-22 07:01:16.594402","","","","","","",""
1.0,0.07215368747711182,0.00010362783498583223,"train",1140.0,"2021-11-22 07:01:22.137185","","","","","","",""
1.0,0.11099960654973984,0.0001044605847118124,"train",1160.0,"2021-11-22 07:01:26.719428","","","","","","",""
1.0,0.10003209859132767,0.0001053075670334907,"train",1180.0,"2021-11-22 07:01:31.331474","","","","","","",""
1.0,0.10407350957393646,0.00010616876906551181,"train",1200.0,"2021-11-22 07:01:36.016762","","","","","","",""
1.0,0.07746246457099915,0.0001070441777061941,"train",1220.0,"2021-11-22 07:01:40.795816","","","","","","",""
1.0,0.08268238604068756,0.00010793377963772563,"train",1240.0,"2021-11-22 07:01:46.368366","","","","","","",""
1.0,0.08579056710004807,0.0001088375613263698,"train",1260.0,"2021-11-22 07:01:51.234098","","","","","","",""
1.0,0.07743509113788605,0.00010975550902266908,"train",1280.0,"2021-11-22 07:01:56.027298","","","","","","",""
1.0,0.09150030463933945,0.00011068760876165474,"train",1300.0,"2021-11-22 07:02:00.841494","","","","","","",""
1.0,0.08186819404363632,0.0001116338463630598,"train",1320.0,"2021-11-22 07:02:05.566668","","","","","","",""
1.0,0.10819239169359207,0.00011259420743153455,"train",1340.0,"2021-11-22 07:02:11.046949","","","","","","",""
1.0,0.059219133108854294,0.00011356867735686535,"train",1360.0,"2021-11-22 07:02:15.769334","","","","","","",""
1.0,0.09669436514377594,0.00011455724131419621,"train",1380.0,"2021-11-22 07:02:20.422837","","","","","","",""
1.0,0.08827569335699081,0.00011555988426425654,"train",1400.0,"2021-11-22 07:02:25.087942","","","","","","",""
1.0,0.06536576896905899,0.00011657659095358746,"train",1420.0,"2021-11-22 07:02:29.859550","","","","","","",""
1.0,0.08900673687458038,0.00011760734591477516,"train",1440.0,"2021-11-22 07:02:35.233508","","","","","","",""
1.0,0.09686677902936935,0.00011865213346668618,"train",1460.0,"2021-11-22 07:02:39.936464","","","","","","",""
1.0,0.07546579837799072,0.00011971093771470502,"train",1480.0,"2021-11-22 07:02:44.642141","","","","","","",""
1.0,0.08247154951095581,0.0001207837425509777,"train",1500.0,"2021-11-22 07:02:49.430446","","","","","","",""
1.0,0.09579882770776749,0.00012187053165465503,"train",1520.0,"2021-11-22 07:02:54.103179","","","","","","",""
1.0,0.08153743296861649,0.000122971288492142,"train",1540.0,"2021-11-22 07:02:59.326282","","","","","","",""
1.0,0.07156053185462952,0.00012408599631734863,"train",1560.0,"2021-11-22 07:03:03.997447","","","","","","",""
1.0,0.08112946897745132,0.00012521463817194542,"train",1580.0,"2021-11-22 07:03:08.703091","","","","","","",""
1.0,0.08842846751213074,0.00012635719688562077,"train",1600.0,"2021-11-22 07:03:13.321747","","","","","","",""
1.0,0.07181628793478012,0.00012751365507634267,"train",1620.0,"2021-11-22 07:03:17.962863","","","","","","",""
1.0,0.10469716042280197,0.0001286839951506226,"train",1640.0,"2021-11-22 07:03:23.398837","","","","","","",""
1.0,0.05996784567832947,0.00012986819930378333,"train",1660.0,"2021-11-22 07:03:28.102757","","","","","","",""
1.0,0.09435585886240005,0.00013106624952023064,"train",1680.0,"2021-11-22 07:03:32.819127","","","","","","",""
1.0,0.08337058871984482,0.00013227812757372545,"train",1700.0,"2021-11-22 07:03:37.706403","","","","","","",""
1.0,0.0839446634054184,0.00013350381502766394,"train",1720.0,"2021-11-22 07:03:43.089119","","","","","","",""
1.0,0.11070790886878967,0.00013474329323535494,"train",1740.0,"2021-11-22 07:03:47.805865","","","","","","",""
1.0,0.07668711990118027,0.0001359965433403059,"train",1760.0,"2021-11-22 07:03:52.684421","","","","","","",""
1.0,0.10480723530054092,0.00013726354627650872,"train",1780.0,"2021-11-22 07:03:57.441354","","","","","","",""
1.0,0.07488545775413513,0.00013854428276873052,"train",1800.0,"2021-11-22 07:04:02.304270","","","","","","",""
1.0,0.06050657108426094,0.00013983873333280506,"train",1820.0,"2021-11-22 07:04:07.157695","","","","","","",""
1.0,0.09937259554862976,0.00014114687827593156,"train",1840.0,"2021-11-22 07:04:12.389715","","","","","","",""
1.0,0.0884161964058876,0.00014246869769697352,"train",1860.0,"2021-11-22 07:04:17.162849","","","","","","",""
1.0,0.071891650557518,0.00014380417148676054,"train",1880.0,"2021-11-22 07:04:21.872940","","","","","","",""
1.0,0.08268072456121445,0.00014515327932839404,"train",1900.0,"2021-11-22 07:04:26.506675","","","","","","",""
1.0,0.08324733376502991,0.0001465160006975598,"train",1920.0,"2021-11-22 07:04:31.696036","","","","","","",""
1.0,0.08219996839761734,0.00014789231486283454,"train",1940.0,"2021-11-22 07:04:36.354334","","","","","","",""
1.0,0.07962566614151001,0.00014928220088600633,"train",1960.0,"2021-11-22 07:04:41.061207","","","","","","",""
1.0,0.08501790463924408,0.00015068563762239045,"train",1980.0,"2021-11-22 07:04:45.712729","","","","","","",""
1.0,0.09546676278114319,0.00015210260372115238,"train",2000.0,"2021-11-22 07:04:50.435410","","","","","","",""
1.0,0.0853571891784668,0.00015353307762563115,"train",2020.0,"2021-11-22 07:04:55.749247","","","","","","",""
1.0,0.09235679358243942,0.00015497703757366872,"train",2040.0,"2021-11-22 07:05:00.339184","","","","","","",""
1.0,0.06618042290210724,0.00015643446159794,"train",2060.0,"2021-11-22 07:05:04.981644","","","","","","",""
1.0,0.07060422003269196,0.0001579053275262887,"train",2080.0,"2021-11-22 07:05:09.635810","","","","","","",""
1.0,0.07356178015470505,0.00015938961298206183,"train",2100.0,"2021-11-22 07:05:14.274547","","","","","","",""
1.0,0.1041426733136177,0.00016088729538445297,"train",2120.0,"2021-11-22 07:05:19.500595","","","","","","",""
1.0,0.07569950073957443,0.000162398351948844,"train",2140.0,"2021-11-22 07:05:24.289979","","","","","","",""
1.0,"","","train",2148.0,"2021-11-22 07:07:12.628461",0.44991632103616386,0.3592650942920589,0.8803419001593098,0.39168799580232044,0.24317609046630512,0.24675331834802822,0.15466931511458462
1.0,"","","val",2148.0,"2021-11-22 07:07:41.274126",0.4442769337817465,0.3517584346146431,0.8768869717077704,0.3863193902484476,0.24204748018083783,0.2425843059954197,0.1518597560431451
2.0,0.0848860889673233,0.00016392275968715297,"train",2160.0,"2021-11-22 07:07:46.931897","","","","","","",""
2.0,0.10108095407485962,0.00016546049540818223,"train",2180.0,"2021-11-22 07:07:51.682685","","","","","","",""
2.0,0.06530524790287018,0.00016701153571797313,"train",2200.0,"2021-11-22 07:07:56.380607","","","","","","",""
2.0,0.08570906519889832,0.00016857585702016015,"train",2220.0,"2021-11-22 07:08:01.789405","","","","","","",""
2.0,0.07482637465000153,0.00017015343551633126,"train",2240.0,"2021-11-22 07:08:06.689532","","","","","","",""
2.0,0.09121103584766388,0.0001717442472063892,"train",2260.0,"2021-11-22 07:08:11.532991","","","","","","",""
2.0,0.08677604049444199,0.00017334826788891681,"train",2280.0,"2021-11-22 07:08:16.302695","","","","","","",""
2.0,0.08094435185194016,0.00017496547316154555,"train",2300.0,"2021-11-22 07:08:20.983745","","","","","","",""
2.0,0.09204206615686417,0.00017659583842132573,"train",2320.0,"2021-11-22 07:08:26.348005","","","","","","",""
2.0,0.07772713899612427,0.00017823933886510217,"train",2340.0,"2021-11-22 07:08:30.978141","","","","","","",""
2.0,0.09513559937477112,0.00017989594948989015,"train",2360.0,"2021-11-22 07:08:35.736291","","","","","","",""
2.0,0.07111222296953201,0.00018156564509325753,"train",2380.0,"2021-11-22 07:08:40.346092","","","","","","",""
2.0,0.06649419665336609,0.0001832484002737059,"train",2400.0,"2021-11-22 07:08:44.966714","","","","","","",""
2.0,0.08239686489105225,0.00018494418943105877,"train",2420.0,"2021-11-22 07:08:50.245643","","","","","","",""
2.0,0.09371963143348694,0.00018665298676685078,"train",2440.0,"2021-11-22 07:08:55.002115","","","","","","",""
2.0,0.07434656471014023,0.0001883747662847191,"train",2460.0,"2021-11-22 07:08:59.636620","","","","","","",""
2.0,0.05254989489912987,0.00019010950179080112,"train",2480.0,"2021-11-22 07:09:04.278581","","","","","","",""
2.0,0.06562883406877518,0.00019185716689412995,"train",2500.0,"2021-11-22 07:09:09.145720","","","","","","",""
2.0,0.0738353282213211,0.00019361773500703797,"train",2520.0,"2021-11-22 07:09:14.532203","","","","","","",""
2.0,0.06829597800970078,0.00019539117934556168,"train",2540.0,"2021-11-22 07:09:19.446952","","","","","","",""
2.0,0.09718583524227142,0.00019717747292984696,"train",2560.0,"2021-11-22 07:09:24.245132","","","","","","",""
2.0,0.0859128087759018,0.0001989765885845624,"train",2580.0,"2021-11-22 07:09:29.228194","","","","","","",""
2.0,0.06976085901260376,0.00020078849893931014,"train",2600.0,"2021-11-22 07:09:34.324652","","","","","","",""
2.0,0.0703643336892128,0.0002026131764290434,"train",2620.0,"2021-11-22 07:09:39.617241","","","","","","",""
2.0,0.08883990347385406,0.00020445059329448614,"train",2640.0,"2021-11-22 07:09:44.321399","","","","","","",""
2.0,0.0775161013007164,0.00020630072158255497,"train",2660.0,"2021-11-22 07:09:49.131650","","","","","","",""
2.0,0.06051836907863617,0.00020816353314678467,"train",2680.0,"2021-11-22 07:09:54.017451","","","","","","",""
2.0,0.08621063083410263,0.00021003899964775505,"train",2700.0,"2021-11-22 07:09:58.887970","","","","","","",""
2.0,0.06052147224545479,0.00021192709255352473,"train",2720.0,"2021-11-22 07:10:04.212654","","","","","","",""
2.0,0.05460129678249359,0.00021382778314006255,"train",2740.0,"2021-11-22 07:10:08.984276","","","","","","",""
2.0,0.06255878508090973,0.00021574104249168615,"train",2760.0,"2021-11-22 07:10:13.751554","","","","","","",""
2.0,0.08161105960607529,0.00021766684150150133,"train",2780.0,"2021-11-22 07:10:18.527913","","","","","","",""
2.0,0.0659228190779686,0.00021960515087184485,"train",2800.0,"2021-11-22 07:10:23.194192","","","","","","",""
2.0,0.09399332106113434,0.00022155594111472978,"train",2820.0,"2021-11-22 07:10:28.583512","","","","","","",""
2.0,0.07737190276384354,0.0002235191825522959,"train",2840.0,"2021-11-22 07:10:33.436096","","","","","","",""
2.0,0.09442836046218872,0.00022549484531725838,"train",2860.0,"2021-11-22 07:10:38.168874","","","","","","",""
2.0,0.09546326100826263,0.00022748289935336434,"train",2880.0,"2021-11-22 07:10:42.823822","","","","","","",""
2.0,0.061053480952978134,0.00022948331441584964,"train",2900.0,"2021-11-22 07:10:47.429607","","","","","","",""
2.0,0.09855365008115768,0.00023149606007189785,"train",2920.0,"2021-11-22 07:10:52.726312","","","","","","",""
2.0,0.0737912729382515,0.00023352110570110476,"train",2940.0,"2021-11-22 07:10:57.396964","","","","","","",""
2.0,0.07932236045598984,0.00023555842049594305,"train",2960.0,"2021-11-22 07:11:02.219748","","","","","","",""
2.0,0.05344536900520325,0.00023760797346223305,"train",2980.0,"2021-11-22 07:11:06.862174","","","","","","",""
2.0,0.06754087656736374,0.00023966973341961028,"train",3000.0,"2021-11-22 07:11:11.679084","","","","","","",""
2.0,0.08131093531847,0.0002417436690020044,"train",3020.0,"2021-11-22 07:11:17.195596","","","","","","",""
2.0,0.07562170177698135,0.00024382974865811325,"train",3040.0,"2021-11-22 07:11:22.126979","","","","","","",""
2.0,0.06421484798192978,0.000245927940651884,"train",3060.0,"2021-11-22 07:11:27.075457","","","","","","",""
2.0,0.05566462501883507,0.0002480382130629953,"train",3080.0,"2021-11-22 07:11:31.999289","","","","","","",""
2.0,0.07142514735460281,0.0002501605337873443,"train",3100.0,"2021-11-22 07:11:36.965061","","","","","","",""
2.0,0.07944634556770325,0.0002522948705375337,"train",3120.0,"2021-11-22 07:11:42.336404","","","","","","",""
2.0,0.05786829814314842,0.00025444119084336303,"train",3140.0,"2021-11-22 07:11:47.053531","","","","","","",""
2.0,0.052987053990364075,0.00025659946205232364,"train",3160.0,"2021-11-22 07:11:51.840512","","","","","","",""
2.0,0.09722990542650223,0.0002587696513300941,"train",3180.0,"2021-11-22 07:11:56.595286","","","","","","",""
2.0,0.07207652181386948,0.0002609517256610412,"train",3200.0,"2021-11-22 07:12:01.489684","","","","","","",""
2.0,0.05676737800240517,0.00026314565184872084,"train",3220.0,"2021-11-22 07:12:06.747647","","","","","","",""
2.0,"","","train",3222.0,"2021-11-22 07:13:53.874486",0.4886560430764753,0.4239271372692174,0.9082451206764385,0.459965553141254,0.3335706317397583,0.3312687941058173,0.21388255077067828
2.0,"","","val",3222.0,"2021-11-22 07:14:24.020198",0.478893656500058,0.4137222903674372,0.9027652152201809,0.4473400896851766,0.326998275411777,0.32210629973993904,0.20715295384312413
3.0,0.06650540977716446,0.0002653513965163838,"train",3240.0,"2021-11-22 07:14:31.208605","","","","","","",""
3.0,0.06477713584899902,0.0002675689261074836,"train",3260.0,"2021-11-22 07:14:36.086666","","","","","","",""
3.0,0.061848197132349014,0.00026979820688618605,"train",3280.0,"2021-11-22 07:14:40.926436","","","","","","",""
3.0,0.06440048664808273,0.00027203920493788433,"train",3300.0,"2021-11-22 07:14:45.610678","","","","","","",""
3.0,0.07460449635982513,0.00027429188616971277,"train",3320.0,"2021-11-22 07:14:51.231326","","","","","","",""
3.0,0.08344900608062744,0.0002765562163110668,"train",3340.0,"2021-11-22 07:14:56.163605","","","","","","",""
3.0,0.07173914462327957,0.00027883216091412503,"train",3360.0,"2021-11-22 07:15:01.081758","","","","","","",""
3.0,0.0793958455324173,0.0002811196853543707,"train",3380.0,"2021-11-22 07:15:05.814861","","","","","","",""
3.0,0.06445566564798355,0.00028341875483112134,"train",3400.0,"2021-11-22 07:15:10.795657","","","","","","",""
3.0,0.0731586441397667,0.00028572933436805644,"train",3420.0,"2021-11-22 07:15:16.262918","","","","","","",""
3.0,0.07937712222337723,0.0002880513888137504,"train",3440.0,"2021-11-22 07:15:21.169199","","","","","","",""
3.0,0.06806633621454239,0.0002903848828422063,"train",3460.0,"2021-11-22 07:15:26.087038","","","","","","",""
3.0,0.0650520995259285,0.00029272978095339465,"train",3480.0,"2021-11-22 07:15:30.896763","","","","","","",""
3.0,0.07455465197563171,0.00029508604747379243,"train",3500.0,"2021-11-22 07:15:35.782419","","","","","","",""
3.0,0.060446079820394516,0.00029745364655692653,"train",3520.0,"2021-11-22 07:15:41.298669","","","","","","",""
3.0,0.08564996719360352,0.0002998325421839181,"train",3540.0,"2021-11-22 07:15:46.258522","","","","","","",""
3.0,0.07995840162038803,0.0003022226981640318,"train",3560.0,"2021-11-22 07:15:51.113908","","","","","","",""
3.0,0.08686897158622742,0.00030462407813522494,"train",3580.0,"2021-11-22 07:15:55.952436","","","","","","",""
3.0,0.0666496753692627,0.0003070366455647027,"train",3600.0,"2021-11-22 07:16:00.651550","","","","","","",""
3.0,0.06447324901819229,0.000309460363749471,"train",3620.0,"2021-11-22 07:16:05.979408","","","","","","",""
3.0,0.07276654243469238,0.0003118951958168978,"train",3640.0,"2021-11-22 07:16:10.638836","","","","","","",""
3.0,0.09993908554315567,0.0003143411047252722,"train",3660.0,"2021-11-22 07:16:15.272494","","","","","","",""
3.0,0.07341041415929794,0.0003167980532643691,"train",3680.0,"2021-11-22 07:16:19.915480","","","","","","",""
3.0,0.05795670300722122,0.0003192660040560141,"train",3700.0,"2021-11-22 07:16:24.558329","","","","","","",""
3.0,0.06383591890335083,0.0003217449195546528,"train",3720.0,"2021-11-22 07:16:29.738017","","","","","","",""
3.0,0.07925503700971603,0.00032423476204792244,"train",3740.0,"2021-11-22 07:16:34.440269","","","","","","",""
3.0,0.06845077127218246,0.0003267354936572248,"train",3760.0,"2021-11-22 07:16:39.138571","","","","","","",""
3.0,0.09053665399551392,0.0003292470763383026,"train",3780.0,"2021-11-22 07:16:43.800974","","","","","","",""
3.0,0.05738942697644234,0.0003317694718818192,"train",3800.0,"2021-11-22 07:16:49.276293","","","","","","",""
3.0,0.09613826870918274,0.00033430264191393853,"train",3820.0,"2021-11-22 07:16:54.111889","","","","","","",""
3.0,0.06292939931154251,0.0003368465478969097,"train",3840.0,"2021-11-22 07:16:58.990202","","","","","","",""
3.0,0.07639514654874802,0.0003394011511296533,"train",3860.0,"2021-11-22 07:17:03.942932","","","","","","",""
3.0,0.0790005773305893,0.0003419664127483496,"train",3880.0,"2021-11-22 07:17:08.876207","","","","","","",""
3.0,0.06372614949941635,0.00034454229372703074,"train",3900.0,"2021-11-22 07:17:14.153328","","","","","","",""
3.0,0.06136911362409592,0.00034712875487817314,"train",3920.0,"2021-11-22 07:17:18.846424","","","","","","",""
3.0,0.07834118604660034,0.00034972575685329526,"train",3940.0,"2021-11-22 07:17:23.541269","","","","","","",""
3.0,0.09096097946166992,0.0003523332601435541,"train",3960.0,"2021-11-22 07:17:28.391895","","","","","","",""
3.0,0.07495565712451935,0.00035495122508034916,"train",3980.0,"2021-11-22 07:17:33.099259","","","","","","",""
3.0,0.07068639993667603,0.0003575796118359231,"train",4000.0,"2021-11-22 07:17:38.334987","","","","","","",""
3.0,0.0706682950258255,0.00036021838042396906,"train",4020.0,"2021-11-22 07:17:43.212480","","","","","","",""
3.0,0.08029884099960327,0.0003628674907002389,"train",4040.0,"2021-11-22 07:17:48.131189","","","","","","",""
3.0,0.07568802684545517,0.00036552690236315395,"train",4060.0,"2021-11-22 07:17:52.974684","","","","","","",""
3.0,0.07470690459012985,0.00036819657495441773,"train",4080.0,"2021-11-22 07:17:57.820587","","","","","","",""
3.0,0.0963667556643486,0.0003708764678596317,"train",4100.0,"2021-11-22 07:18:03.317608","","","","","","",""
3.0,0.06219255551695824,0.00037356654030891293,"train",4120.0,"2021-11-22 07:18:08.023442","","","","","","",""
3.0,0.0788763090968132,0.0003762667513775148,"train",4140.0,"2021-11-22 07:18:12.711755","","","","","","",""
3.0,0.0845683142542839,0.0003789770599864498,"train",4160.0,"2021-11-22 07:18:17.517958","","","","","","",""
3.0,0.08347614854574203,0.000381697424903113,"train",4180.0,"2021-11-22 07:18:22.306121","","","","","","",""
3.0,0.058742497116327286,0.0003844278047419108,"train",4200.0,"2021-11-22 07:18:27.650349","","","","","","",""
3.0,0.06226154789328575,0.0003871681579648903,"train",4220.0,"2021-11-22 07:18:32.497960","","","","","","",""
3.0,0.062171805649995804,0.0003899184428823709,"train",4240.0,"2021-11-22 07:18:37.202331","","","","","","",""
3.0,0.05186257138848305,0.0003926786176535783,"train",4260.0,"2021-11-22 07:18:42.077747","","","","","","",""
3.0,0.05551743134856224,0.0003954486402872818,"train",4280.0,"2021-11-22 07:18:46.885075","","","","","","",""
3.0,"","","train",4296.0,"2021-11-22 07:20:39.754290",0.5178636396711053,0.48182764058737726,0.9241916273354411,0.4919486498554,0.35524528266313804,0.36186055110226334,0.23401549880652836
3.0,"","","val",4296.0,"2021-11-22 07:21:08.722069",0.5106691406703003,0.46293917981283667,0.9174732731591434,0.4797032656426531,0.34927190254562823,0.3536136763206248,0.22685880878664272
4.0,0.05485092103481293,0.0003982284686424324,"train",4300.0,"2021-11-22 07:21:12.384171","","","","","","",""
4.0,0.09012916684150696,0.0004010180604288045,"train",4320.0,"2021-11-22 07:21:17.468086","","","","","","",""
4.0,0.069679394364357,0.00040381737320763873,"train",4340.0,"2021-11-22 07:21:22.289920","","","","","","",""
4.0,0.053747210651636124,0.0004066263643922878,"train",4360.0,"2021-11-22 07:21:27.196029","","","","","","",""
4.0,0.06457318365573883,0.0004094449912488646,"train",4380.0,"2021-11-22 07:21:31.994054","","","","","","",""
4.0,0.09872352331876755,0.0004122732108968923,"train",4400.0,"2021-11-22 07:21:37.315675","","","","","","",""
4.0,0.08562086522579193,0.0004151109803099558,"train",4420.0,"2021-11-22 07:21:41.937618","","","","","","",""
4.0,0.06856181472539902,0.00041795825631635764,"train",4440.0,"2021-11-22 07:21:46.623751","","","","","","",""
4.0,0.09685824811458588,0.0004208149955997739,"train",4460.0,"2021-11-22 07:21:51.296280","","","","","","",""
4.0,0.06577306985855103,0.0004236811546999141,"train",4480.0,"2021-11-22 07:21:55.889460","","","","","","",""
4.0,0.041971802711486816,0.0004265566900131805,"train",4500.0,"2021-11-22 07:22:01.176397","","","","","","",""
4.0,0.06521864235401154,0.0004294415577933337,"train",4520.0,"2021-11-22 07:22:05.878198","","","","","","",""
4.0,0.0766744315624237,0.00043233571415215717,"train",4540.0,"2021-11-22 07:22:10.736032","","","","","","",""
4.0,0.06736171245574951,0.0004352391150601242,"train",4560.0,"2021-11-22 07:22:15.496552","","","","","","",""
4.0,0.0718972459435463,0.0004381517163470684,"train",4580.0,"2021-11-22 07:22:20.141724","","","","","","",""
4.0,0.06338135153055191,0.00044107347370285683,"train",4600.0,"2021-11-22 07:22:25.543854","","","","","","",""
4.0,0.075590118765831,0.00044400434267806194,"train",4620.0,"2021-11-22 07:22:30.324129","","","","","","",""
4.0,0.07720531523227692,0.00044694427868463907,"train",4640.0,"2021-11-22 07:22:35.002617","","","","","","",""
4.0,0.05633170157670975,0.00044989323699660467,"train",4660.0,"2021-11-22 07:22:39.794277","","","","","","",""
4.0,0.0640246719121933,0.0004528511727507165,"train",4680.0,"2021-11-22 07:22:44.490659","","","","","","",""
4.0,0.07077057659626007,0.00045581804094715645,"train",4700.0,"2021-11-22 07:22:49.631588","","","","","","",""
4.0,0.0616430789232254,0.00045879379645021425,"train",4720.0,"2021-11-22 07:22:54.227153","","","","","","",""
4.0,0.050950732082128525,0.0004617783939889759,"train",4740.0,"2021-11-22 07:22:58.927345","","","","","","",""
4.0,0.06808147579431534,0.0004647717881580103,"train",4760.0,"2021-11-22 07:23:03.843398","","","","","","",""
4.0,0.0697844848036766,0.0004677739334180617,"train",4780.0,"2021-11-22 07:23:08.527992","","","","","","",""
4.0,0.060329288244247437,0.00047078478409674144,"train",4800.0,"2021-11-22 07:23:13.769516","","","","","","",""
4.0,0.08783899992704391,0.00047380429438922305,"train",4820.0,"2021-11-22 07:23:18.392540","","","","","","",""
4.0,0.09981133788824081,0.00047683241835893946,"train",4840.0,"2021-11-22 07:23:23.005051","","","","","","",""
4.0,0.05078185722231865,0.0004798691099382815,"train",4860.0,"2021-11-22 07:23:27.690248","","","","","","",""
4.0,0.06694696098566055,0.0004829143229292986,"train",4880.0,"2021-11-22 07:23:32.283080","","","","","","",""
4.0,0.047755274921655655,0.0004859680110044023,"train",4900.0,"2021-11-22 07:23:37.466552","","","","","","",""
4.0,0.05619136244058609,0.0004890301277070699,"train",4920.0,"2021-11-22 07:23:42.038712","","","","","","",""
4.0,0.07422109693288803,0.0004921006264525525,"train",4940.0,"2021-11-22 07:23:46.670655","","","","","","",""
4.0,0.06733807176351547,0.0004951794605285824,"train",4960.0,"2021-11-22 07:23:51.323003","","","","","","",""
4.0,0.057193316519260406,0.0004982665830960853,"train",4980.0,"2021-11-22 07:23:55.923906","","","","","","",""
4.0,0.06018693745136261,0.0005013619471898913,"train",5000.0,"2021-11-22 07:24:01.126237","","","","","","",""
4.0,0.0694190040230751,0.0005044655057194504,"train",5020.0,"2021-11-22 07:24:05.923363","","","","","","",""
4.0,0.06047273054718971,0.0005075772114695486,"train",5040.0,"2021-11-22 07:24:10.702386","","","","","","",""
4.0,0.0641803964972496,0.0005106970171010257,"train",5060.0,"2021-11-22 07:24:15.372939","","","","","","",""
4.0,0.06418883800506592,0.0005138248751514966,"train",5080.0,"2021-11-22 07:24:20.021169","","","","","","",""
4.0,0.04071303829550743,0.0005169607380360731,"train",5100.0,"2021-11-22 07:24:25.245760","","","","","","",""
4.0,0.061775244772434235,0.000520104558048086,"train",5120.0,"2021-11-22 07:24:29.846001","","","","","","",""
4.0,0.05602545291185379,0.0005232562873598136,"train",5140.0,"2021-11-22 07:24:34.430812","","","","","","",""
4.0,0.07311445474624634,0.0005264158780232072,"train",5160.0,"2021-11-22 07:24:39.100437","","","","","","",""
4.0,0.0619216226041317,0.0005295832819706228,"train",5180.0,"2021-11-22 07:24:43.821009","","","","","","",""
4.0,0.04247690364718437,0.0005327584510155488,"train",5200.0,"2021-11-22 07:24:49.291406","","","","","","",""
4.0,0.09272602945566177,0.000535941336853343,"train",5220.0,"2021-11-22 07:24:53.909726","","","","","","",""
4.0,0.06345652043819427,0.0005391318910619655,"train",5240.0,"2021-11-22 07:24:58.566508","","","","","","",""
4.0,0.05097366124391556,0.0005423300651027144,"train",5260.0,"2021-11-22 07:25:03.295348","","","","","","",""
4.0,0.06976266950368881,0.0005455358103209663,"train",5280.0,"2021-11-22 07:25:08.109917","","","","","","",""
4.0,0.06931735575199127,0.0005487490779469157,"train",5300.0,"2021-11-22 07:25:13.512486","","","","","","",""
4.0,0.04970379173755646,0.000551969819096316,"train",5320.0,"2021-11-22 07:25:18.319562","","","","","","",""
4.0,0.08936042338609695,0.0005551979847712252,"train",5340.0,"2021-11-22 07:25:23.214707","","","","","","",""
4.0,0.04798813536763191,0.0005584335258607489,"train",5360.0,"2021-11-22 07:25:27.949140","","","","","","",""
4.0,"","","train",5370.0,"2021-11-22 07:27:15.548468",0.5463435931019428,0.5199041654267833,0.9354507620638081,0.536699263255633,0.4033367059931843,0.419271527836694,0.26762224497234344
4.0,"","","val",5370.0,"2021-11-22 07:27:43.937758",0.5347906760988055,0.5020799277742247,0.9285532897003516,0.5191445976565121,0.3976316157220282,0.4097076886367951,0.259038822969307
5.0,0.049944814294576645,0.0005616763931417894,"train",5380.0,"2021-11-22 07:27:49.182459","","","","","","",""
5.0,0.07153953611850739,0.0005649265372797939,"train",5400.0,"2021-11-22 07:27:54.647836","","","","","","",""
5.0,0.040337081998586655,0.0005681839088295046,"train",5420.0,"2021-11-22 07:27:59.462151","","","","","","",""
5.0,0.07662127912044525,0.0005714484582357109,"train",5440.0,"2021-11-22 07:28:04.163827","","","","","","",""
5.0,0.07757929712533951,0.0005747201358340048,"train",5460.0,"2021-11-22 07:28:08.757579","","","","","","",""
5.0,0.07085555791854858,0.0005779988918515344,"train",5480.0,"2021-11-22 07:28:13.945114","","","","","","",""
5.0,0.0506790466606617,0.0005812846764077623,"train",5500.0,"2021-11-22 07:28:18.557475","","","","","","",""
5.0,0.0789615586400032,0.0005845774395152243,"train",5520.0,"2021-11-22 07:28:23.221289","","","","","","",""
5.0,0.04923190549015999,0.0005878771310802895,"train",5540.0,"2021-11-22 07:28:27.964667","","","","","","",""
5.0,0.05913271754980087,0.0005911837009039229,"train",5560.0,"2021-11-22 07:28:32.669078","","","","","","",""
5.0,0.0788697674870491,0.0005944970986824485,"train",5580.0,"2021-11-22 07:28:37.315090","","","","","","",""
5.0,0.03716505691409111,0.000597817274008315,"train",5600.0,"2021-11-22 07:28:42.545926","","","","","","",""
5.0,0.05999808385968208,0.0006011441763708635,"train",5620.0,"2021-11-22 07:28:47.174111","","","","","","",""
5.0,0.05757445842027664,0.0006044777551570929,"train",5640.0,"2021-11-22 07:28:51.797276","","","","","","",""
5.0,0.05887976661324501,0.000607817959652434,"train",5660.0,"2021-11-22 07:28:56.480413","","","","","","",""
5.0,0.08441265672445297,0.0006111647390415189,"train",5680.0,"2021-11-22 07:29:01.706863","","","","","","",""
5.0,0.05621596798300743,0.0006145180424089525,"train",5700.0,"2021-11-22 07:29:06.411939","","","","","","",""
5.0,0.058368515223264694,0.0006178778187400902,"train",5720.0,"2021-11-22 07:29:11.098812","","","","","","",""
5.0,0.03855782374739647,0.0006212440169218129,"train",5740.0,"2021-11-22 07:29:15.782114","","","","","","",""
5.0,0.05277366191148758,0.0006246165857433027,"train",5760.0,"2021-11-22 07:29:20.453261","","","","","","",""
5.0,0.06500353664159775,0.0006279954738968251,"train",5780.0,"2021-11-22 07:29:25.761725","","","","","","",""
5.0,0.06469808518886566,0.0006313806299785075,"train",5800.0,"2021-11-22 07:29:30.398174","","","","","","",""
5.0,0.05608793720602989,0.0006347720024891209,"train",5820.0,"2021-11-22 07:29:35.172294","","","","","","",""
5.0,0.05194178968667984,0.0006381695398348657,"train",5840.0,"2021-11-22 07:29:39.832065","","","","","","",""
5.0,0.05201660469174385,0.0006415731903281542,"train",5860.0,"2021-11-22 07:29:44.589844","","","","","","",""
5.0,0.08124494552612305,0.0006449829021883979,"train",5880.0,"2021-11-22 07:29:50.026134","","","","","","",""
5.0,0.08756750077009201,0.0006483986235427956,"train",5900.0,"2021-11-22 07:29:54.850667","","","","","","",""
5.0,0.07419207692146301,0.0006518203024271213,"train",5920.0,"2021-11-22 07:29:59.531749","","","","","","",""
5.0,0.04353906214237213,0.0006552478867865169,"train",5940.0,"2021-11-22 07:30:04.349995","","","","","","",""
5.0,0.059061456471681595,0.0006586813244762815,"train",5960.0,"2021-11-22 07:30:09.173674","","","","","","",""
5.0,0.04905155673623085,0.0006621205632626672,"train",5980.0,"2021-11-22 07:30:14.537507","","","","","","",""
5.0,0.0733330175280571,0.0006655655508236717,"train",6000.0,"2021-11-22 07:30:19.347329","","","","","","",""
5.0,0.06275226175785065,0.0006690162347498356,"train",6020.0,"2021-11-22 07:30:24.051469","","","","","","",""
5.0,0.082363061606884,0.0006724725625450389,"train",6040.0,"2021-11-22 07:30:28.729088","","","","","","",""
5.0,0.057669010013341904,0.0006759344816273003,"train",6060.0,"2021-11-22 07:30:33.377658","","","","","","",""
5.0,0.0821535587310791,0.0006794019393295771,"train",6080.0,"2021-11-22 07:30:38.831373","","","","","","",""
5.0,0.0493057519197464,0.0006828748829005654,"train",6100.0,"2021-11-22 07:30:43.750461","","","","","","",""
5.0,0.054957833141088486,0.0006863532595055041,"train",6120.0,"2021-11-22 07:30:48.629280","","","","","","",""
5.0,0.06546759605407715,0.0006898370162269777,"train",6140.0,"2021-11-22 07:30:53.409752","","","","","","",""
5.0,0.07464160025119781,0.0006933261000657217,"train",6160.0,"2021-11-22 07:30:58.213992","","","","","","",""
5.0,0.05315334349870682,0.000696820457941429,"train",6180.0,"2021-11-22 07:31:03.500191","","","","","","",""
5.0,0.07280206680297852,0.000700320036693557,"train",6200.0,"2021-11-22 07:31:08.247213","","","","","","",""
5.0,0.0709233507514,0.0007038247830821358,"train",6220.0,"2021-11-22 07:31:12.990641","","","","","","",""
5.0,0.061162445694208145,0.0007073346437885815,"train",6240.0,"2021-11-22 07:31:17.699222","","","","","","",""
5.0,0.0572766438126564,0.000710849565416502,"train",6260.0,"2021-11-22 07:31:22.395616","","","","","","",""
5.0,0.07017115503549576,0.0007143694944925134,"train",6280.0,"2021-11-22 07:31:27.649159","","","","","","",""
5.0,0.05742497742176056,0.0007178943774670524,"train",6300.0,"2021-11-22 07:31:32.471257","","","","","","",""
5.0,0.07129794359207153,0.0007214241607151901,"train",6320.0,"2021-11-22 07:31:37.406383","","","","","","",""
5.0,0.04409226402640343,0.000724958790537449,"train",6340.0,"2021-11-22 07:31:42.223243","","","","","","",""
5.0,0.0652744397521019,0.0007284982131606195,"train",6360.0,"2021-11-22 07:31:46.928271","","","","","","",""
5.0,0.05328775942325592,0.0007320423747385781,"train",6380.0,"2021-11-22 07:31:52.226039","","","","","","",""
5.0,0.057802826166152954,0.0007355912213531054,"train",6400.0,"2021-11-22 07:31:56.995267","","","","","","",""
5.0,0.05577944591641426,0.000739144699014708,"train",6420.0,"2021-11-22 07:32:01.837987","","","","","","",""
5.0,0.056485313922166824,0.0007427027536634401,"train",6440.0,"2021-11-22 07:32:06.753556","","","","","","",""
5.0,"","","train",6444.0,"2021-11-22 07:33:55.764174",0.553489048970385,0.5465433051778757,0.9405640957996378,0.5461977870327936,0.41717415452487283,0.4311903646866145,0.2781949881332218
5.0,"","","val",6444.0,"2021-11-22 07:34:24.541573",0.5427925316015307,0.5204637790876113,0.9328921241955537,0.5299907783366283,0.4037845878643273,0.41591916860006395,0.26620496880817657
6.0,0.06337226927280426,0.0007462653311697235,"train",6460.0,"2021-11-22 07:34:31.326850","","","","","","",""
6.0,0.086616151034832,0.0007498323773351733,"train",6480.0,"2021-11-22 07:34:36.990928","","","","","","",""
6.0,0.08845578879117966,0.0007534038378934223,"train",6500.0,"2021-11-22 07:34:41.913110","","","","","","",""
6.0,0.06405629217624664,0.0007569796585109453,"train",6520.0,"2021-11-22 07:34:46.748151","","","","","","",""
6.0,0.05050962045788765,0.0007605597847878862,"train",6540.0,"2021-11-22 07:34:51.669389","","","","","","",""
6.0,0.05532017722725868,0.0007641441622588871,"train",6560.0,"2021-11-22 07:34:56.614508","","","","","","",""
6.0,0.054170023649930954,0.0007677327363939143,"train",6580.0,"2021-11-22 07:35:01.961755","","","","","","",""
6.0,0.054963547736406326,0.0007713254525990895,"train",6600.0,"2021-11-22 07:35:06.730583","","","","","","",""
6.0,0.05826012045145035,0.0007749222562175211,"train",6620.0,"2021-11-22 07:35:11.456232","","","","","","",""
6.0,0.07315952330827713,0.000778523092530133,"train",6640.0,"2021-11-22 07:35:16.098769","","","","","","",""
6.0,0.04286058247089386,0.0007821279067564996,"train",6660.0,"2021-11-22 07:35:20.932630","","","","","","",""
6.0,0.05941563472151756,0.0007857366440556786,"train",6680.0,"2021-11-22 07:35:26.413267","","","","","","",""
6.0,0.06331606954336166,0.0007893492495270442,"train",6700.0,"2021-11-22 07:35:31.218352","","","","","","",""
6.0,0.04545389860868454,0.0007929656682111239,"train",6720.0,"2021-11-22 07:35:36.102889","","","","","","",""
6.0,0.06664212793111801,0.0007965858450904332,"train",6740.0,"2021-11-22 07:35:40.723193","","","","","","",""
6.0,0.09517711400985718,0.000800209725090314,"train",6760.0,"2021-11-22 07:35:45.334092","","","","","","",""
6.0,0.07506386190652847,0.0008038372530797706,"train",6780.0,"2021-11-22 07:35:50.575507","","","","","","",""
6.0,0.07568877935409546,0.0008074683738723109,"train",6800.0,"2021-11-22 07:35:55.267932","","","","","","",""
6.0,0.04843134433031082,0.0008111030322267832,"train",6820.0,"2021-11-22 07:35:59.924973","","","","","","",""
6.0,0.07372762262821198,0.0008147411728482187,"train",6840.0,"2021-11-22 07:36:04.663513","","","","","","",""
6.0,0.07157496362924576,0.0008183827403886721,"train",6860.0,"2021-11-22 07:36:09.413834","","","","","","",""
6.0,0.06281380355358124,0.0008220276794480633,"train",6880.0,"2021-11-22 07:36:14.740345","","","","","","",""
6.0,0.05395878478884697,0.0008256759345750203,"train",6900.0,"2021-11-22 07:36:19.508843","","","","","","",""
6.0,0.043758854269981384,0.0008293274502677234,"train",6920.0,"2021-11-22 07:36:24.419321","","","","","","",""
6.0,0.05580392852425575,0.0008329821709747486,"train",6940.0,"2021-11-22 07:36:29.313073","","","","","","",""
6.0,0.08212704211473465,0.0008366400410959136,"train",6960.0,"2021-11-22 07:36:34.027925","","","","","","",""
6.0,0.06530676037073135,0.000840301004983123,"train",6980.0,"2021-11-22 07:36:39.366266","","","","","","",""
6.0,0.04451197385787964,0.0008439650069412147,"train",7000.0,"2021-11-22 07:36:44.022002","","","","","","",""
6.0,0.05908983573317528,0.0008476319912288095,"train",7020.0,"2021-11-22 07:36:48.953216","","","","","","",""
6.0,0.053367480635643005,0.0008513019020591544,"train",7040.0,"2021-11-22 07:36:53.813975","","","","","","",""
6.0,0.06987114250659943,0.0008549746836009771,"train",7060.0,"2021-11-22 07:36:58.696385","","","","","","",""
6.0,0.068265900015831,0.0008586502799793306,"train",7080.0,"2021-11-22 07:37:03.992588","","","","","","",""
6.0,0.04402656480669975,0.0008623286352764453,"train",7100.0,"2021-11-22 07:37:08.715804","","","","","","",""
6.0,0.08936629444360733,0.0008660096935325802,"train",7120.0,"2021-11-22 07:37:13.687153","","","","","","",""
6.0,0.05596429854631424,0.0008696933987468731,"train",7140.0,"2021-11-22 07:37:18.315818","","","","","","",""
6.0,0.0896371528506279,0.0008733796948781924,"train",7160.0,"2021-11-22 07:37:22.966898","","","","","","",""
6.0,0.09299322962760925,0.0008770685258459915,"train",7180.0,"2021-11-22 07:37:28.234780","","","","","","",""
6.0,0.057624682784080505,0.0008807598355311595,"train",7200.0,"2021-11-22 07:37:32.913756","","","","","","",""
6.0,0.0940096378326416,0.0008844535677768764,"train",7220.0,"2021-11-22 07:37:37.595760","","","","","","",""
6.0,0.052814412862062454,0.0008881496663894681,"train",7240.0,"2021-11-22 07:37:42.258285","","","","","","",""
6.0,0.058705300092697144,0.0008918480751392592,"train",7260.0,"2021-11-22 07:37:46.887117","","","","","","",""
6.0,0.05650410056114197,0.00089554873776143,"train",7280.0,"2021-11-22 07:37:52.222744","","","","","","",""
6.0,0.050217099487781525,0.0008992515979568724,"train",7300.0,"2021-11-22 07:37:56.880222","","","","","","",""
6.0,0.05106649547815323,0.0009029565993930457,"train",7320.0,"2021-11-22 07:38:01.719749","","","","","","",""
6.0,0.04401015117764473,0.0009066636857048339,"train",7340.0,"2021-11-22 07:38:06.601920","","","","","","",""
6.0,0.04116023704409599,0.0009103728004954039,"train",7360.0,"2021-11-22 07:38:11.948992","","","","","","",""
6.0,0.07238159328699112,0.0009140838873370617,"train",7380.0,"2021-11-22 07:38:16.549009","","","","","","",""
6.0,0.06757137924432755,0.0009177968897721136,"train",7400.0,"2021-11-22 07:38:21.377485","","","","","","",""
6.0,0.059622470289468765,0.0009215117513137218,"train",7420.0,"2021-11-22 07:38:26.202413","","","","","","",""
6.0,0.054811734706163406,0.0009252284154467663,"train",7440.0,"2021-11-22 07:38:31.033245","","","","","","",""
6.0,0.08022536337375641,0.0009289468256287042,"train",7460.0,"2021-11-22 07:38:36.403274","","","","","","",""
6.0,0.0974089577794075,0.0009326669252904287,"train",7480.0,"2021-11-22 07:38:41.083286","","","","","","",""
6.0,0.07525229454040527,0.0009363886578371307,"train",7500.0,"2021-11-22 07:38:45.761696","","","","","","",""
6.0,"","","train",7518.0,"2021-11-22 07:40:43.499678",0.5565305973950375,0.5678891130575983,0.9458135353195036,0.5597304921160958,0.4354971125667894,0.4529225861995496,0.2915002226721975
6.0,"","","val",7518.0,"2021-11-22 07:41:12.312981",0.5433143917430129,0.5414170785633526,0.9366737303779081,0.5394442850132395,0.4216972313032553,0.43723489652574027,0.2768546728225453
7.0,0.08693308383226395,0.0009401119666491604,"train",7520.0,"2021-11-22 07:41:15.446737","","","","","","",""
7.0,0.0716385468840599,0.0009438367950828869,"train",7540.0,"2021-11-22 07:41:20.275419","","","","","","",""
7.0,0.06309498846530914,0.000947563086471561,"train",7560.0,"2021-11-22 07:41:25.590765","","","","","","",""
7.0,0.048033103346824646,0.0009512907841261783,"train",7580.0,"2021-11-22 07:41:30.184996","","","","","","",""
7.0,0.05584696680307388,0.0009550198313363391,"train",7600.0,"2021-11-22 07:41:35.028996","","","","","","",""
7.0,0.04323068633675575,0.0009587501713711128,"train",7620.0,"2021-11-22 07:41:39.891647","","","","","","",""
7.0,0.05749174579977989,0.0009624817474799023,"train",7640.0,"2021-11-22 07:41:44.731739","","","","","","",""
7.0,0.061512064188718796,0.0009662145028933038,"train",7660.0,"2021-11-22 07:41:49.995574","","","","","","",""
7.0,0.06526835262775421,0.0009699483808239733,"train",7680.0,"2021-11-22 07:41:54.806470","","","","","","",""
7.0,0.07681512087583542,0.0009736833244674895,"train",7700.0,"2021-11-22 07:41:59.640536","","","","","","",""
7.0,0.04957357048988342,0.0009774192770032192,"train",7720.0,"2021-11-22 07:42:04.414688","","","","","","",""
7.0,0.04821168631315231,0.0009811561815951785,"train",7740.0,"2021-11-22 07:42:09.288566","","","","","","",""
7.0,0.04800954833626747,0.0009848939813929015,"train",7760.0,"2021-11-22 07:42:14.682952","","","","","","",""
7.0,0.06293215602636337,0.0009886326195323026,"train",7780.0,"2021-11-22 07:42:19.499016","","","","","","",""
7.0,0.0638454258441925,0.0009923720391365428,"train",7800.0,"2021-11-22 07:42:24.281355","","","","","","",""
7.0,0.07789826393127441,0.000996112183316893,"train",7820.0,"2021-11-22 07:42:29.206735","","","","","","",""
7.0,0.04726816341280937,0.0009998529951736029,"train",7840.0,"2021-11-22 07:42:33.936843","","","","","","",""
7.0,0.0832940861582756,0.0010035944177967638,"train",7860.0,"2021-11-22 07:42:39.340941","","","","","","",""
7.0,0.046541329473257065,0.0010073363942671744,"train",7880.0,"2021-11-22 07:42:43.991654","","","","","","",""
7.0,0.045245565474033356,0.0010110788676572094,"train",7900.0,"2021-11-22 07:42:48.737487","","","","","","",""
7.0,0.08555422723293304,0.0010148217810316822,"train",7920.0,"2021-11-22 07:42:53.551008","","","","","","",""
7.0,0.042962439358234406,0.0010185650774487127,"train",7940.0,"2021-11-22 07:42:58.425956","","","","","","",""
7.0,0.06976502388715744,0.0010223086999605951,"train",7960.0,"2021-11-22 07:43:03.797074","","","","","","",""
7.0,0.05398169159889221,0.0010260525916146609,"train",7980.0,"2021-11-22 07:43:08.574012","","","","","","",""
7.0,0.07599162310361862,0.0010297966954541469,"train",8000.0,"2021-11-22 07:43:13.247287","","","","","","",""
7.0,0.03321851044893265,0.001033540954519064,"train",8020.0,"2021-11-22 07:43:17.966897","","","","","","",""
7.0,0.050753191113471985,0.0010372853118470592,"train",8040.0,"2021-11-22 07:43:22.617077","","","","","","",""
7.0,0.057951245456933975,0.0010410297104742857,"train",8060.0,"2021-11-22 07:43:27.944533","","","","","","",""
7.0,0.05757960304617882,0.0010447740934362692,"train",8080.0,"2021-11-22 07:43:32.845963","","","","","","",""
7.0,0.06383150815963745,0.0010485184037687715,"train",8100.0,"2021-11-22 07:43:37.672596","","","","","","",""
7.0,0.04601540043950081,0.0010522625845086615,"train",8120.0,"2021-11-22 07:43:42.571196","","","","","","",""
7.0,0.054785069078207016,0.0010560065786947796,"train",8140.0,"2021-11-22 07:43:47.438700","","","","","","",""
7.0,0.06746497005224228,0.0010597503293688013,"train",8160.0,"2021-11-22 07:43:52.947603","","","","","","",""
7.0,0.06842546164989471,0.001063493779576111,"train",8180.0,"2021-11-22 07:43:57.605076","","","","","","",""
7.0,0.05685820057988167,0.0010672368723666614,"train",8200.0,"2021-11-22 07:44:02.264137","","","","","","",""
7.0,0.06917541474103928,0.0010709795507958426,"train",8220.0,"2021-11-22 07:44:06.841825","","","","","","",""
7.0,0.05418550595641136,0.0010747217579253504,"train",8240.0,"2021-11-22 07:44:11.423734","","","","","","",""
7.0,0.08765792846679688,0.0010784634368240487,"train",8260.0,"2021-11-22 07:44:16.679959","","","","","","",""
7.0,0.050317104905843735,0.0010822045305688382,"train",8280.0,"2021-11-22 07:44:21.380142","","","","","","",""
7.0,0.06703343987464905,0.0010859449822455227,"train",8300.0,"2021-11-22 07:44:26.101510","","","","","","",""
7.0,0.04469084367156029,0.001089684734949672,"train",8320.0,"2021-11-22 07:44:30.717088","","","","","","",""
7.0,0.06544725596904755,0.00109342373178749,"train",8340.0,"2021-11-22 07:44:35.363051","","","","","","",""
7.0,0.07617106288671494,0.0010971619158766821,"train",8360.0,"2021-11-22 07:44:40.987940","","","","","","",""
7.0,0.0761798545718193,0.0011008992303473152,"train",8380.0,"2021-11-22 07:44:45.844562","","","","","","",""
7.0,0.05524986609816551,0.001104635618342687,"train",8400.0,"2021-11-22 07:44:50.457408","","","","","","",""
7.0,0.07132797688245773,0.001108371023020191,"train",8420.0,"2021-11-22 07:44:55.103016","","","","","","",""
7.0,0.04326716065406799,0.0011121053875521787,"train",8440.0,"2021-11-22 07:44:59.798794","","","","","","",""
7.0,0.06046956405043602,0.0011158386551268257,"train",8460.0,"2021-11-22 07:45:05.068052","","","","","","",""
7.0,0.06022283062338829,0.0011195707689489972,"train",8480.0,"2021-11-22 07:45:09.697532","","","","","","",""
7.0,0.04717328026890755,0.0011233016722411097,"train",8500.0,"2021-11-22 07:45:14.340014","","","","","","",""
7.0,0.06746741384267807,0.0011270313082439951,"train",8520.0,"2021-11-22 07:45:19.085496","","","","","","",""
7.0,0.05443277955055237,0.001130759620217767,"train",8540.0,"2021-11-22 07:45:23.880476","","","","","","",""
7.0,0.06779569387435913,0.0011344865514426794,"train",8560.0,"2021-11-22 07:45:29.183274","","","","","","",""
7.0,0.059657130390405655,0.0011382120452199938,"train",8580.0,"2021-11-22 07:45:33.884172","","","","","","",""
7.0,"","","train",8592.0,"2021-11-22 07:47:23.167396",0.5646656479662373,0.5768659599410365,0.9465964890883348,0.5578643217639314,0.43774589390543467,0.4539355139362466,0.29204009480620186
7.0,"","","val",8592.0,"2021-11-22 07:47:51.960523",0.5512582627855734,0.5484590712102093,0.939106765967581,0.5387578566163413,0.4210317070648486,0.4347891765205238,0.2755903617344496
8.0,0.03915531933307648,0.001141936044872839,"train",8600.0,"2021-11-22 07:47:56.632713","","","","","","",""
8.0,0.06680351495742798,0.0011456584937470744,"train",8620.0,"2021-11-22 07:48:01.362503","","","","","","",""
8.0,0.06097026169300079,0.0011493793352121522,"train",8640.0,"2021-11-22 07:48:06.117619","","","","","","",""
8.0,0.04844090715050697,0.0011530985126619784,"train",8660.0,"2021-11-22 07:48:11.711605","","","","","","",""
8.0,0.05833101645112038,0.001156815969515773,"train",8680.0,"2021-11-22 07:48:16.678781","","","","","","",""
8.0,0.08495129644870758,0.001160531649218934,"train",8700.0,"2021-11-22 07:48:21.640569","","","","","","",""
8.0,0.076779805123806,0.001164245495243894,"train",8720.0,"2021-11-22 07:48:26.508349","","","","","","",""
8.0,0.07600867748260498,0.0011679574510909817,"train",8740.0,"2021-11-22 07:48:31.278110","","","","","","",""
8.0,0.08314164727926254,0.0011716674602892828,"train",8760.0,"2021-11-22 07:48:36.589646","","","","","","",""
8.0,0.06616494804620743,0.0011753754663974968,"train",8780.0,"2021-11-22 07:48:41.437527","","","","","","",""
8.0,0.07342072576284409,0.0011790814130047968,"train",8800.0,"2021-11-22 07:48:46.425937","","","","","","",""
8.0,0.07491009682416916,0.001182785243731688,"train",8820.0,"2021-11-22 07:48:51.187003","","","","","","",""
8.0,0.04010172188282013,0.0011864869022308656,"train",8840.0,"2021-11-22 07:48:55.836138","","","","","","",""
8.0,0.062343526631593704,0.0011901863321880693,"train",8860.0,"2021-11-22 07:49:01.220498","","","","","","",""
8.0,0.07374914735555649,0.001193883477322945,"train",8880.0,"2021-11-22 07:49:06.003721","","","","","","",""
8.0,0.052020661532878876,0.0011975782813898961,"train",8900.0,"2021-11-22 07:49:10.798216","","","","","","",""
8.0,0.04501711577177048,0.0012012706881789417,"train",8920.0,"2021-11-22 07:49:15.633028","","","","","","",""
8.0,0.05409182235598564,0.001204960641516572,"train",8940.0,"2021-11-22 07:49:20.530509","","","","","","",""
8.0,0.046246208250522614,0.0012086480852666014,"train",8960.0,"2021-11-22 07:49:25.852709","","","","","","",""
8.0,0.07528647035360336,0.0012123329633310235,"train",8980.0,"2021-11-22 07:49:30.582729","","","","","","",""
8.0,0.07428503781557083,0.0012160152196508643,"train",9000.0,"2021-11-22 07:49:35.248395","","","","","","",""
8.0,0.06728293746709824,0.0012196947982070355,"train",9020.0,"2021-11-22 07:49:40.007286","","","","","","",""
8.0,0.06151765212416649,0.0012233716430211856,"train",9040.0,"2021-11-22 07:49:44.772826","","","","","","",""
8.0,0.05152081698179245,0.001227045698156553,"train",9060.0,"2021-11-22 07:49:50.000645","","","","","","",""
8.0,0.0481969490647316,0.0012307169077188148,"train",9080.0,"2021-11-22 07:49:54.718463","","","","","","",""
8.0,0.044283345341682434,0.0012343852158569401,"train",9100.0,"2021-11-22 07:49:59.404909","","","","","","",""
8.0,0.061102695763111115,0.0012380505667640377,"train",9120.0,"2021-11-22 07:50:04.249426","","","","","","",""
8.0,0.07554765790700912,0.0012417129046782046,"train",9140.0,"2021-11-22 07:50:08.994660","","","","","","",""
8.0,0.0473877489566803,0.0012453721738833758,"train",9160.0,"2021-11-22 07:50:14.336851","","","","","","",""
8.0,0.035614993423223495,0.001249028318710172,"train",9180.0,"2021-11-22 07:50:18.994421","","","","","","",""
8.0,0.05057401955127716,0.0012526812835367447,"train",9200.0,"2021-11-22 07:50:23.616431","","","","","","",""
8.0,0.04740983247756958,0.0012563310127896242,"train",9220.0,"2021-11-22 07:50:28.294478","","","","","","",""
8.0,0.03969649598002434,0.0012599774509445645,"train",9240.0,"2021-11-22 07:50:33.621624","","","","","","",""
8.0,0.08319054543972015,0.0012636205425273874,"train",9260.0,"2021-11-22 07:50:38.313435","","","","","","",""
8.0,0.09068788588047028,0.0012672602321148268,"train",9280.0,"2021-11-22 07:50:43.003678","","","","","","",""
8.0,0.06704463809728622,0.0012708964643353732,"train",9300.0,"2021-11-22 07:50:47.883098","","","","","","",""
8.0,0.07835382968187332,0.001274529183870114,"train",9320.0,"2021-11-22 07:50:52.795067","","","","","","",""
8.0,0.0635463297367096,0.0012781583354535748,"train",9340.0,"2021-11-22 07:50:58.247680","","","","","","",""
8.0,0.0686800628900528,0.0012817838638745646,"train",9360.0,"2021-11-22 07:51:02.938737","","","","","","",""
8.0,0.04717591777443886,0.001285405713977009,"train",9380.0,"2021-11-22 07:51:07.684085","","","","","","",""
8.0,0.06424469500780106,0.0012890238306607947,"train",9400.0,"2021-11-22 07:51:12.547825","","","","","","",""
8.0,0.061985716223716736,0.001292638158882606,"train",9420.0,"2021-11-22 07:51:17.357366","","","","","","",""
8.0,0.07106539607048035,0.0012962486436567603,"train",9440.0,"2021-11-22 07:51:22.806408","","","","","","",""
8.0,0.06022237613797188,0.0012998552300560484,"train",9460.0,"2021-11-22 07:51:27.468592","","","","","","",""
8.0,0.07361966371536255,0.0013034578632125668,"train",9480.0,"2021-11-22 07:51:32.083374","","","","","","",""
8.0,0.05118037387728691,0.0013070564883185534,"train",9500.0,"2021-11-22 07:51:36.666303","","","","","","",""
8.0,0.047752272337675095,0.001310651050627223,"train",9520.0,"2021-11-22 07:51:41.304462","","","","","","",""
8.0,0.07371299713850021,0.001314241495453598,"train",9540.0,"2021-11-22 07:51:46.676853","","","","","","",""
8.0,0.07515861093997955,0.00131782776817534,"train",9560.0,"2021-11-22 07:51:51.484202","","","","","","",""
8.0,0.07177968323230743,0.0013214098142335837,"train",9580.0,"2021-11-22 07:51:56.310157","","","","","","",""
8.0,0.06272939592599869,0.001324987579133764,"train",9600.0,"2021-11-22 07:52:00.983913","","","","","","",""
8.0,0.0476066991686821,0.0013285610084464463,"train",9620.0,"2021-11-22 07:52:05.726476","","","","","","",""
8.0,0.05721135437488556,0.001332130047808155,"train",9640.0,"2021-11-22 07:52:10.964662","","","","","","",""
8.0,0.04951959848403931,0.001335694642922199,"train",9660.0,"2021-11-22 07:52:15.821850","","","","","","",""
8.0,"","","train",9666.0,"2021-11-22 07:54:06.344689",0.5878483591646656,0.5977706261500996,0.950854888176764,0.5962904635865404,0.4665922578235802,0.49268728729093125,0.3173261998898438
8.0,"","","val",9666.0,"2021-11-22 07:54:36.171359",0.5734663110286443,0.570768818588824,0.9410587494727465,0.574601763948342,0.45222918180822325,0.4752529587938815,0.30015437908919107
9.0,0.04191364720463753,0.0013392547395594985,"train",9680.0,"2021-11-22 07:54:42.276053","","","","","","",""
9.0,0.045599315315485,0.001342810283559412,"train",9700.0,"2021-11-22 07:54:47.299058","","","","","","",""
9.0,0.0852343961596489,0.0013463612208305564,"train",9720.0,"2021-11-22 07:54:52.314895","","","","","","",""
9.0,0.04645026847720146,0.0013499074973516321,"train",9740.0,"2021-11-22 07:54:57.956416","","","","","","",""
9.0,0.07550771534442902,0.0013534490591722464,"train",9760.0,"2021-11-22 07:55:02.870897","","","","","","",""
9.0,0.053589679300785065,0.0013569858524137305,"train",9780.0,"2021-11-22 07:55:07.751682","","","","","","",""
9.0,0.03884640336036682,0.001360517823269962,"train",9800.0,"2021-11-22 07:55:12.647507","","","","","","",""
9.0,0.055860672146081924,0.0013640449180081834,"train",9820.0,"2021-11-22 07:55:17.462834","","","","","","",""
9.0,0.053800154477357864,0.0013675670829698173,"train",9840.0,"2021-11-22 07:55:22.849056","","","","","","",""
9.0,0.04203042387962341,0.0013710842645712853,"train",9860.0,"2021-11-22 07:55:27.686210","","","","","","",""
9.0,0.058039821684360504,0.0013745964093048219,"train",9880.0,"2021-11-22 07:55:32.517745","","","","","","",""
9.0,0.07029058039188385,0.0013781034637392886,"train",9900.0,"2021-11-22 07:55:37.287507","","","","","","",""
9.0,0.07565172016620636,0.0013816053745209864,"train",9920.0,"2021-11-22 07:55:41.960626","","","","","","",""
9.0,0.08268678188323975,0.0013851020883744697,"train",9940.0,"2021-11-22 07:55:47.385009","","","","","","",""
9.0,0.0545969195663929,0.001388593552103353,"train",9960.0,"2021-11-22 07:55:52.183398","","","","","","",""
9.0,0.05523175746202469,0.0013920797125911233,"train",9980.0,"2021-11-22 07:55:56.892021","","","","","","",""
9.0,0.05781815946102142,0.001395560516801947,"train",10000.0,"2021-11-22 07:56:01.617304","","","","","","",""
9.0,0.03751981258392334,0.0013990359117814774,"train",10020.0,"2021-11-22 07:56:06.410383","","","","","","",""
9.0,0.056343574076890945,0.0014025058446576583,"train",10040.0,"2021-11-22 07:56:11.768899","","","","","","",""
9.0,0.06679277122020721,0.0014059702626415317,"train",10060.0,"2021-11-22 07:56:16.637962","","","","","","",""
9.0,0.08849450945854187,0.0014094291130280377,"train",10080.0,"2021-11-22 07:56:21.625967","","","","","","",""
9.0,0.07568642497062683,0.0014128823431968183,"train",10100.0,"2021-11-22 07:56:26.327665","","","","","","",""
9.0,0.07366008311510086,0.001416329900613017,"train",10120.0,"2021-11-22 07:56:31.309652","","","","","","",""
9.0,0.06303994357585907,0.0014197717328280782,"train",10140.0,"2021-11-22 07:56:36.881027","","","","","","",""
9.0,0.07156490534543991,0.0014232077874805457,"train",10160.0,"2021-11-22 07:56:41.881041","","","","","","",""
9.0,0.06968683749437332,0.0014266380122968589,"train",10180.0,"2021-11-22 07:56:46.797791","","","","","","",""
9.0,0.07409463077783585,0.0014300623550921468,"train",10200.0,"2021-11-22 07:56:51.591038","","","","","","",""
9.0,0.058769289404153824,0.0014334807637710243,"train",10220.0,"2021-11-22 07:56:56.381904","","","","","","",""
9.0,0.04984891042113304,0.0014368931863283831,"train",10240.0,"2021-11-22 07:57:01.669883","","","","","","",""
9.0,0.0631345584988594,0.0014402995708501826,"train",10260.0,"2021-11-22 07:57:06.443938","","","","","","",""
9.0,0.046770691871643066,0.0014436998655142422,"train",10280.0,"2021-11-22 07:57:11.351257","","","","","","",""
9.0,0.07052634656429291,0.0014470940185910258,"train",10300.0,"2021-11-22 07:57:16.451882","","","","","","",""
9.0,0.0664888247847557,0.001450481978444431,"train",10320.0,"2021-11-22 07:57:21.466192","","","","","","",""
9.0,0.058807823807001114,0.0014538636935325763,"train",10340.0,"2021-11-22 07:57:26.844293","","","","","","",""
9.0,0.08121945708990097,0.0014572391124085817,"train",10360.0,"2021-11-22 07:57:31.520279","","","","","","",""
9.0,0.05584390461444855,0.0014606081837213525,"train",10380.0,"2021-11-22 07:57:36.229517","","","","","","",""
9.0,0.03800951689481735,0.0014639708562163639,"train",10400.0,"2021-11-22 07:57:40.943362","","","","","","",""
9.0,0.06256946921348572,0.001467327078736435,"train",10420.0,"2021-11-22 07:57:45.690132","","","","","","",""
9.0,0.06077689677476883,0.0014706768002225108,"train",10440.0,"2021-11-22 07:57:50.956400","","","","","","",""
9.0,0.05576296150684357,0.0014740199697144392,"train",10460.0,"2021-11-22 07:57:55.632123","","","","","","",""
9.0,0.0483832024037838,0.0014773565363517442,"train",10480.0,"2021-11-22 07:58:00.553178","","","","","","",""
9.0,0.05008918419480324,0.0014806864493744007,"train",10500.0,"2021-11-22 07:58:05.483113","","","","","","",""
9.0,0.05530625209212303,0.0014840096581236072,"train",10520.0,"2021-11-22 07:58:10.355208","","","","","","",""
9.0,0.06943906843662262,0.001487326112042556,"train",10540.0,"2021-11-22 07:58:15.886196","","","","","","",""
9.0,0.050844259560108185,0.0014906357606772013,"train",10560.0,"2021-11-22 07:58:20.569725","","","","","","",""
9.0,0.0472051240503788,0.0014939385536770291,"train",10580.0,"2021-11-22 07:58:25.223572","","","","","","",""
9.0,0.05196985974907875,0.0014972344407958218,"train",10600.0,"2021-11-22 07:58:29.894875","","","","","","",""
9.0,0.04957611858844757,0.0015005233718924213,"train",10620.0,"2021-11-22 07:58:34.589276","","","","","","",""
9.0,0.054647501558065414,0.0015038052969314946,"train",10640.0,"2021-11-22 07:58:39.875285","","","","","","",""
9.0,0.06802161782979965,0.0015070801659842939,"train",10660.0,"2021-11-22 07:58:44.671074","","","","","","",""
9.0,0.06131923571228981,0.001510347929229414,"train",10680.0,"2021-11-22 07:58:49.364191","","","","","","",""
9.0,0.051956526935100555,0.0015136085369535537,"train",10700.0,"2021-11-22 07:58:54.055942","","","","","","",""
9.0,0.04642157629132271,0.0015168619395522708,"train",10720.0,"2021-11-22 07:58:58.772953","","","","","","",""
9.0,0.05816041678190231,0.0015201080875307349,"train",10740.0,"2021-11-22 07:59:04.127721","","","","","","",""
9.0,"","","train",10740.0,"2021-11-22 08:00:53.514471",0.5935385287055228,0.6088378462818149,0.9541214530873494,0.6068919306893528,0.49086917041556316,0.5147599725335005,0.3290427730437792
9.0,"","","val",10740.0,"2021-11-22 08:01:22.355258",0.5723646062855154,0.5678945541379125,0.9431025939309688,0.5784935192460546,0.4652079656821912,0.4849602156561553,0.3014309333654171
10.0,0.07235359400510788,0.0015233469315044834,"train",10760.0,"2021-11-22 08:01:29.746958","","","","","","",""
10.0,0.04322738200426102,0.0015265784222001709,"train",10780.0,"2021-11-22 08:01:34.494860","","","","","","",""
10.0,0.0733470693230629,0.0015298025104563185,"train",10800.0,"2021-11-22 08:01:39.329387","","","","","","",""
10.0,0.06536697596311569,0.001533019147224064,"train",10820.0,"2021-11-22 08:01:44.791858","","","","","","",""
10.0,0.05145870894193649,0.0015362282835679054,"train",10840.0,"2021-11-22 08:01:49.633762","","","","","","",""
10.0,0.056179869920015335,0.0015394298706664469,"train",10860.0,"2021-11-22 08:01:54.572210","","","","","","",""
10.0,0.05729779228568077,0.001542623859813141,"train",10880.0,"2021-11-22 08:01:59.428129","","","","","","",""
10.0,0.05520513281226158,0.00154581020241703,"train",10900.0,"2021-11-22 08:02:04.255906","","","","","","",""
10.0,0.04415275529026985,0.0015489888500034858,"train",10920.0,"2021-11-22 08:02:09.581571","","","","","","",""
10.0,0.04378558695316315,0.0015521597542149444,"train",10940.0,"2021-11-22 08:02:14.317512","","","","","","",""
10.0,0.06652967631816864,0.0015553228668116455,"train",10960.0,"2021-11-22 08:02:18.972111","","","","","","",""
10.0,0.09035482257604599,0.0015584781396723642,"train",10980.0,"2021-11-22 08:02:23.772933","","","","","","",""
10.0,0.06779521703720093,0.0015616255247951432,"train",11000.0,"2021-11-22 08:02:28.611497","","","","","","",""
10.0,0.06690444052219391,0.0015647649742980233,"train",11020.0,"2021-11-22 08:02:34.244174","","","","","","",""
10.0,0.040235888212919235,0.0015678964404197727,"train",11040.0,"2021-11-22 08:02:39.371162","","","","","","",""
10.0,0.04881606251001358,0.0015710198755206112,"train",11060.0,"2021-11-22 08:02:44.294144","","","","","","",""
10.0,0.09060822427272797,0.0015741352320829379,"train",11080.0,"2021-11-22 08:02:49.128654","","","","","","",""
10.0,0.07976322621107101,0.0015772424627120527,"train",11100.0,"2021-11-22 08:02:54.008462","","","","","","",""
10.0,0.07846182584762573,0.0015803415201368761,"train",11120.0,"2021-11-22 08:02:59.451477","","","","","","",""
10.0,0.044338516891002655,0.001583432357210671,"train",11140.0,"2021-11-22 08:03:04.360428","","","","","","",""
10.0,0.05355038121342659,0.001586514926911758,"train",11160.0,"2021-11-22 08:03:09.193338","","","","","","",""
10.0,0.05054514482617378,0.0015895891823442313,"train",11180.0,"2021-11-22 08:03:14.072553","","","","","","",""
10.0,0.04829997569322586,0.0015926550767386717,"train",11200.0,"2021-11-22 08:03:18.904159","","","","","","",""
10.0,0.04958430677652359,0.0015957125634528599,"train",11220.0,"2021-11-22 08:03:24.555121","","","","","","",""
10.0,0.047422878444194794,0.0015987615959724836,"train",11240.0,"2021-11-22 08:03:29.374132","","","","","","",""
10.0,0.04572593793272972,0.0016018021279118457,"train",11260.0,"2021-11-22 08:03:34.259510","","","","","","",""
10.0,0.07850255072116852,0.0016048341130145728,"train",11280.0,"2021-11-22 08:03:39.255138","","","","","","",""
10.0,0.08773165196180344,0.0016078575051543145,"train",11300.0,"2021-11-22 08:03:43.934592","","","","","","",""
10.0,0.04755237698554993,0.0016108722583354478,"train",11320.0,"2021-11-22 08:03:49.148426","","","","","","",""
10.0,0.043769095093011856,0.0016138783266937777,"train",11340.0,"2021-11-22 08:03:53.924506","","","","","","",""
10.0,0.07524477690458298,0.0016168756644972322,"train",11360.0,"2021-11-22 08:03:58.603959","","","","","","",""
10.0,0.0799674317240715,0.0016198642261465587,"train",11380.0,"2021-11-22 08:04:03.474782","","","","","","",""
10.0,0.05955594405531883,0.0016228439661760208,"train",11400.0,"2021-11-22 08:04:08.303691","","","","","","",""
10.0,0.08862850069999695,0.001625814839254086,"train",11420.0,"2021-11-22 08:04:13.723371","","","","","","",""
10.0,0.04717274010181427,0.0016287768001841164,"train",11440.0,"2021-11-22 08:04:18.667331","","","","","","",""
10.0,0.05887869372963905,0.001631729803905059,"train",11460.0,"2021-11-22 08:04:23.571865","","","","","","",""
10.0,0.06062943488359451,0.0016346738054921273,"train",11480.0,"2021-11-22 08:04:28.395002","","","","","","",""
10.0,0.06305807828903198,0.001637608760157486,"train",11500.0,"2021-11-22 08:04:33.107898","","","","","","",""
10.0,0.06821136176586151,0.0016405346232509356,"train",11520.0,"2021-11-22 08:04:38.354291","","","","","","",""
10.0,0.04869053140282631,0.0016434513502605861,"train",11540.0,"2021-11-22 08:04:43.031519","","","","","","",""
10.0,0.04258057475090027,0.0016463588968135383,"train",11560.0,"2021-11-22 08:04:48.009889","","","","","","",""
10.0,0.03877728059887886,0.0016492572186765577,"train",11580.0,"2021-11-22 08:04:52.921823","","","","","","",""
10.0,0.051401156932115555,0.001652146271756747,"train",11600.0,"2021-11-22 08:04:57.702879","","","","","","",""
10.0,0.05189111828804016,0.0016550260121022172,"train",11620.0,"2021-11-22 08:05:02.978888","","","","","","",""
10.0,0.05569640174508095,0.0016578963959027562,"train",11640.0,"2021-11-22 08:05:07.742144","","","","","","",""
10.0,0.055689260363578796,0.001660757379490496,"train",11660.0,"2021-11-22 08:05:12.724740","","","","","","",""
10.0,0.05690734088420868,0.0016636089193405761,"train",11680.0,"2021-11-22 08:05:17.657853","","","","","","",""
10.0,0.05846086144447327,0.0016664509720718049,"train",11700.0,"2021-11-22 08:05:22.648205","","","","","","",""
10.0,0.07141220569610596,0.0016692834944473224,"train",11720.0,"2021-11-22 08:05:28.197733","","","","","","",""
10.0,0.054497141391038895,0.0016721064433752554,"train",11740.0,"2021-11-22 08:05:33.006299","","","","","","",""
10.0,0.048031218349933624,0.0016749197759093734,"train",11760.0,"2021-11-22 08:05:37.794703","","","","","","",""
10.0,0.07191330939531326,0.0016777234492497436,"train",11780.0,"2021-11-22 08:05:42.679041","","","","","","",""
10.0,0.06485345214605331,0.0016805174207433808,"train",11800.0,"2021-11-22 08:05:47.509555","","","","","","",""
10.0,"","","train",11814.0,"2021-11-22 08:07:39.749713",0.5955904824274176,0.6152001006945336,0.9535388981387096,0.6051010580487777,0.5217087080071167,0.5437796580518964,0.34915953350417767
10.0,"","","val",11814.0,"2021-11-22 08:08:08.482409",0.5773512698596776,0.5753156608916572,0.9417372349676268,0.5799635507595415,0.49416660098980214,0.5131133893005548,0.32182412491488943
11.0,0.05495721846818924,0.0016833016478848956,"train",11820.0,"2021-11-22 08:08:12.534917","","","","","","",""
11.0,0.0765705332159996,0.0016860760883171426,"train",11840.0,"2021-11-22 08:08:17.445872","","","","","","",""
11.0,0.06110434979200363,0.001688840699831864,"train",11860.0,"2021-11-22 08:08:22.205940","","","","","","",""
11.0,0.057054776698350906,0.0016915954403703313,"train",11880.0,"2021-11-22 08:08:27.007792","","","","","","",""
11.0,0.05758782848715782,0.0016943402680239862,"train",11900.0,"2021-11-22 08:08:31.818957","","","","","","",""
11.0,0.04585393890738487,0.0016970751410350774,"train",11920.0,"2021-11-22 08:08:37.547572","","","","","","",""
11.0,0.05450344458222389,0.001699800017797296,"train",11940.0,"2021-11-22 08:08:42.634137","","","","","","",""
11.0,0.05045052990317345,0.0017025148568564086,"train",11960.0,"2021-11-22 08:08:47.594092","","","","","","",""
11.0,0.06991305202245712,0.001705219616910888,"train",11980.0,"2021-11-22 08:08:52.398688","","","","","","",""
11.0,0.060565441846847534,0.001707914256812541,"train",12000.0,"2021-11-22 08:08:57.359919","","","","","","",""
11.0,0.07229850441217422,0.0017105987355671352,"train",12020.0,"2021-11-22 08:09:03.259706","","","","","","",""
11.0,0.07167468219995499,0.0017132730123350227,"train",12040.0,"2021-11-22 08:09:08.314175","","","","","","",""
11.0,0.048322129994630814,0.00171593704643176,"train",12060.0,"2021-11-22 08:09:13.298112","","","","","","",""
11.0,0.031021462753415108,0.0017185907973287285,"train",12080.0,"2021-11-22 08:09:18.228017","","","","","","",""
11.0,0.04173354059457779,0.0017212342246537506,"train",12100.0,"2021-11-22 08:09:23.176164","","","","","","",""
11.0,0.05639542266726494,0.0017238672881917032,"train",12120.0,"2021-11-22 08:09:28.865392","","","","","","",""
11.0,0.03761160373687744,0.001726489947885131,"train",12140.0,"2021-11-22 08:09:33.746084","","","","","","",""
11.0,0.03894489258527756,0.0017291021638348543,"train",12160.0,"2021-11-22 08:09:38.609419","","","","","","",""
11.0,0.05962581932544708,0.0017317038963005765,"train",12180.0,"2021-11-22 08:09:43.641163","","","","","","",""
11.0,0.057758234441280365,0.00173429510570149,"train",12200.0,"2021-11-22 08:09:48.694361","","","","","","",""
11.0,0.0462578609585762,0.0017368757526168759,"train",12220.0,"2021-11-22 08:09:54.404117","","","","","","",""
11.0,0.04893435165286064,0.0017394457977867057,"train",12240.0,"2021-11-22 08:09:59.357437","","","","","","",""
11.0,0.06636053323745728,0.0017420052021122378,"train",12260.0,"2021-11-22 08:10:04.347803","","","","","","",""
11.0,0.06693501770496368,0.0017445539266566128,"train",12280.0,"2021-11-22 08:10:09.314959","","","","","","",""
11.0,0.05565671995282173,0.001747091932645445,"train",12300.0,"2021-11-22 08:10:14.119166","","","","","","",""
11.0,0.06484336405992508,0.0017496191814674125,"train",12320.0,"2021-11-22 08:10:19.958193","","","","","","",""
11.0,0.05478811636567116,0.001752135634674846,"train",12340.0,"2021-11-22 08:10:24.996688","","","","","","",""
11.0,0.060493286699056625,0.0017546412539843118,"train",12360.0,"2021-11-22 08:10:29.926178","","","","","","",""
11.0,0.042922236025333405,0.001757136001277194,"train",12380.0,"2021-11-22 08:10:34.968661","","","","","","",""
11.0,0.05251256003975868,0.001759619838600278,"train",12400.0,"2021-11-22 08:10:39.920918","","","","","","",""
11.0,0.07215782254934311,0.0017620927281663229,"train",12420.0,"2021-11-22 08:10:45.574681","","","","","","",""
11.0,0.04492494463920593,0.0017645546323546398,"train",12440.0,"2021-11-22 08:10:50.562678","","","","","","",""
11.0,0.06649403274059296,0.0017670055137116636,"train",12460.0,"2021-11-22 08:10:55.648097","","","","","","",""
11.0,0.05494164675474167,0.0017694453349515209,"train",12480.0,"2021-11-22 08:11:00.782941","","","","","","",""
11.0,0.05070597305893898,0.0017718740589566,"train",12500.0,"2021-11-22 08:11:05.803370","","","","","","",""
11.0,0.0765257328748703,0.0017742916487781134,"train",12520.0,"2021-11-22 08:11:11.437815","","","","","","",""
11.0,0.0373038612306118,0.0017766980676366608,"train",12540.0,"2021-11-22 08:11:16.517097","","","","","","",""
11.0,0.05661469325423241,0.001779093278922789,"train",12560.0,"2021-11-22 08:11:21.519254","","","","","","",""
11.0,0.03666101023554802,0.001781477246197548,"train",12580.0,"2021-11-22 08:11:26.585428","","","","","","",""
11.0,0.06568578630685806,0.0017838499331930462,"train",12600.0,"2021-11-22 08:11:31.763303","","","","","","",""
11.0,0.04449725151062012,0.001786211303813001,"train",12620.0,"2021-11-22 08:11:37.642891","","","","","","",""
11.0,0.05395490676164627,0.0017885613221332894,"train",12640.0,"2021-11-22 08:11:42.667616","","","","","","",""
11.0,0.0405559204518795,0.0017908999524024931,"train",12660.0,"2021-11-22 08:11:47.780222","","","","","","",""
11.0,0.07990691810846329,0.0017932271590424438,"train",12680.0,"2021-11-22 08:11:52.744755","","","","","","",""
11.0,0.04416367784142494,0.0017955429066487635,"train",12700.0,"2021-11-22 08:11:57.569330","","","","","","",""
11.0,0.05496698245406151,0.0017978471599914025,"train",12720.0,"2021-11-22 08:12:03.353987","","","","","","",""
11.0,0.04345158487558365,0.0018001398840151778,"train",12740.0,"2021-11-22 08:12:08.217680","","","","","","",""
11.0,0.05279626324772835,0.0018024210438403031,"train",12760.0,"2021-11-22 08:12:13.017421","","","","","","",""
11.0,0.04900193214416504,0.0018046906047629228,"train",12780.0,"2021-11-22 08:12:17.950431","","","","","","",""
11.0,0.052409980446100235,0.0018069485322556372,"train",12800.0,"2021-11-22 08:12:23.805883","","","","","","",""
11.0,0.0547613799571991,0.001809194791968029,"train",12820.0,"2021-11-22 08:12:28.852746","","","","","","",""
11.0,0.05752016231417656,0.0018114293497271863,"train",12840.0,"2021-11-22 08:12:33.832552","","","","","","",""
11.0,0.06639759242534637,0.0018136521715382218,"train",12860.0,"2021-11-22 08:12:38.835845","","","","","","",""
11.0,0.04139018803834915,0.0018158632235847892,"train",12880.0,"2021-11-22 08:12:43.625250","","","","","","",""
11.0,"","","train",12888.0,"2021-11-22 08:14:33.470254",0.6036236629556865,0.6309912492017969,0.957974141254176,0.6027899446491727,0.49671355877599754,0.523078492909314,0.34066703663711784
11.0,"","","val",12888.0,"2021-11-22 08:15:02.528878",0.5790908036646178,0.5932760173611457,0.9488062799662464,0.5709708098041585,0.4682039344826498,0.49279913417822485,0.311074112084511
12.0,0.06762788444757462,0.0018180624722295999,"train",12900.0,"2021-11-22 08:15:09.183400","","","","","","",""
12.0,0.0467291958630085,0.001820249884014933,"train",12920.0,"2021-11-22 08:15:14.232514","","","","","","",""
12.0,0.06532464176416397,0.001822425425663144,"train",12940.0,"2021-11-22 08:15:19.256581","","","","","","",""
12.0,0.061036065220832825,0.0018245890640771725,"train",12960.0,"2021-11-22 08:15:24.292838","","","","","","",""
12.0,0.04636997729539871,0.0018267407663410452,"train",12980.0,"2021-11-22 08:15:29.274754","","","","","","",""
12.0,0.05581987276673317,0.0018288804997203755,"train",13000.0,"2021-11-22 08:15:34.952337","","","","","","",""
12.0,0.06961438804864883,0.0018310082316628634,"train",13020.0,"2021-11-22 08:15:40.032539","","","","","","",""
12.0,0.08588448166847229,0.0018331239297987893,"train",13040.0,"2021-11-22 08:15:45.009124","","","","","","",""
12.0,0.06303829699754715,0.0018352275619415066,"train",13060.0,"2021-11-22 08:15:49.888682","","","","","","",""
12.0,0.09677407890558243,0.0018373190960879326,"train",13080.0,"2021-11-22 08:15:54.774049","","","","","","",""
12.0,0.04212278127670288,0.0018393985004190336,"train",13100.0,"2021-11-22 08:16:00.556140","","","","","","",""
12.0,0.037753213196992874,0.00184146574330031,"train",13120.0,"2021-11-22 08:16:05.764300","","","","","","",""
12.0,0.04377729818224907,0.001843520793282278,"train",13140.0,"2021-11-22 08:16:10.921163","","","","","","",""
12.0,0.0762021541595459,0.0018455636191009464,"train",13160.0,"2021-11-22 08:16:15.983734","","","","","","",""
12.0,0.04304984211921692,0.001847594189678294,"train",13180.0,"2021-11-22 08:16:21.107777","","","","","","",""
12.0,0.05876387283205986,0.0018496124741227415,"train",13200.0,"2021-11-22 08:16:26.819733","","","","","","",""
12.0,0.04788009077310562,0.001851618441729622,"train",13220.0,"2021-11-22 08:16:31.863076","","","","","","",""
12.0,0.05112144723534584,0.0018536120619816467,"train",13240.0,"2021-11-22 08:16:36.820588","","","","","","",""
12.0,0.03515445813536644,0.0018555933045493712,"train",13260.0,"2021-11-22 08:16:41.788114","","","","","","",""
12.0,0.04824249446392059,0.0018575621392916554,"train",13280.0,"2021-11-22 08:16:46.583613","","","","","","",""
12.0,0.040980543941259384,0.0018595185362561225,"train",13300.0,"2021-11-22 08:16:52.364240","","","","","","",""
12.0,0.05753394588828087,0.0018614624656796155,"train",13320.0,"2021-11-22 08:16:57.466367","","","","","","",""
12.0,0.04148342087864876,0.0018633938979886484,"train",13340.0,"2021-11-22 08:17:02.219884","","","","","","",""
12.0,0.040801115334033966,0.0018653128037998568,"train",13360.0,"2021-11-22 08:17:06.995837","","","","","","",""
12.0,0.07912397384643555,0.0018672191539204459,"train",13380.0,"2021-11-22 08:17:11.743015","","","","","","",""
12.0,0.05854373797774315,0.0018691129193486335,"train",13400.0,"2021-11-22 08:17:17.233669","","","","","","",""
12.0,0.04946219176054001,0.0018709940712740908,"train",13420.0,"2021-11-22 08:17:22.154911","","","","","","",""
12.0,0.07980918884277344,0.0018728625810783823,"train",13440.0,"2021-11-22 08:17:27.050725","","","","","","",""
12.0,0.058427441865205765,0.0018747184203353996,"train",13460.0,"2021-11-22 08:17:31.924952","","","","","","",""
12.0,0.038577787578105927,0.0018765615608117947,"train",13480.0,"2021-11-22 08:17:36.777244","","","","","","",""
12.0,0.04864801466464996,0.0018783919744674096,"train",13500.0,"2021-11-22 08:17:42.249739","","","","","","",""
12.0,0.06253717094659805,0.0018802096334557027,"train",13520.0,"2021-11-22 08:17:46.997053","","","","","","",""
12.0,0.04404009133577347,0.0018820145101241712,"train",13540.0,"2021-11-22 08:17:51.935368","","","","","","",""
12.0,0.04233366996049881,0.0018838065770147745,"train",13560.0,"2021-11-22 08:17:56.820550","","","","","","",""
12.0,0.06283028423786163,0.0018855858068643496,"train",13580.0,"2021-11-22 08:18:01.526520","","","","","","",""
12.0,0.06268663704395294,0.001887352172605026,"train",13600.0,"2021-11-22 08:18:07.014240","","","","","","",""
12.0,0.0642455592751503,0.0018891056473646398,"train",13620.0,"2021-11-22 08:18:12.024340","","","","","","",""
12.0,0.053835127502679825,0.0018908462044671395,"train",13640.0,"2021-11-22 08:18:16.832476","","","","","","",""
12.0,0.04784548282623291,0.001892573817432993,"train",13660.0,"2021-11-22 08:18:21.515508","","","","","","",""
12.0,0.05372391641139984,0.0018942884599795914,"train",13680.0,"2021-11-22 08:18:26.225463","","","","","","",""
12.0,0.04978641867637634,0.001895990106021648,"train",13700.0,"2021-11-22 08:18:31.681643","","","","","","",""
12.0,0.04873398318886757,0.0018976787296715943,"train",13720.0,"2021-11-22 08:18:36.386547","","","","","","",""
12.0,0.04615524411201477,0.0018993543052399757,"train",13740.0,"2021-11-22 08:18:41.086926","","","","","","",""
12.0,0.052014920860528946,0.0019010168072358413,"train",13760.0,"2021-11-22 08:18:45.808303","","","","","","",""
12.0,0.07422380894422531,0.0019026662103671305,"train",13780.0,"2021-11-22 08:18:50.535356","","","","","","",""
12.0,0.07359705120325089,0.0019043024895410605,"train",13800.0,"2021-11-22 08:18:56.020818","","","","","","",""
12.0,0.06555420905351639,0.001905925619864506,"train",13820.0,"2021-11-22 08:19:00.806207","","","","","","",""
12.0,0.07224491983652115,0.001907535576644378,"train",13840.0,"2021-11-22 08:19:05.743175","","","","","","",""
12.0,0.048596665263175964,0.0019091323353880008,"train",13860.0,"2021-11-22 08:19:10.475876","","","","","","",""
12.0,0.04563175514340401,0.0019107158718034828,"train",13880.0,"2021-11-22 08:19:15.084132","","","","","","",""
12.0,0.03432202339172363,0.001912286161800088,"train",13900.0,"2021-11-22 08:19:20.548152","","","","","","",""
12.0,0.07412710040807724,0.0019138431814886008,"train",13920.0,"2021-11-22 08:19:25.471292","","","","","","",""
12.0,0.06739281117916107,0.0019153869071816896,"train",13940.0,"2021-11-22 08:19:30.166648","","","","","","",""
12.0,0.039081063121557236,0.0019169173153942693,"train",13960.0,"2021-11-22 08:19:34.900100","","","","","","",""
12.0,"","","train",13962.0,"2021-11-22 08:21:25.256475",0.6067816342865459,0.636108339061972,0.9587827037904009,0.6269833685811799,0.5099677711038506,0.5323241227833745,0.3478406612623302
12.0,"","","val",13962.0,"2021-11-22 08:21:53.952833",0.5894700220340948,0.5941042245048151,0.9483065089414908,0.600706094265388,0.48036512343798005,0.5015087139581146,0.3177560754580426
13.0,0.052952222526073456,0.0019184343828438557,"train",13980.0,"2021-11-22 08:22:01.081561","","","","","","",""
13.0,0.03855074569582939,0.0019199380864509208,"train",14000.0,"2021-11-22 08:22:06.820520","","","","","","",""
13.0,0.04861532524228096,0.0019214284033392457,"train",14020.0,"2021-11-22 08:22:11.720672","","","","","","",""
13.0,0.0589447095990181,0.0019229053108362649,"train",14040.0,"2021-11-22 08:22:16.520850","","","","","","",""
13.0,0.06238862872123718,0.0019243687864734145,"train",14060.0,"2021-11-22 08:22:21.451554","","","","","","",""
13.0,0.07566589117050171,0.0019258188079864732,"train",14080.0,"2021-11-22 08:22:26.257943","","","","","","",""
13.0,0.053977835923433304,0.0019272553533158999,"train",14100.0,"2021-11-22 08:22:31.588857","","","","","","",""
13.0,0.06977555900812149,0.0019286784006071697,"train",14120.0,"2021-11-22 08:22:36.249876","","","","","","",""
13.0,0.058082569390535355,0.0019300879282111083,"train",14140.0,"2021-11-22 08:22:40.779403","","","","","","",""
13.0,0.0476020947098732,0.0019314839146842185,"train",14160.0,"2021-11-22 08:22:45.483453","","","","","","",""
13.0,0.03658430650830269,0.0019328663387890076,"train",14180.0,"2021-11-22 08:22:50.363656","","","","","","",""
13.0,0.04441079869866371,0.0019342351794943119,"train",14200.0,"2021-11-22 08:22:55.771014","","","","","","",""
13.0,0.04322359338402748,0.0019355904159756138,"train",14220.0,"2021-11-22 08:23:00.907262","","","","","","",""
13.0,0.0823732540011406,0.0019369320276153613,"train",14240.0,"2021-11-22 08:23:05.827119","","","","","","",""
13.0,0.044399142265319824,0.00193825999400328,"train",14260.0,"2021-11-22 08:23:10.736871","","","","","","",""
13.0,0.06901643425226212,0.0019395742949366843,"train",14280.0,"2021-11-22 08:23:15.541066","","","","","","",""
13.0,0.06525329500436783,0.0019408749104207845,"train",14300.0,"2021-11-22 08:23:21.003579","","","","","","",""
13.0,0.061764784157276154,0.0019421618206689913,"train",14320.0,"2021-11-22 08:23:25.708720","","","","","","",""
13.0,0.05601273477077484,0.0019434350061032163,"train",14340.0,"2021-11-22 08:23:30.306749","","","","","","",""
13.0,0.05346709117293358,0.0019446944473541703,"train",14360.0,"2021-11-22 08:23:34.893618","","","","","","",""
13.0,0.056784696877002716,0.0019459401252616573,"train",14380.0,"2021-11-22 08:23:39.519393","","","","","","",""
13.0,0.08365759998559952,0.001947172020874868,"train",14400.0,"2021-11-22 08:23:44.637112","","","","","","",""
13.0,0.06606925278902054,0.0019483901154526647,"train",14420.0,"2021-11-22 08:23:49.187926","","","","","","",""
13.0,0.038744304329156876,0.0019495943904638694,"train",14440.0,"2021-11-22 08:23:53.829240","","","","","","",""
13.0,0.08412303030490875,0.0019507848275875444,"train",14460.0,"2021-11-22 08:23:58.642317","","","","","","",""
13.0,0.04389219358563423,0.0019519614087132712,"train",14480.0,"2021-11-22 08:24:03.422265","","","","","","",""
13.0,0.04648376628756523,0.0019531241159414263,"train",14500.0,"2021-11-22 08:24:08.824740","","","","","","",""
13.0,0.04195979982614517,0.001954272931583453,"train",14520.0,"2021-11-22 08:24:13.545461","","","","","","",""
13.0,0.051002830266952515,0.0019554078381621306,"train",14540.0,"2021-11-22 08:24:18.255264","","","","","","",""
13.0,0.04712699353694916,0.0019565288184118417,"train",14560.0,"2021-11-22 08:24:23.088499","","","","","","",""
13.0,0.04692472890019417,0.0019576358552788314,"train",14580.0,"2021-11-22 08:24:28.375179","","","","","","",""
13.0,0.07684934139251709,0.0019587289319214713,"train",14600.0,"2021-11-22 08:24:33.124958","","","","","","",""
13.0,0.051984384655952454,0.0019598080317105113,"train",14620.0,"2021-11-22 08:24:37.807286","","","","","","",""
13.0,0.07663998752832413,0.001960873138229337,"train",14640.0,"2021-11-22 08:24:42.429597","","","","","","",""
13.0,0.036864329129457474,0.0019619242352742153,"train",14660.0,"2021-11-22 08:24:47.037275","","","","","","",""
13.0,0.0572386160492897,0.001962961306854543,"train",14680.0,"2021-11-22 08:24:52.238761","","","","","","",""
13.0,0.05065291002392769,0.0019639843371930905,"train",14700.0,"2021-11-22 08:24:56.957472","","","","","","",""
13.0,0.05030536279082298,0.001964993310726241,"train",14720.0,"2021-11-22 08:25:01.796341","","","","","","",""
13.0,0.04032319411635399,0.0019659882121042262,"train",14740.0,"2021-11-22 08:25:06.610096","","","","","","",""
13.0,0.039959121495485306,0.001966969026191363,"train",14760.0,"2021-11-22 08:25:11.253155","","","","","","",""
13.0,0.0460001602768898,0.0019679357380662805,"train",14780.0,"2021-11-22 08:25:16.653233","","","","","","",""
13.0,0.04619317874312401,0.001968888333022148,"train",14800.0,"2021-11-22 08:25:21.596475","","","","","","",""
13.0,0.051223017275333405,0.0019698267965669,"train",14820.0,"2021-11-22 08:25:26.284729","","","","","","",""
13.0,0.04769475385546684,0.0019707511144234557,"train",14840.0,"2021-11-22 08:25:30.940268","","","","","","",""
13.0,0.039738692343235016,0.001971661272529935,"train",14860.0,"2021-11-22 08:25:35.611153","","","","","","",""
13.0,0.04695279896259308,0.001972557257039875,"train",14880.0,"2021-11-22 08:25:41.105606","","","","","","",""
13.0,0.0432809442281723,0.0019734390543224385,"train",14900.0,"2021-11-22 08:25:45.736050","","","","","","",""
13.0,0.06896448135375977,0.001974306650962622,"train",14920.0,"2021-11-22 08:25:50.363384","","","","","","",""
13.0,0.07534153759479523,0.0019751600337614608,"train",14940.0,"2021-11-22 08:25:54.943527","","","","","","",""
13.0,0.05174659192562103,0.0019759991897362284,"train",14960.0,"2021-11-22 08:25:59.564196","","","","","","",""
13.0,0.05534886568784714,0.0019768241061206343,"train",14980.0,"2021-11-22 08:26:04.731734","","","","","","",""
13.0,0.048366740345954895,0.0019776347703650186,"train",15000.0,"2021-11-22 08:26:09.435593","","","","","","",""
13.0,0.0458599291741848,0.001978431170136543,"train",15020.0,"2021-11-22 08:26:14.247469","","","","","","",""
13.0,"","","train",15036.0,"2021-11-22 08:28:06.860730",0.6148293676780907,0.645719939026168,0.9614367940478169,0.6244248428709298,0.5243390320149459,0.5455142952808363,0.36006617886503695
13.0,"","","val",15036.0,"2021-11-22 08:28:35.617113",0.592311260582164,0.5934889711016832,0.9503450448737387,0.5946888888728954,0.49423382522803233,0.5086701340333636,0.32650693114707074
14.0,0.03284118324518204,0.0019792132933193784,"train",15040.0,"2021-11-22 08:28:39.267908","","","","","","",""
14.0,0.039958834648132324,0.001979981128014888,"train",15060.0,"2021-11-22 08:28:44.207063","","","","","","",""
14.0,0.06305882334709167,0.001980734662541811,"train",15080.0,"2021-11-22 08:28:49.787458","","","","","","",""
14.0,0.05757671222090721,0.0019814738854364374,"train",15100.0,"2021-11-22 08:28:54.613381","","","","","","",""
14.0,0.05367373302578926,0.0019821987854527832,"train",15120.0,"2021-11-22 08:28:59.291065","","","","","","",""
14.0,0.04661615565419197,0.0019829093515627634,"train",15140.0,"2021-11-22 08:29:03.943902","","","","","","",""
14.0,0.07147703319787979,0.001983605572956358,"train",15160.0,"2021-11-22 08:29:08.593573","","","","","","",""
14.0,0.043465789407491684,0.001984287439041775,"train",15180.0,"2021-11-22 08:29:13.840217","","","","","","",""
14.0,0.053824443370103836,0.001984954939445616,"train",15200.0,"2021-11-22 08:29:18.477114","","","","","","",""
14.0,0.053923141211271286,0.0019856080640130295,"train",15220.0,"2021-11-22 08:29:23.189182","","","","","","",""
14.0,0.0788177102804184,0.0019862468028078676,"train",15240.0,"2021-11-22 08:29:27.906672","","","","","","",""
14.0,0.06929530203342438,0.001986871146112837,"train",15260.0,"2021-11-22 08:29:32.635280","","","","","","",""
14.0,0.03475760295987129,0.0019874810844296466,"train",15280.0,"2021-11-22 08:29:37.938251","","","","","","",""
14.0,0.07638203352689743,0.0019880766084791517,"train",15300.0,"2021-11-22 08:29:42.618834","","","","","","",""
14.0,0.039562445133924484,0.0019886577092014953,"train",15320.0,"2021-11-22 08:29:47.325128","","","","","","",""
14.0,0.05603962019085884,0.001989224377756247,"train",15340.0,"2021-11-22 08:29:51.957150","","","","","","",""
14.0,0.054317109286785126,0.0019897766055225353,"train",15360.0,"2021-11-22 08:29:56.598161","","","","","","",""
14.0,0.07463385909795761,0.0019903143840991813,"train",15380.0,"2021-11-22 08:30:02.076144","","","","","","",""
14.0,0.04314541071653366,0.0019908377053048246,"train",15400.0,"2021-11-22 08:30:06.965842","","","","","","",""
14.0,0.08276468515396118,0.001991346561178048,"train",15420.0,"2021-11-22 08:30:11.596459","","","","","","",""
14.0,0.04967329651117325,0.0019918409439775003,"train",15440.0,"2021-11-22 08:30:16.266498","","","","","","",""
14.0,0.0516444556415081,0.0019923208461820117,"train",15460.0,"2021-11-22 08:30:20.937154","","","","","","",""
14.0,0.044780392199754715,0.001992786260490709,"train",15480.0,"2021-11-22 08:30:26.181173","","","","","","",""
14.0,0.044835980981588364,0.0019932371798231287,"train",15500.0,"2021-11-22 08:30:30.944520","","","","","","",""
14.0,0.05896461755037308,0.0019936735973193212,"train",15520.0,"2021-11-22 08:30:35.601010","","","","","","",""
14.0,0.06550461053848267,0.001994095506339958,"train",15540.0,"2021-11-22 08:30:40.252203","","","","","","",""
14.0,0.07415754348039627,0.001994502900466431,"train",15560.0,"2021-11-22 08:30:44.924890","","","","","","",""
14.0,0.06001076474785805,0.0019948957735009517,"train",15580.0,"2021-11-22 08:30:50.152820","","","","","","",""
14.0,0.049852143973112106,0.0019952741194666436,"train",15600.0,"2021-11-22 08:30:54.809164","","","","","","",""
14.0,0.05910784751176834,0.0019956379326076354,"train",15620.0,"2021-11-22 08:30:59.473111","","","","","","",""
14.0,0.0619174987077713,0.001995987207389146,"train",15640.0,"2021-11-22 08:31:04.117994","","","","","","",""
14.0,0.04613422602415085,0.0019963219384975706,"train",15660.0,"2021-11-22 08:31:08.785753","","","","","","",""
14.0,0.06003323942422867,0.001996642120840561,"train",15680.0,"2021-11-22 08:31:14.381342","","","","","","",""
14.0,0.05825246497988701,0.001996947749547103,"train",15700.0,"2021-11-22 08:31:19.417028","","","","","","",""
14.0,0.05914480984210968,0.0019972388199675905,"train",15720.0,"2021-11-22 08:31:24.124318","","","","","","",""
14.0,0.038988564163446426,0.001997515327673896,"train",15740.0,"2021-11-22 08:31:28.767727","","","","","","",""
14.0,0.06865895539522171,0.0019977772684594388,"train",15760.0,"2021-11-22 08:31:33.409723","","","","","","",""
14.0,0.0818229466676712,0.0019980246383392475,"train",15780.0,"2021-11-22 08:31:38.622468","","","","","","",""
14.0,0.033049341291189194,0.0019982574335500225,"train",15800.0,"2021-11-22 08:31:43.431491","","","","","","",""
14.0,0.05058889091014862,0.001998475650550192,"train",15820.0,"2021-11-22 08:31:48.147751","","","","","","",""
14.0,0.0845143124461174,0.0019986792860199657,"train",15840.0,"2021-11-22 08:31:52.801849","","","","","","",""
14.0,0.060767900198698044,0.001998868336861386,"train",15860.0,"2021-11-22 08:31:57.436728","","","","","","",""
14.0,0.054030489176511765,0.001999042800198376,"train",15880.0,"2021-11-22 08:32:02.878683","","","","","","",""
14.0,0.044757403433322906,0.00199920267337678,"train",15900.0,"2021-11-22 08:32:07.797110","","","","","","",""
14.0,0.08473149687051773,0.0019993479539644077,"train",15920.0,"2021-11-22 08:32:12.908130","","","","","","",""
14.0,0.08001875132322311,0.0019994786397510697,"train",15940.0,"2021-11-22 08:32:17.791091","","","","","","",""
14.0,0.055727891623973846,0.0019995947287486096,"train",15960.0,"2021-11-22 08:32:22.636286","","","","","","",""
14.0,0.045291967689991,0.0019996962191909367,"train",15980.0,"2021-11-22 08:32:28.009221","","","","","","",""
14.0,0.053461164236068726,0.0019997831095340513,"train",16000.0,"2021-11-22 08:32:32.807612","","","","","","",""
14.0,0.06760106235742569,0.001999855398456069,"train",16020.0,"2021-11-22 08:32:37.663833","","","","","","",""
14.0,0.04987256973981857,0.00199991308485724,"train",16040.0,"2021-11-22 08:32:42.449616","","","","","","",""
14.0,0.057864777743816376,0.001999956167859967,"train",16060.0,"2021-11-22 08:32:47.089960","","","","","","",""
14.0,0.04036884382367134,0.0019999846468088172,"train",16080.0,"2021-11-22 08:32:52.293419","","","","","","",""
14.0,0.03307141736149788,0.0019999985212705335,"train",16100.0,"2021-11-22 08:32:56.906288","","","","","","",""
14.0,"","","train",16110.0,"2021-11-22 08:34:47.877012",0.623895801498945,0.6628485094003843,0.9652611737676801,0.6459742608299537,0.5507466101554853,0.5808099257522122,0.3793925694068824
14.0,"","","val",16110.0,"2021-11-22 08:35:18.318388",0.600892960686536,0.6077548276048013,0.9547969632304079,0.6125033264153789,0.519046903985468,0.5460779757319276,0.34561466071472907
15.0,0.06766483187675476,0.0019999995774202316,"train",16120.0,"2021-11-22 08:35:23.516220","","","","","","",""
15.0,0.06336041539907455,0.0019999966438102564,"train",16140.0,"2021-11-22 08:35:28.319965","","","","","","",""
15.0,0.07804465293884277,0.0019999909162942875,"train",16160.0,"2021-11-22 08:35:32.989853","","","","","","",""
15.0,0.06830859184265137,0.001999982394888327,"train",16180.0,"2021-11-22 08:35:38.470507","","","","","","",""
15.0,0.050365202128887177,0.0019999710796161823,"train",16200.0,"2021-11-22 08:35:43.120583","","","","","","",""
15.0,0.07887676358222961,0.0019999569705094686,"train",16220.0,"2021-11-22 08:35:47.762024","","","","","","",""
15.0,0.05660047009587288,0.001999940067607605,"train",16240.0,"2021-11-22 08:35:52.408794","","","","","","",""
15.0,0.08037290722131729,0.001999920370957817,"train",16260.0,"2021-11-22 08:35:57.856369","","","","","","",""
15.0,0.08738996833562851,0.0019998978806151355,"train",16280.0,"2021-11-22 08:36:02.569690","","","","","","",""
15.0,0.044726934283971786,0.0019998725966423976,"train",16300.0,"2021-11-22 08:36:07.454250","","","","","","",""
15.0,0.07338831573724747,0.001999844519110244,"train",16320.0,"2021-11-22 08:36:12.352634","","","","","","",""
15.0,0.04909825325012207,0.001999813648097122,"train",16340.0,"2021-11-22 08:36:17.243800","","","","","","",""
15.0,0.05005523934960365,0.001999779983689282,"train",16360.0,"2021-11-22 08:36:22.110823","","","","","","",""
15.0,0.03794868662953377,0.0019997435259807806,"train",16380.0,"2021-11-22 08:36:27.715790","","","","","","",""
15.0,0.0378485843539238,0.001999704275073478,"train",16400.0,"2021-11-22 08:36:32.629184","","","","","","",""
15.0,0.060301654040813446,0.0019996622310770383,"train",16420.0,"2021-11-22 08:36:37.238768","","","","","","",""
15.0,0.04778476059436798,0.0019996173941089286,"train",16440.0,"2021-11-22 08:36:42.083355","","","","","","",""
15.0,0.07418297976255417,0.0019995697642944212,"train",16460.0,"2021-11-22 08:36:47.695282","","","","","","",""
15.0,0.03801608085632324,0.0019995193417665894,"train",16480.0,"2021-11-22 08:36:52.538562","","","","","","",""
15.0,0.05840236693620682,0.0019994661266663108,"train",16500.0,"2021-11-22 08:36:57.410606","","","","","","",""
15.0,0.0468570850789547,0.001999410119142264,"train",16520.0,"2021-11-22 08:37:02.287168","","","","","","",""
15.0,0.08434223383665085,0.0019993513193509297,"train",16540.0,"2021-11-22 08:37:07.035797","","","","","","",""
15.0,0.03906926140189171,0.0019992897274565906,"train",16560.0,"2021-11-22 08:37:12.663090","","","","","","",""
15.0,0.060601867735385895,0.0019992253436313303,"train",16580.0,"2021-11-22 08:37:17.503107","","","","","","",""
15.0,0.060901056975126266,0.0019991581680550313,"train",16600.0,"2021-11-22 08:37:22.293941","","","","","","",""
15.0,0.05085276812314987,0.0019990882009153785,"train",16620.0,"2021-11-22 08:37:27.022995","","","","","","",""
15.0,0.037488583475351334,0.001999015442407854,"train",16640.0,"2021-11-22 08:37:31.686046","","","","","","",""
15.0,0.07224762439727783,0.0019989398927357403,"train",16660.0,"2021-11-22 08:37:37.296075","","","","","","",""
15.0,0.07265134900808334,0.0019988615521101174,"train",16680.0,"2021-11-22 08:37:42.205026","","","","","","",""
15.0,0.056656211614608765,0.0019987804207498637,"train",16700.0,"2021-11-22 08:37:46.855724","","","","","","",""
15.0,0.03616095334291458,0.0019986964988816533,"train",16720.0,"2021-11-22 08:37:51.479197","","","","","","",""
15.0,0.05092586576938629,0.0019986097867399585,"train",16740.0,"2021-11-22 08:37:56.140886","","","","","","",""
15.0,0.061973754316568375,0.0019985202845670463,"train",16760.0,"2021-11-22 08:38:01.580540","","","","","","",""
15.0,0.04230999946594238,0.0019984279926129798,"train",16780.0,"2021-11-22 08:38:06.253962","","","","","","",""
15.0,0.041050177067518234,0.001998332911135615,"train",16800.0,"2021-11-22 08:38:10.876480","","","","","","",""
15.0,0.04492989555001259,0.0019982350404006036,"train",16820.0,"2021-11-22 08:38:15.490664","","","","","","",""
15.0,0.04411034658551216,0.0019981343806813883,"train",16840.0,"2021-11-22 08:38:20.160247","","","","","","",""
15.0,0.07240329682826996,0.001998030932259205,"train",16860.0,"2021-11-22 08:38:25.651465","","","","","","",""
15.0,0.044760752469301224,0.0019979246954230823,"train",16880.0,"2021-11-22 08:38:30.423079","","","","","","",""
15.0,0.04302516579627991,0.0019978156704698363,"train",16900.0,"2021-11-22 08:38:35.042900","","","","","","",""
15.0,0.04700956121087074,0.001997703857704076,"train",16920.0,"2021-11-22 08:38:39.798496","","","","","","",""
15.0,0.05203951522707939,0.0019975892574381976,"train",16940.0,"2021-11-22 08:38:44.604378","","","","","","",""
15.0,0.06182340532541275,0.001997471869992386,"train",16960.0,"2021-11-22 08:38:50.308741","","","","","","",""
15.0,0.04472082480788231,0.0019973516956946127,"train",16980.0,"2021-11-22 08:38:54.988196","","","","","","",""
15.0,0.0436994694173336,0.0019972287348806366,"train",17000.0,"2021-11-22 08:38:59.598638","","","","","","",""
15.0,0.04588155448436737,0.0019971029878940003,"train",17020.0,"2021-11-22 08:39:04.251420","","","","","","",""
15.0,0.03513877093791962,0.0019969744550860317,"train",17040.0,"2021-11-22 08:39:08.866447","","","","","","",""
15.0,0.0639912486076355,0.0019968431368158433,"train",17060.0,"2021-11-22 08:39:14.243033","","","","","","",""
15.0,0.046733904629945755,0.001996709033450327,"train",17080.0,"2021-11-22 08:39:18.888667","","","","","","",""
15.0,0.05016607791185379,0.0019965721453641585,"train",17100.0,"2021-11-22 08:39:23.605845","","","","","","",""
15.0,0.055097274482250214,0.0019964324729397935,"train",17120.0,"2021-11-22 08:39:28.387343","","","","","","",""
15.0,0.03420415148139,0.0019962900165674657,"train",17140.0,"2021-11-22 08:39:33.022661","","","","","","",""
15.0,0.05666229501366615,0.0019961447766451887,"train",17160.0,"2021-11-22 08:39:38.478404","","","","","","",""
15.0,0.06044354662299156,0.001995996753578751,"train",17180.0,"2021-11-22 08:39:43.107453","","","","","","",""
15.0,"","","train",17184.0,"2021-11-22 08:41:32.344339",0.6248417376118751,0.6707835307511432,0.9658925722143383,0.6615286941126495,0.5542176469686466,0.5850474634623691,0.38125425380558053
15.0,"","","val",17184.0,"2021-11-22 08:42:01.262560",0.5997912559434072,0.6090435334358705,0.9521000140553476,0.6249285120376904,0.5141710642258583,0.5405178362935265,0.3411233794702199
16.0,0.06211838498711586,0.001995845947781719,"train",17200.0,"2021-11-22 08:42:07.911374","","","","","","",""
16.0,0.06554368883371353,0.001995692359675433,"train",17220.0,"2021-11-22 08:42:12.662901","","","","","","",""
16.0,0.058001868426799774,0.0019955359896890066,"train",17240.0,"2021-11-22 08:42:17.379611","","","","","","",""
16.0,0.0560489222407341,0.0019953768382593258,"train",17260.0,"2021-11-22 08:42:23.236144","","","","","","",""
16.0,0.03987329825758934,0.0019952149058310486,"train",17280.0,"2021-11-22 08:42:28.262478","","","","","","",""
16.0,0.06924688816070557,0.001995050192856602,"train",17300.0,"2021-11-22 08:42:33.127760","","","","","","",""
16.0,0.05844919756054878,0.001994882699796182,"train",17320.0,"2021-11-22 08:42:37.829598","","","","","","",""
16.0,0.049975983798503876,0.001994712427117752,"train",17340.0,"2021-11-22 08:42:42.509986","","","","","","",""
16.0,0.057883694767951965,0.0019945393752970413,"train",17360.0,"2021-11-22 08:42:47.883267","","","","","","",""
16.0,0.054582998156547546,0.001994363544817544,"train",17380.0,"2021-11-22 08:42:52.512671","","","","","","",""
16.0,0.04230634123086929,0.001994184936170517,"train",17400.0,"2021-11-22 08:42:57.171364","","","","","","",""
16.0,0.07354682683944702,0.0019940035498549804,"train",17420.0,"2021-11-22 08:43:02.014372","","","","","","",""
16.0,0.0743173137307167,0.0019938193863777145,"train",17440.0,"2021-11-22 08:43:06.824140","","","","","","",""
16.0,0.0433773510158062,0.001993632446253258,"train",17460.0,"2021-11-22 08:43:12.378247","","","","","","",""
16.0,0.06711751967668533,0.0019934427300039074,"train",17480.0,"2021-11-22 08:43:17.106239","","","","","","",""
16.0,0.07590710371732712,0.001993250238159717,"train",17500.0,"2021-11-22 08:43:21.779165","","","","","","",""
16.0,0.05904822051525116,0.0019930549712584944,"train",17520.0,"2021-11-22 08:43:26.421584","","","","","","",""
16.0,0.04416770488023758,0.001992856929845801,"train",17540.0,"2021-11-22 08:43:31.103602","","","","","","",""
16.0,0.038924068212509155,0.0019926561144749497,"train",17560.0,"2021-11-22 08:43:36.481122","","","","","","",""
16.0,0.04046837240457535,0.001992452525707004,"train",17580.0,"2021-11-22 08:43:41.048065","","","","","","",""
16.0,0.07547956705093384,0.0019922461641107767,"train",17600.0,"2021-11-22 08:43:45.767413","","","","","","",""
16.0,0.04969990253448486,0.001992037030262826,"train",17620.0,"2021-11-22 08:43:50.441297","","","","","","",""
16.0,0.054661624133586884,0.0019918251247474567,"train",17640.0,"2021-11-22 08:43:55.109621","","","","","","",""
16.0,0.04300045967102051,0.001991610448156718,"train",17660.0,"2021-11-22 08:44:00.603899","","","","","","",""
16.0,0.08702315390110016,0.0019913930010903996,"train",17680.0,"2021-11-22 08:44:05.312225","","","","","","",""
16.0,0.040993090718984604,0.001991172784156033,"train",17700.0,"2021-11-22 08:44:09.926052","","","","","","",""
16.0,0.05044412985444069,0.0019909497979688877,"train",17720.0,"2021-11-22 08:44:14.511409","","","","","","",""
16.0,0.03781620040535927,0.0019907240431519713,"train",17740.0,"2021-11-22 08:44:19.192518","","","","","","",""
16.0,0.04371071606874466,0.001990495520336026,"train",17760.0,"2021-11-22 08:44:24.693606","","","","","","",""
16.0,0.07342544943094254,0.0019902642301595284,"train",17780.0,"2021-11-22 08:44:29.545726","","","","","","",""
16.0,0.04020903632044792,0.001990030173268685,"train",17800.0,"2021-11-22 08:44:34.352050","","","","","","",""
16.0,0.05154222995042801,0.0019897933503174345,"train",17820.0,"2021-11-22 08:44:39.177796","","","","","","",""
16.0,0.033790696412324905,0.0019895537619674425,"train",17840.0,"2021-11-22 08:44:43.864518","","","","","","",""
16.0,0.040321409702301025,0.001989311408888101,"train",17860.0,"2021-11-22 08:44:49.237254","","","","","","",""
16.0,0.0804956704378128,0.001989066291756527,"train",17880.0,"2021-11-22 08:44:53.996347","","","","","","",""
16.0,0.05109351500868797,0.00198881841125756,"train",17900.0,"2021-11-22 08:44:58.817625","","","","","","",""
16.0,0.03275744989514351,0.0019885677680837595,"train",17920.0,"2021-11-22 08:45:03.469346","","","","","","",""
16.0,0.04661896824836731,0.001988314362935404,"train",17940.0,"2021-11-22 08:45:08.248362","","","","","","",""
16.0,0.06838621199131012,0.0019880581965204896,"train",17960.0,"2021-11-22 08:45:13.765697","","","","","","",""
16.0,0.037103865295648575,0.0019877992695547255,"train",17980.0,"2021-11-22 08:45:18.444013","","","","","","",""
16.0,0.05564113333821297,0.0019875375827615354,"train",18000.0,"2021-11-22 08:45:23.103217","","","","","","",""
16.0,0.06473083794116974,0.0019872731368720527,"train",18020.0,"2021-11-22 08:45:27.756381","","","","","","",""
16.0,0.055123910307884216,0.00198700593262512,"train",18040.0,"2021-11-22 08:45:32.462123","","","","","","",""
16.0,0.03829839453101158,0.001986735970767286,"train",18060.0,"2021-11-22 08:45:37.970543","","","","","","",""
16.0,0.04422080144286156,0.001986463252052804,"train",18080.0,"2021-11-22 08:45:42.593228","","","","","","",""
16.0,0.07233042269945145,0.0019861877772436305,"train",18100.0,"2021-11-22 08:45:47.441248","","","","","","",""
16.0,0.05122041329741478,0.001985909547109422,"train",18120.0,"2021-11-22 08:45:52.199100","","","","","","",""
16.0,0.05304023623466492,0.001985628562427533,"train",18140.0,"2021-11-22 08:45:57.645042","","","","","","",""
16.0,0.056484829634428024,0.001985344823983014,"train",18160.0,"2021-11-22 08:46:02.369359","","","","","","",""
16.0,0.07800717651844025,0.001985058332568609,"train",18180.0,"2021-11-22 08:46:07.133560","","","","","","",""
16.0,0.04573540762066841,0.001984769088984755,"train",18200.0,"2021-11-22 08:46:11.932339","","","","","","",""
16.0,0.05674202740192413,0.001984477094039576,"train",18220.0,"2021-11-22 08:46:16.749000","","","","","","",""
16.0,0.07187627255916595,0.001984182348548885,"train",18240.0,"2021-11-22 08:46:22.227591","","","","","","",""
16.0,"","","train",18258.0,"2021-11-22 08:48:16.739860",0.6360328894710034,0.68459939719128,0.9679179209507048,0.6590834624854589,0.5463499380569039,0.57901133925135,0.3834929015415231
16.0,"","","val",18258.0,"2021-11-22 08:48:46.869004",0.6022266032703235,0.6093917106207285,0.9542489806059072,0.6149362498188755,0.4954322749326095,0.5245371346773194,0.33043363722640823
17.0,0.033491261303424835,0.00198388485333618,"train",18260.0,"2021-11-22 08:48:50.079876","","","","","","",""
17.0,0.06265290826559067,0.0019835846092326396,"train",18280.0,"2021-11-22 08:48:55.258060","","","","","","",""
17.0,0.0499001108109951,0.0019832816170771246,"train",18300.0,"2021-11-22 08:49:00.233724","","","","","","",""
17.0,0.045941006392240524,0.001982975877716172,"train",18320.0,"2021-11-22 08:49:05.035623","","","","","","",""
17.0,0.03806646540760994,0.0019826673920039957,"train",18340.0,"2021-11-22 08:49:10.636089","","","","","","",""
17.0,0.06790896505117416,0.0019823561608024822,"train",18360.0,"2021-11-22 08:49:15.404310","","","","","","",""
17.0,0.03674591705203056,0.0019820421849811886,"train",18380.0,"2021-11-22 08:49:20.247631","","","","","","",""
17.0,0.06377387046813965,0.0019817254654173402,"train",18400.0,"2021-11-22 08:49:25.142701","","","","","","",""
17.0,0.039675015956163406,0.0019814060029958278,"train",18420.0,"2021-11-22 08:49:29.901905","","","","","","",""
17.0,0.044635333120822906,0.001981083798609206,"train",18440.0,"2021-11-22 08:49:35.268760","","","","","","",""
17.0,0.050840865820646286,0.0019807588531576908,"train",18460.0,"2021-11-22 08:49:40.120866","","","","","","",""
17.0,0.046446554362773895,0.0019804311675491555,"train",18480.0,"2021-11-22 08:49:44.973927","","","","","","",""
17.0,0.07493411004543304,0.00198010074269913,"train",18500.0,"2021-11-22 08:49:49.802036","","","","","","",""
17.0,0.04299473017454147,0.0019797675795307965,"train",18520.0,"2021-11-22 08:49:54.587104","","","","","","",""
17.0,0.04753106087446213,0.0019794316789749885,"train",18540.0,"2021-11-22 08:49:59.992113","","","","","","",""
17.0,0.05409909412264824,0.0019790930419701877,"train",18560.0,"2021-11-22 08:50:04.637476","","","","","","",""
17.0,0.06817784905433655,0.0019787516694625214,"train",18580.0,"2021-11-22 08:50:09.363745","","","","","","",""
17.0,0.03366968408226967,0.0019784075624057584,"train",18600.0,"2021-11-22 08:50:14.158704","","","","","","",""
17.0,0.04961645230650902,0.0019780607217613094,"train",18620.0,"2021-11-22 08:50:18.875176","","","","","","",""
17.0,0.07791251689195633,0.001977711148498221,"train",18640.0,"2021-11-22 08:50:24.093529","","","","","","",""
17.0,0.06786615401506424,0.0019773588435931756,"train",18660.0,"2021-11-22 08:50:28.971644","","","","","","",""
17.0,0.04574078321456909,0.0019770038080304873,"train",18680.0,"2021-11-22 08:50:33.883937","","","","","","",""
17.0,0.06415603309869766,0.001976646042802099,"train",18700.0,"2021-11-22 08:50:38.589697","","","","","","",""
17.0,0.04763003811240196,0.0019762855489075808,"train",18720.0,"2021-11-22 08:50:43.428996","","","","","","",""
17.0,0.05833093822002411,0.001975922327354126,"train",18740.0,"2021-11-22 08:50:48.672719","","","","","","",""
17.0,0.038046371191740036,0.001975556379156549,"train",18760.0,"2021-11-22 08:50:53.489151","","","","","","",""
17.0,0.04089553281664848,0.0019751877053372823,"train",18780.0,"2021-11-22 08:50:58.216687","","","","","","",""
17.0,0.03804386407136917,0.001974816306926373,"train",18800.0,"2021-11-22 08:51:03.134527","","","","","","",""
17.0,0.0477539487183094,0.001974442184961482,"train",18820.0,"2021-11-22 08:51:08.009925","","","","","","",""
17.0,0.045894987881183624,0.0019740653404878776,"train",18840.0,"2021-11-22 08:51:13.407243","","","","","","",""
17.0,0.042947955429553986,0.0019736857745584362,"train",18860.0,"2021-11-22 08:51:18.061964","","","","","","",""
17.0,0.04264586791396141,0.0019733034882336367,"train",18880.0,"2021-11-22 08:51:22.776654","","","","","","",""
17.0,0.054151590913534164,0.0019729184825815586,"train",18900.0,"2021-11-22 08:51:27.396258","","","","","","",""
17.0,0.0595354326069355,0.0019725307586778806,"train",18920.0,"2021-11-22 08:51:32.016210","","","","","","",""
17.0,0.0685170516371727,0.001972140317605874,"train",18940.0,"2021-11-22 08:51:37.181273","","","","","","",""
17.0,0.06959792226552963,0.0019717471604564028,"train",18960.0,"2021-11-22 08:51:41.730569","","","","","","",""
17.0,0.045732855796813965,0.0019713512883279185,"train",18980.0,"2021-11-22 08:51:46.296606","","","","","","",""
17.0,0.04856568202376366,0.00197095270232646,"train",19000.0,"2021-11-22 08:51:50.941998","","","","","","",""
17.0,0.04281916096806526,0.001970551403565646,"train",19020.0,"2021-11-22 08:51:55.591066","","","","","","",""
17.0,0.05766617879271507,0.0019701473931666765,"train",19040.0,"2021-11-22 08:52:00.963210","","","","","","",""
17.0,0.042013030499219894,0.001969740672258327,"train",19060.0,"2021-11-22 08:52:05.652760","","","","","","",""
17.0,0.04992613568902016,0.0019693312419769454,"train",19080.0,"2021-11-22 08:52:10.293002","","","","","","",""
17.0,0.06803665310144424,0.0019689191034664498,"train",19100.0,"2021-11-22 08:52:14.925703","","","","","","",""
17.0,0.048627495765686035,0.0019685042578783257,"train",19120.0,"2021-11-22 08:52:19.575666","","","","","","",""
17.0,0.07826068997383118,0.00196808670637162,"train",19140.0,"2021-11-22 08:52:24.807457","","","","","","",""
17.0,0.05024852976202965,0.001967666450112942,"train",19160.0,"2021-11-22 08:52:29.567048","","","","","","",""
17.0,0.07025064527988434,0.001967243490276456,"train",19180.0,"2021-11-22 08:52:34.321208","","","","","","",""
17.0,0.03164195269346237,0.0019668178280438818,"train",19200.0,"2021-11-22 08:52:39.155986","","","","","","",""
17.0,0.06716795265674591,0.0019663894646044875,"train",19220.0,"2021-11-22 08:52:43.871507","","","","","","",""
17.0,0.044563185423612595,0.001965958401155089,"train",19240.0,"2021-11-22 08:52:49.196122","","","","","","",""
17.0,0.04554781690239906,0.0019655246389000463,"train",19260.0,"2021-11-22 08:52:54.033228","","","","","","",""
17.0,0.04262144863605499,0.0019650881790512597,"train",19280.0,"2021-11-22 08:52:58.823911","","","","","","",""
17.0,0.08127640187740326,0.001964649022828165,"train",19300.0,"2021-11-22 08:53:03.484052","","","","","","",""
17.0,0.06844877451658249,0.0019642071714577325,"train",19320.0,"2021-11-22 08:53:08.306274","","","","","","",""
17.0,"","","train",19332.0,"2021-11-22 08:54:58.338831",0.6447500545732373,0.6963661541132267,0.9709488501133874,0.6594822062761522,0.5581762986660002,0.5884244728317249,0.3944314186165588
17.0,"","","val",19332.0,"2021-11-22 08:55:27.029517",0.6083729560477792,0.6238508014705922,0.9550754971164446,0.6142832785358164,0.5104863287371293,0.5413476252208307,0.3438120051973145
18.0,0.035704195499420166,0.0019637626261744634,"train",19340.0,"2021-11-22 08:55:31.640968","","","","","","",""
18.0,0.04190848395228386,0.001963315388220384,"train",19360.0,"2021-11-22 08:55:36.458025","","","","","","",""
18.0,0.050924014300107956,0.0019628654588450443,"train",19380.0,"2021-11-22 08:55:41.178459","","","","","","",""
18.0,0.0334571897983551,0.001962412839305514,"train",19400.0,"2021-11-22 08:55:46.031569","","","","","","",""
18.0,0.05198628455400467,0.0019619575308663785,"train",19420.0,"2021-11-22 08:55:50.963098","","","","","","",""
18.0,0.05166793242096901,0.001961499534799737,"train",19440.0,"2021-11-22 08:55:56.564825","","","","","","",""
18.0,0.0721522867679596,0.001961038852385196,"train",19460.0,"2021-11-22 08:56:01.514786","","","","","","",""
18.0,0.03750124201178551,0.0019605754849098683,"train",19480.0,"2021-11-22 08:56:06.160120","","","","","","",""
18.0,0.04149855673313141,0.0019601094336683693,"train",19500.0,"2021-11-22 08:56:10.860285","","","","","","",""
18.0,0.07490866631269455,0.0019596406999628116,"train",19520.0,"2021-11-22 08:56:15.498397","","","","","","",""
18.0,0.05674000084400177,0.0019591692851028022,"train",19540.0,"2021-11-22 08:56:20.843142","","","","","","",""
18.0,0.03912021592259407,0.001958695190405441,"train",19560.0,"2021-11-22 08:56:25.630821","","","","","","",""
18.0,0.05842961370944977,0.001958218417195312,"train",19580.0,"2021-11-22 08:56:30.465705","","","","","","",""
18.0,0.056837595999240875,0.001957738966804486,"train",19600.0,"2021-11-22 08:56:35.344574","","","","","","",""
18.0,0.06137910485267639,0.001957256840572511,"train",19620.0,"2021-11-22 08:56:40.151525","","","","","","",""
18.0,0.03404492884874344,0.0019567720398464133,"train",19640.0,"2021-11-22 08:56:45.447749","","","","","","",""
18.0,0.03500404953956604,0.00195628456598069,"train",19660.0,"2021-11-22 08:56:50.147740","","","","","","",""
18.0,0.031078046187758446,0.001955794420337307,"train",19680.0,"2021-11-22 08:56:54.788541","","","","","","",""
18.0,0.05153066664934158,0.0019553016042856957,"train",19700.0,"2021-11-22 08:56:59.480050","","","","","","",""
18.0,0.0715603157877922,0.001954806119202748,"train",19720.0,"2021-11-22 08:57:04.134052","","","","","","",""
18.0,0.03281930461525917,0.001954307966472812,"train",19740.0,"2021-11-22 08:57:09.336504","","","","","","",""
18.0,0.04217679426074028,0.0019538071474876914,"train",19760.0,"2021-11-22 08:57:14.228234","","","","","","",""
18.0,0.05378346890211105,0.001953303663646636,"train",19780.0,"2021-11-22 08:57:18.879195","","","","","","",""
18.0,0.044963207095861435,0.0019527975163563436,"train",19800.0,"2021-11-22 08:57:23.595276","","","","","","",""
18.0,0.055427391082048416,0.0019522887070309524,"train",19820.0,"2021-11-22 08:57:28.428910","","","","","","",""
18.0,0.041040074080228806,0.0019517772370920379,"train",19840.0,"2021-11-22 08:57:33.812555","","","","","","",""
18.0,0.0667722150683403,0.0019512631079686104,"train",19860.0,"2021-11-22 08:57:38.619753","","","","","","",""
18.0,0.03181154653429985,0.001950746321097108,"train",19880.0,"2021-11-22 08:57:43.340665","","","","","","",""
18.0,0.05368984863162041,0.0019502268779213957,"train",19900.0,"2021-11-22 08:57:48.201720","","","","","","",""
18.0,0.06903766840696335,0.0019497047798927598,"train",19920.0,"2021-11-22 08:57:53.057086","","","","","","",""
18.0,0.0319950208067894,0.001949180028469903,"train",19940.0,"2021-11-22 08:57:58.498220","","","","","","",""
18.0,0.05378717556595802,0.0019486526251189435,"train",19960.0,"2021-11-22 08:58:03.164250","","","","","","",""
18.0,0.04732750356197357,0.0019481225713134064,"train",19980.0,"2021-11-22 08:58:07.969590","","","","","","",""
18.0,0.033478278666734695,0.0019475898685342235,"train",20000.0,"2021-11-22 08:58:13.020744","","","","","","",""
18.0,0.05791627988219261,0.0019470545182697272,"train",20020.0,"2021-11-22 08:58:18.471253","","","","","","",""
18.0,0.0691094771027565,0.001946516522015647,"train",20040.0,"2021-11-22 08:58:23.162673","","","","","","",""
18.0,0.055227164179086685,0.0019459758812751047,"train",20060.0,"2021-11-22 08:58:27.925076","","","","","","",""
18.0,0.08108391612768173,0.0019454325975586106,"train",20080.0,"2021-11-22 08:58:32.742446","","","","","","",""
18.0,0.03648606687784195,0.0019448866723840602,"train",20100.0,"2021-11-22 08:58:37.582142","","","","","","",""
18.0,0.04679599404335022,0.001944338107276728,"train",20120.0,"2021-11-22 08:58:42.866401","","","","","","",""
18.0,0.03171372413635254,0.0019437869037692644,"train",20140.0,"2021-11-22 08:58:47.685224","","","","","","",""
18.0,0.05592036619782448,0.0019432330634016912,"train",20160.0,"2021-11-22 08:58:52.419139","","","","","","",""
18.0,0.04756185784935951,0.0019426765877213986,"train",20180.0,"2021-11-22 08:58:57.041454","","","","","","",""
18.0,0.05578886717557907,0.0019421174782831383,"train",20200.0,"2021-11-22 08:59:01.716333","","","","","","",""
18.0,0.03951628878712654,0.0019415557366490208,"train",20220.0,"2021-11-22 08:59:07.012707","","","","","","",""
