"epoch","loss","lr","part","step","time","accuracy","auprc","auroc","challenge_metric","f_beta_measure","f_measure","g_beta_measure"
0.0,0.15460304915905,8.000659038103321e-05,"train",20.0,"2021-11-22 13:05:45.445726","","","","","","",""
0.0,0.13497042655944824,8.002776712658739e-05,"train",40.0,"2021-11-22 13:05:48.594132","","","","","","",""
0.0,0.1448773443698883,8.006354817041922e-05,"train",60.0,"2021-11-22 13:05:51.629880","","","","","","",""
0.0,0.13707681000232697,8.011393296818311e-05,"train",80.0,"2021-11-22 13:05:54.835677","","","","","","",""
0.0,0.15160836279392242,8.017892075336199e-05,"train",100.0,"2021-11-22 13:05:58.749421","","","","","","",""
0.0,0.12585635483264923,8.025851053728079e-05,"train",120.0,"2021-11-22 13:06:01.921700","","","","","","",""
0.0,0.14022858440876007,8.035270110911988e-05,"train",140.0,"2021-11-22 13:06:05.116632","","","","","","",""
0.0,0.11843147873878479,8.046149103593456e-05,"train",160.0,"2021-11-22 13:06:08.269818","","","","","","",""
0.0,0.1207147166132927,8.058487866267655e-05,"train",180.0,"2021-11-22 13:06:11.434272","","","","","","",""
0.0,0.1243109405040741,8.072286211221872e-05,"train",200.0,"2021-11-22 13:06:15.195245","","","","","","",""
0.0,0.10040973871946335,8.087543928538454e-05,"train",220.0,"2021-11-22 13:06:18.373808","","","","","","",""
0.0,0.10854398459196091,8.10426078609787e-05,"train",240.0,"2021-11-22 13:06:21.564777","","","","","","",""
0.0,0.13847850263118744,8.122436529582437e-05,"train",260.0,"2021-11-22 13:06:24.746263","","","","","","",""
0.0,0.09933564811944962,8.142070882479987e-05,"train",280.0,"2021-11-22 13:06:28.025255","","","","","","",""
0.0,0.10816466063261032,8.163163546088159e-05,"train",300.0,"2021-11-22 13:06:31.167516","","","","","","",""
0.0,0.10690124332904816,8.18571419951902e-05,"train",320.0,"2021-11-22 13:06:34.918681","","","","","","",""
0.0,0.11456090211868286,8.209722499703787e-05,"train",340.0,"2021-11-22 13:06:38.031410","","","","","","",""
0.0,0.09222922474145889,8.235188081398169e-05,"train",360.0,"2021-11-22 13:06:41.282227","","","","","","",""
0.0,0.10955096036195755,8.262110557187932e-05,"train",380.0,"2021-11-22 13:06:44.535276","","","","","","",""
0.0,0.1029011532664299,8.290489517494694e-05,"train",400.0,"2021-11-22 13:06:47.799427","","","","","","",""
0.0,0.08371329307556152,8.320324530582146e-05,"train",420.0,"2021-11-22 13:06:51.014996","","","","","","",""
0.0,0.09902745485305786,8.351615142562817e-05,"train",440.0,"2021-11-22 13:06:54.824003","","","","","","",""
0.0,0.11173710972070694,8.384360877404756e-05,"train",460.0,"2021-11-22 13:06:58.038956","","","","","","",""
0.0,0.07012950628995895,8.418561236938921e-05,"train",480.0,"2021-11-22 13:07:01.232684","","","","","","",""
0.0,0.10664524883031845,8.454215700866644e-05,"train",500.0,"2021-11-22 13:07:04.414292","","","","","","",""
0.0,0.08728790283203125,8.491323726767604e-05,"train",520.0,"2021-11-22 13:07:07.624699","","","","","","",""
0.0,0.10821274667978287,8.529884750108118e-05,"train",540.0,"2021-11-22 13:07:10.808266","","","","","","",""
0.0,0.10788534581661224,8.569898184249678e-05,"train",560.0,"2021-11-22 13:07:14.663822","","","","","","",""
0.0,0.0892375037074089,8.611363420457869e-05,"train",580.0,"2021-11-22 13:07:17.880862","","","","","","",""
0.0,0.10381295531988144,8.654279827911685e-05,"train",600.0,"2021-11-22 13:07:21.120239","","","","","","",""
0.0,0.11916954815387726,8.698646753713016e-05,"train",620.0,"2021-11-22 13:07:24.346894","","","","","","",""
0.0,0.08405802398920059,8.744463522896697e-05,"train",640.0,"2021-11-22 13:07:27.512340","","","","","","",""
0.0,0.09641776233911514,8.791729438440733e-05,"train",660.0,"2021-11-22 13:07:30.744579","","","","","","",""
0.0,0.09500238299369812,8.840443781276937e-05,"train",680.0,"2021-11-22 13:07:34.463944","","","","","","",""
0.0,0.09435048699378967,8.890605810301755e-05,"train",700.0,"2021-11-22 13:07:37.769575","","","","","","",""
0.0,0.08194003254175186,8.942214762387691e-05,"train",720.0,"2021-11-22 13:07:41.073492","","","","","","",""
0.0,0.0764235183596611,8.995269852394802e-05,"train",740.0,"2021-11-22 13:07:44.368144","","","","","","",""
0.0,0.08117687702178955,9.049770273182709e-05,"train",760.0,"2021-11-22 13:07:47.671911","","","","","","",""
0.0,0.07223188132047653,9.105715195622806e-05,"train",780.0,"2021-11-22 13:07:51.486367","","","","","","",""
0.0,0.09755992144346237,9.16310376861101e-05,"train",800.0,"2021-11-22 13:07:54.682395","","","","","","",""
0.0,0.0901627317070961,9.221935119080576e-05,"train",820.0,"2021-11-22 13:07:57.888264","","","","","","",""
0.0,0.10547564923763275,9.282208352015368e-05,"train",840.0,"2021-11-22 13:08:01.052332","","","","","","",""
0.0,0.10010593384504318,9.343922550463608e-05,"train",860.0,"2021-11-22 13:08:04.209588","","","","","","",""
0.0,0.09693390130996704,9.40707677555175e-05,"train",880.0,"2021-11-22 13:08:07.378127","","","","","","",""
0.0,0.08830565959215164,9.471670066498687e-05,"train",900.0,"2021-11-22 13:08:11.129819","","","","","","",""
0.0,0.10205474495887756,9.537701440630493e-05,"train",920.0,"2021-11-22 13:08:14.329069","","","","","","",""
0.0,0.08892946690320969,9.605169893395367e-05,"train",940.0,"2021-11-22 13:08:17.627222","","","","","","",""
0.0,0.11494181305170059,9.674074398378766e-05,"train",960.0,"2021-11-22 13:08:20.861985","","","","","","",""
0.0,0.08316723257303238,9.744413907319168e-05,"train",980.0,"2021-11-22 13:08:24.034652","","","","","","",""
0.0,0.09945425391197205,9.816187350124078e-05,"train",1000.0,"2021-11-22 13:08:27.180398","","","","","","",""
0.0,0.10007037222385406,9.889393634885985e-05,"train",1020.0,"2021-11-22 13:08:30.843287","","","","","","",""
0.0,0.09521668404340744,9.964031647899407e-05,"train",1040.0,"2021-11-22 13:08:33.857484","","","","","","",""
0.0,0.08595187216997147,0.00010040100253677544,"train",1060.0,"2021-11-22 13:08:36.914393","","","","","","",""
0.0,"","","train",1075.0,"2021-11-22 13:10:17.327326",0.4223823037182566,0.3136514411598631,0.8427299919454866,0.3744094401464922,0.23550970748040562,0.23640526741944423,0.14699913183034244
0.0,"","","val",1075.0,"2021-11-22 13:10:42.315316",0.41969152267192394,0.3104163115218311,0.8361536195401066,0.36950616962861776,0.23466164180850635,0.23362715738447135,0.14413598011541573
1.0,0.10302232950925827,0.00010117598294969604,"train",1080.0,"2021-11-22 13:10:45.999883","","","","","","",""
1.0,0.09884236752986908,0.00010196524592778408,"train",1100.0,"2021-11-22 13:10:49.368669","","","","","","",""
1.0,0.07390950620174408,0.00010276877946378479,"train",1120.0,"2021-11-22 13:10:52.560123","","","","","","",""
1.0,0.07690279930830002,0.00010358657133334036,"train",1140.0,"2021-11-22 13:10:56.564550","","","","","","",""
1.0,0.0880848839879036,0.00010441860909517838,"train",1160.0,"2021-11-22 13:10:59.946568","","","","","","",""
1.0,0.07241430133581161,0.00010526488009129963,"train",1180.0,"2021-11-22 13:11:03.250948","","","","","","",""
1.0,0.09820577502250671,0.0001061253714471713,"train",1200.0,"2021-11-22 13:11:06.497766","","","","","","",""
1.0,0.07475193589925766,0.00010700007007192255,"train",1220.0,"2021-11-22 13:11:09.741366","","","","","","",""
1.0,0.09707798808813095,0.00010788896265854402,"train",1240.0,"2021-11-22 13:11:12.961110","","","","","","",""
1.0,0.08657912164926529,0.00010879203568408993,"train",1260.0,"2021-11-22 13:11:16.141377","","","","","","",""
1.0,0.10096007585525513,0.00010970927540988385,"train",1280.0,"2021-11-22 13:11:19.907810","","","","","","",""
1.0,0.09269872307777405,0.00011064066788172774,"train",1300.0,"2021-11-22 13:11:23.096258","","","","","","",""
1.0,0.077518530189991,0.00011158619893011424,"train",1320.0,"2021-11-22 13:11:26.361082","","","","","","",""
1.0,0.08052868396043777,0.00011254585417044306,"train",1340.0,"2021-11-22 13:11:29.631016","","","","","","",""
1.0,0.07912518829107285,0.00011351961900323785,"train",1360.0,"2021-11-22 13:11:32.918613","","","","","","",""
1.0,0.08231013268232346,0.00011450747861437016,"train",1380.0,"2021-11-22 13:11:36.250589","","","","","","",""
1.0,0.07944684475660324,0.00011550941797528413,"train",1400.0,"2021-11-22 13:11:39.494257","","","","","","",""
1.0,0.09299539029598236,0.0001165254218432252,"train",1420.0,"2021-11-22 13:11:43.266934","","","","","","",""
1.0,0.09173160046339035,0.00011755547476147133,"train",1440.0,"2021-11-22 13:11:46.411149","","","","","","",""
1.0,0.1191382110118866,0.0001185995610595693,"train",1460.0,"2021-11-22 13:11:49.574103","","","","","","",""
1.0,0.08799450844526291,0.00011965766485357303,"train",1480.0,"2021-11-22 13:11:52.785600","","","","","","",""
1.0,0.10508336126804352,0.00012072977004628387,"train",1500.0,"2021-11-22 13:11:55.914364","","","","","","",""
1.0,0.08788024634122849,0.00012181586032749625,"train",1520.0,"2021-11-22 13:11:59.137258","","","","","","",""
1.0,0.06847118586301804,0.00012291591917424705,"train",1540.0,"2021-11-22 13:12:02.331249","","","","","","",""
1.0,0.06333667039871216,0.00012402992985106475,"train",1560.0,"2021-11-22 13:12:06.166135","","","","","","",""
1.0,0.07815054804086685,0.00012515787541022595,"train",1580.0,"2021-11-22 13:12:09.389945","","","","","","",""
1.0,0.07591229677200317,0.0001262997386920117,"train",1600.0,"2021-11-22 13:12:12.559510","","","","","","",""
1.0,0.07350479066371918,0.00012745550232496987,"train",1620.0,"2021-11-22 13:12:15.709574","","","","","","",""
1.0,0.09931018948554993,0.00012862514872617856,"train",1640.0,"2021-11-22 13:12:18.862039","","","","","","",""
1.0,0.08870720863342285,0.00012980866010151352,"train",1660.0,"2021-11-22 13:12:22.000446","","","","","","",""
1.0,0.08496902137994766,0.00013100601844591962,"train",1680.0,"2021-11-22 13:12:25.147092","","","","","","",""
1.0,0.10546240210533142,0.00013221720554368408,"train",1700.0,"2021-11-22 13:12:28.899980","","","","","","",""
1.0,0.07825835049152374,0.000133442202968714,"train",1720.0,"2021-11-22 13:12:32.042454","","","","","","",""
1.0,0.06592555344104767,0.0001346809920848163,"train",1740.0,"2021-11-22 13:12:35.185251","","","","","","",""
1.0,0.07722195237874985,0.0001359335540459818,"train",1760.0,"2021-11-22 13:12:38.215978","","","","","","",""
1.0,0.09883170574903488,0.00013719986979667063,"train",1780.0,"2021-11-22 13:12:41.293902","","","","","","",""
1.0,0.09663037210702896,0.0001384799200721046,"train",1800.0,"2021-11-22 13:12:44.486913","","","","","","",""
1.0,0.08582884073257446,0.0001397736853985575,"train",1820.0,"2021-11-22 13:12:47.652920","","","","","","",""
1.0,0.08370593935251236,0.00014108114609365317,"train",1840.0,"2021-11-22 13:12:51.400532","","","","","","",""
1.0,0.08997594565153122,0.00014240228226666406,"train",1860.0,"2021-11-22 13:12:54.551543","","","","","","",""
1.0,0.10923442989587784,0.00014373707381881424,"train",1880.0,"2021-11-22 13:12:57.740762","","","","","","",""
1.0,0.06632659584283829,0.00014508550044358532,"train",1900.0,"2021-11-22 13:13:00.891091","","","","","","",""
1.0,0.10316858440637589,0.0001464475416270252,"train",1920.0,"2021-11-22 13:13:04.042218","","","","","","",""
1.0,0.06881358474493027,0.0001478231766480595,"train",1940.0,"2021-11-22 13:13:07.241908","","","","","","",""
1.0,0.08556194603443146,0.00014921238457880773,"train",1960.0,"2021-11-22 13:13:11.041837","","","","","","",""
1.0,0.07306216657161713,0.0001506151442849015,"train",1980.0,"2021-11-22 13:13:14.391496","","","","","","",""
1.0,0.07972291111946106,0.0001520314344258056,"train",2000.0,"2021-11-22 13:13:17.701830","","","","","","",""
1.0,0.07345552742481232,0.00015346123345514294,"train",2020.0,"2021-11-22 13:13:20.961454","","","","","","",""
1.0,0.08384912461042404,0.0001549045196210222,"train",2040.0,"2021-11-22 13:13:24.089427","","","","","","",""
1.0,0.07721978425979614,0.0001563612709663696,"train",2060.0,"2021-11-22 13:13:27.254348","","","","","","",""
1.0,0.0949239581823349,0.000157831465329261,"train",2080.0,"2021-11-22 13:13:30.534056","","","","","","",""
1.0,0.06760457903146744,0.0001593150803432615,"train",2100.0,"2021-11-22 13:13:34.496176","","","","","","",""
1.0,0.06342124193906784,0.0001608120934377638,"train",2120.0,"2021-11-22 13:13:37.764334","","","","","","",""
1.0,0.06573464721441269,0.00016232248183833215,"train",2140.0,"2021-11-22 13:13:40.983833","","","","","","",""
1.0,"","","train",2149.0,"2021-11-22 13:15:15.801127",0.41319944699119554,0.383705259002694,0.8854422870207641,0.3997614626723445,0.27991696210950584,0.2803275852354562,0.1744668425196401
1.0,"","","val",2149.0,"2021-11-22 13:15:40.574932",0.41116780702771655,0.3737030290930703,0.878813426720661,0.39377649401051434,0.27529935389370724,0.2738981888307101,0.16905226478900232
2.0,0.08527771383523941,0.00016384622256704882,"train",2160.0,"2021-11-22 13:15:45.299902","","","","","","",""
2.0,0.0659964457154274,0.00016538329244286448,"train",2180.0,"2021-11-22 13:15:48.594390","","","","","","",""
2.0,0.05886880308389664,0.00016693366808194997,"train",2200.0,"2021-11-22 13:15:51.768733","","","","","","",""
2.0,0.07380836457014084,0.00016849732589805148,"train",2220.0,"2021-11-22 13:15:54.931028","","","","","","",""
2.0,0.07433855533599854,0.00017007424210285045,"train",2240.0,"2021-11-22 13:15:58.166978","","","","","","",""
2.0,0.10087572783231735,0.00017166439270632598,"train",2260.0,"2021-11-22 13:16:02.068378","","","","","","",""
2.0,0.07975202053785324,0.00017326775351711736,"train",2280.0,"2021-11-22 13:16:05.213758","","","","","","",""
2.0,0.07715447247028351,0.00017488430014289528,"train",2300.0,"2021-11-22 13:16:08.349617","","","","","","",""
2.0,0.06774330884218216,0.00017651400799073027,"train",2320.0,"2021-11-22 13:16:11.382594","","","","","","",""
2.0,0.0657154992222786,0.00017815685226746847,"train",2340.0,"2021-11-22 13:16:14.384645","","","","","","",""
2.0,0.07192622125148773,0.0001798128079801072,"train",2360.0,"2021-11-22 13:16:17.559819","","","","","","",""
2.0,0.06348065286874771,0.0001814818499361777,"train",2380.0,"2021-11-22 13:16:20.731382","","","","","","",""
2.0,0.09148972481489182,0.0001831639527441263,"train",2400.0,"2021-11-22 13:16:23.940586","","","","","","",""
2.0,0.09209251403808594,0.00018485909081370085,"train",2420.0,"2021-11-22 13:16:27.151984","","","","","","",""
2.0,0.068644680082798,0.00018656723835634085,"train",2440.0,"2021-11-22 13:16:30.893280","","","","","","",""
2.0,0.06647542119026184,0.0001882883693855701,"train",2460.0,"2021-11-22 13:16:33.887144","","","","","","",""
2.0,0.06741701811552048,0.00019002245771738958,"train",2480.0,"2021-11-22 13:16:36.971605","","","","","","",""
2.0,0.0762263759970665,0.0001917694769706798,"train",2500.0,"2021-11-22 13:16:40.086274","","","","","","",""
2.0,0.07676700502634048,0.00019352940056759798,"train",2520.0,"2021-11-22 13:16:43.158061","","","","","","",""
2.0,0.06385138630867004,0.00019530220173398548,"train",2540.0,"2021-11-22 13:16:46.258559","","","","","","",""
2.0,0.0809568390250206,0.00019708785349977376,"train",2560.0,"2021-11-22 13:16:49.413925","","","","","","",""
2.0,0.0841752141714096,0.00019888632869939486,"train",2580.0,"2021-11-22 13:16:52.639617","","","","","","",""
2.0,0.07392095774412155,0.00020069759997219444,"train",2600.0,"2021-11-22 13:16:56.494773","","","","","","",""
2.0,0.07518284767866135,0.00020252163976284838,"train",2620.0,"2021-11-22 13:16:59.692028","","","","","","",""
2.0,0.089841827750206,0.00020435842032178234,"train",2640.0,"2021-11-22 13:17:02.938244","","","","","","",""
2.0,0.06649027019739151,0.00020620791370559266,"train",2660.0,"2021-11-22 13:17:06.090133","","","","","","",""
2.0,0.07956167310476303,0.00020807009177747308,"train",2680.0,"2021-11-22 13:17:09.236562","","","","","","",""
2.0,0.05134144052863121,0.00020994492620764194,"train",2700.0,"2021-11-22 13:17:12.387706","","","","","","",""
2.0,0.0700385719537735,0.00021183238847377215,"train",2720.0,"2021-11-22 13:17:15.528717","","","","","","",""
2.0,0.07324861735105515,0.00021373244986142774,"train",2740.0,"2021-11-22 13:17:18.653927","","","","","","",""
2.0,0.0833335891366005,0.0002156450814644979,"train",2760.0,"2021-11-22 13:17:21.811985","","","","","","",""
2.0,0.10294228047132492,0.00021757025418563895,"train",2780.0,"2021-11-22 13:17:25.659506","","","","","","",""
2.0,0.06645052134990692,0.0002195079387367154,"train",2800.0,"2021-11-22 13:17:28.822092","","","","","","",""
2.0,0.06153803691267967,0.00022145810563924638,"train",2820.0,"2021-11-22 13:17:32.094499","","","","","","",""
2.0,0.05483380705118179,0.0002234207252248537,"train",2840.0,"2021-11-22 13:17:35.293632","","","","","","",""
2.0,0.08932836353778839,0.00022539576763571344,"train",2860.0,"2021-11-22 13:17:38.432966","","","","","","",""
2.0,0.05984571948647499,0.00022738320282501031,"train",2880.0,"2021-11-22 13:17:41.588228","","","","","","",""
2.0,0.08736646175384521,0.0002293830005573945,"train",2900.0,"2021-11-22 13:17:44.722635","","","","","","",""
2.0,0.0598733127117157,0.00023139513040944162,"train",2920.0,"2021-11-22 13:17:47.924130","","","","","","",""
2.0,0.08041221648454666,0.0002334195617701158,"train",2940.0,"2021-11-22 13:17:51.775449","","","","","","",""
2.0,0.07311692088842392,0.00023545626384123487,"train",2960.0,"2021-11-22 13:17:54.965206","","","","","","",""
2.0,0.07921633869409561,0.0002375052056379399,"train",2980.0,"2021-11-22 13:17:58.185083","","","","","","",""
2.0,0.09335850924253464,0.00023956635598916531,"train",3000.0,"2021-11-22 13:18:01.336296","","","","","","",""
2.0,0.08724667876958847,0.00024163968353811465,"train",3020.0,"2021-11-22 13:18:04.480996","","","","","","",""
2.0,0.05849273502826691,0.00024372515674273487,"train",3040.0,"2021-11-22 13:18:07.653066","","","","","","",""
2.0,0.048730917274951935,0.00024582274387620036,"train",3060.0,"2021-11-22 13:18:10.867499","","","","","","",""
2.0,0.0975232794880867,0.00024793241302739134,"train",3080.0,"2021-11-22 13:18:14.145538","","","","","","",""
2.0,0.0966404601931572,0.00025005413210138234,"train",3100.0,"2021-11-22 13:18:17.434637","","","","","","",""
2.0,0.07747235894203186,0.0002521878688199295,"train",3120.0,"2021-11-22 13:18:21.284733","","","","","","",""
2.0,0.07557079941034317,0.00025433359072196053,"train",3140.0,"2021-11-22 13:18:24.557107","","","","","","",""
2.0,0.07436341047286987,0.00025649126516407036,"train",3160.0,"2021-11-22 13:18:27.727845","","","","","","",""
2.0,0.06830166280269623,0.00025866085932101665,"train",3180.0,"2021-11-22 13:18:30.939637","","","","","","",""
2.0,0.08490321040153503,0.00026084234018621975,"train",3200.0,"2021-11-22 13:18:34.063052","","","","","","",""
2.0,0.09836122393608093,0.0002630356745722637,"train",3220.0,"2021-11-22 13:18:37.142999","","","","","","",""
2.0,"","","train",3223.0,"2021-11-22 13:20:10.077442",0.4552572218584006,0.440872655775704,0.9114542695442314,0.45299893792390966,0.33696664889846156,0.33524381693199246,0.21564273205715478
2.0,"","","val",3223.0,"2021-11-22 13:20:34.982020",0.45019134871854344,0.426929094807653,0.9048690657547009,0.44322673725368833,0.3297153483255299,0.32584824587638317,0.2083137739409066
3.0,0.08102499693632126,0.00026524082911140293,"train",3240.0,"2021-11-22 13:20:40.607680","","","","","","",""
3.0,0.06441062688827515,0.0002674577702560688,"train",3260.0,"2021-11-22 13:20:43.753314","","","","","","",""
3.0,0.06438647210597992,0.00026968646427937893,"train",3280.0,"2021-11-22 13:20:46.926251","","","","","","",""
3.0,0.05829083174467087,0.0002719268772756532,"train",3300.0,"2021-11-22 13:20:50.095348","","","","","","",""
3.0,0.05167413130402565,0.00027417897516092654,"train",3320.0,"2021-11-22 13:20:53.924913","","","","","","",""
3.0,0.07540217787027359,0.00027644272367346946,"train",3340.0,"2021-11-22 13:20:57.070502","","","","","","",""
3.0,0.06642267853021622,0.0002787180883743077,"train",3360.0,"2021-11-22 13:21:00.192680","","","","","","",""
3.0,0.0842541754245758,0.0002810050346477482,"train",3380.0,"2021-11-22 13:21:03.333882","","","","","","",""
3.0,0.06072118878364563,0.0002833035277019034,"train",3400.0,"2021-11-22 13:21:06.507142","","","","","","",""
3.0,0.06756682693958282,0.0002856135325692221,"train",3420.0,"2021-11-22 13:21:09.767763","","","","","","",""
3.0,0.0892425924539566,0.00028793501410702155,"train",3440.0,"2021-11-22 13:21:13.090578","","","","","","",""
3.0,0.07740749418735504,0.0002902679369980207,"train",3460.0,"2021-11-22 13:21:16.407224","","","","","","",""
3.0,0.08548794686794281,0.0002926122657508788,"train",3480.0,"2021-11-22 13:21:19.728418","","","","","","",""
3.0,0.062309280037879944,0.00029496796470073437,"train",3500.0,"2021-11-22 13:21:23.080865","","","","","","",""
3.0,0.06415687501430511,0.00029733499800974885,"train",3520.0,"2021-11-22 13:21:26.408770","","","","","","",""
3.0,0.07326190173625946,0.0002997133296676511,"train",3540.0,"2021-11-22 13:21:30.156588","","","","","","",""
3.0,0.043379079550504684,0.00030210292349228574,"train",3560.0,"2021-11-22 13:21:33.309637","","","","","","",""
3.0,0.08380191773176193,0.0003045037431301616,"train",3580.0,"2021-11-22 13:21:36.440622","","","","","","",""
3.0,0.06606413424015045,0.0003069157520570085,"train",3600.0,"2021-11-22 13:21:39.630798","","","","","","",""
3.0,0.06898806244134903,0.00030933891357832945,"train",3620.0,"2021-11-22 13:21:43.006056","","","","","","",""
3.0,0.05006292834877968,0.000311773190829961,"train",3640.0,"2021-11-22 13:21:46.456616","","","","","","",""
3.0,0.0787525549530983,0.0003142185467786326,"train",3660.0,"2021-11-22 13:21:49.860117","","","","","","",""
3.0,0.07214128971099854,0.00031667494422253097,"train",3680.0,"2021-11-22 13:21:53.155125","","","","","","",""
3.0,0.0680706650018692,0.0003191423457918662,"train",3700.0,"2021-11-22 13:21:56.489862","","","","","","",""
3.0,0.08631127327680588,0.0003216207139494398,"train",3720.0,"2021-11-22 13:21:59.803077","","","","","","",""
3.0,0.09084731340408325,0.00032411001099121517,"train",3740.0,"2021-11-22 13:22:03.074695","","","","","","",""
3.0,0.0740128606557846,0.0003266101990468922,"train",3760.0,"2021-11-22 13:22:06.920944","","","","","","",""
3.0,0.0792565643787384,0.0003291212400804832,"train",3780.0,"2021-11-22 13:22:10.227808","","","","","","",""
3.0,0.0845835953950882,0.00033164309589089154,"train",3800.0,"2021-11-22 13:22:13.541788","","","","","","",""
3.0,0.06217010319232941,0.0003341757281124921,"train",3820.0,"2021-11-22 13:22:16.791361","","","","","","",""
3.0,0.06962653249502182,0.000336719098215716,"train",3840.0,"2021-11-22 13:22:20.041059","","","","","","",""
3.0,0.07807671278715134,0.0003392731675076362,"train",3860.0,"2021-11-22 13:22:23.258565","","","","","","",""
3.0,0.06188827008008957,0.0003418378971325564,"train",3880.0,"2021-11-22 13:22:26.522006","","","","","","",""
3.0,0.06289472430944443,0.0003444132480726011,"train",3900.0,"2021-11-22 13:22:29.794903","","","","","","",""
3.0,0.08931121975183487,0.0003469991811483116,"train",3920.0,"2021-11-22 13:22:33.079130","","","","","","",""
3.0,0.07348822057247162,0.0003495956570192388,"train",3940.0,"2021-11-22 13:22:36.361949","","","","","","",""
3.0,0.0627925768494606,0.00035220263618454474,"train",3960.0,"2021-11-22 13:22:39.649435","","","","","","",""
3.0,0.07553356885910034,0.0003548200789836016,"train",3980.0,"2021-11-22 13:22:43.602539","","","","","","",""
3.0,0.05921787768602371,0.0003574479455965959,"train",4000.0,"2021-11-22 13:22:46.897353","","","","","","",""
3.0,0.06602849066257477,0.0003600861960451338,"train",4020.0,"2021-11-22 13:22:50.244181","","","","","","",""
3.0,0.09794531762599945,0.0003627347901928497,"train",4040.0,"2021-11-22 13:22:53.448203","","","","","","",""
3.0,0.07497718185186386,0.0003653936877460167,"train",4060.0,"2021-11-22 13:22:56.624869","","","","","","",""
3.0,0.05717245489358902,0.00036806284825416,"train",4080.0,"2021-11-22 13:22:59.812087","","","","","","",""
3.0,0.0694282278418541,0.00037074223111067104,"train",4100.0,"2021-11-22 13:23:03.066522","","","","","","",""
3.0,0.07977119088172913,0.00037343179555342676,"train",4120.0,"2021-11-22 13:23:06.253512","","","","","","",""
3.0,0.05942505970597267,0.00037613150066540934,"train",4140.0,"2021-11-22 13:23:09.387976","","","","","","",""
3.0,0.0793941393494606,0.00037884130537532744,"train",4160.0,"2021-11-22 13:23:12.515863","","","","","","",""
3.0,0.07080753147602081,0.0003815611684582429,"train",4180.0,"2021-11-22 13:23:15.734196","","","","","","",""
3.0,0.0767051950097084,0.00038429104853619626,"train",4200.0,"2021-11-22 13:23:18.884330","","","","","","",""
3.0,0.11079148203134537,0.0003870309040788383,"train",4220.0,"2021-11-22 13:23:22.625827","","","","","","",""
3.0,0.08185534924268723,0.0003897806934040587,"train",4240.0,"2021-11-22 13:23:25.760168","","","","","","",""
3.0,0.06331554800271988,0.00039254037467862345,"train",4260.0,"2021-11-22 13:23:28.861579","","","","","","",""
3.0,0.08171448856592178,0.0003953099059188093,"train",4280.0,"2021-11-22 13:23:31.977251","","","","","","",""
3.0,"","","train",4297.0,"2021-11-22 13:25:07.757644",0.5322855271774721,0.4954950376099332,0.9301519802182955,0.5096884861381595,0.37930365760754303,0.3820888210409595,0.25247442684789906
3.0,"","","val",4297.0,"2021-11-22 13:25:33.188237",0.5212802968804361,0.47395762670196306,0.9215843205037847,0.4946398421370844,0.3666341350878569,0.3673567402352317,0.2402956530861631
4.0,0.04877159744501114,0.000398089244991043,"train",4300.0,"2021-11-22 13:25:36.443631","","","","","","",""
4.0,0.0652623325586319,0.0004008783496125424,"train",4320.0,"2021-11-22 13:25:39.763130","","","","","","",""
4.0,0.07447845488786697,0.0004036771773519598,"train",4340.0,"2021-11-22 13:25:42.941222","","","","","","",""
4.0,0.06191735342144966,0.00040648568563002654,"train",4360.0,"2021-11-22 13:25:46.094625","","","","","","",""
4.0,0.06276680529117584,0.00040930383172020266,"train",4380.0,"2021-11-22 13:25:49.926325","","","","","","",""
4.0,0.05640539526939392,0.00041213157274932436,"train",4400.0,"2021-11-22 13:25:53.077135","","","","","","",""
4.0,0.05050959810614586,0.0004149688656982589,"train",4420.0,"2021-11-22 13:25:56.207637","","","","","","",""
4.0,0.07063482701778412,0.0004178156674025566,"train",4440.0,"2021-11-22 13:25:59.346390","","","","","","",""
4.0,0.06227454915642738,0.00042067193455311053,"train",4460.0,"2021-11-22 13:26:02.491904","","","","","","",""
4.0,0.05583535134792328,0.0004235376236968113,"train",4480.0,"2021-11-22 13:26:06.211346","","","","","","",""
4.0,0.07239003479480743,0.0004264126912372115,"train",4500.0,"2021-11-22 13:26:09.393481","","","","","","",""
4.0,0.052649661898612976,0.00042929709343518833,"train",4520.0,"2021-11-22 13:26:12.597031","","","","","","",""
4.0,0.044564660638570786,0.0004321907864096074,"train",4540.0,"2021-11-22 13:26:15.810077","","","","","","",""
4.0,0.07051188498735428,0.0004350937261379921,"train",4560.0,"2021-11-22 13:26:19.009051","","","","","","",""
4.0,0.09324087202548981,0.00043800586845719265,"train",4580.0,"2021-11-22 13:26:22.214583","","","","","","",""
4.0,0.06194862350821495,0.0004409271690640575,"train",4600.0,"2021-11-22 13:26:26.004327","","","","","","",""
4.0,0.07789777219295502,0.00044385758351610824,"train",4620.0,"2021-11-22 13:26:29.197956","","","","","","",""
4.0,0.08060263842344284,0.0004467970672322151,"train",4640.0,"2021-11-22 13:26:32.462491","","","","","","",""
4.0,0.08091150969266891,0.0004497455754932751,"train",4660.0,"2021-11-22 13:26:35.725946","","","","","","",""
4.0,0.08966626971960068,0.0004527030634428929,"train",4680.0,"2021-11-22 13:26:39.011205","","","","","","",""
4.0,0.07743299007415771,0.0004556694860880625,"train",4700.0,"2021-11-22 13:26:42.262163","","","","","","",""
4.0,0.08181535452604294,0.0004586447982998527,"train",4720.0,"2021-11-22 13:26:46.086865","","","","","","",""
4.0,0.08763578534126282,0.00046162895481409276,"train",4740.0,"2021-11-22 13:26:49.402513","","","","","","",""
4.0,0.05370837077498436,0.0004646219102320613,"train",4760.0,"2021-11-22 13:26:52.589478","","","","","","",""
4.0,0.0682087242603302,0.0004676236190211773,"train",4780.0,"2021-11-22 13:26:55.738894","","","","","","",""
4.0,0.06535492837429047,0.0004706340355156921,"train",4800.0,"2021-11-22 13:26:58.940727","","","","","","",""
4.0,0.07655417174100876,0.00047365311391738473,"train",4820.0,"2021-11-22 13:27:02.143800","","","","","","",""
4.0,0.07794696092605591,0.00047668080829625886,"train",4840.0,"2021-11-22 13:27:05.930692","","","","","","",""
4.0,0.08278520405292511,0.00047971707259124026,"train",4860.0,"2021-11-22 13:27:09.143861","","","","","","",""
4.0,0.08705299347639084,0.00048276186061087874,"train",4880.0,"2021-11-22 13:27:12.424710","","","","","","",""
4.0,0.05753909796476364,0.0004858151260340518,"train",4900.0,"2021-11-22 13:27:15.673794","","","","","","",""
4.0,0.06152142211794853,0.0004888768224106659,"train",4920.0,"2021-11-22 13:27:18.907239","","","","","","",""
4.0,0.05991305038332939,0.000491946903162367,"train",4940.0,"2021-11-22 13:27:22.117302","","","","","","",""
4.0,0.055314358323812485,0.0004950253215832466,"train",4960.0,"2021-11-22 13:27:25.995263","","","","","","",""
4.0,0.07279974222183228,0.0004981120308405534,"train",4980.0,"2021-11-22 13:27:29.185525","","","","","","",""
4.0,0.06985548883676529,0.0005012069839754052,"train",5000.0,"2021-11-22 13:27:32.383398","","","","","","",""
4.0,0.07912880927324295,0.0005043101339035048,"train",5020.0,"2021-11-22 13:27:35.605853","","","","","","",""
4.0,0.06075333058834076,0.0005074214334158536,"train",5040.0,"2021-11-22 13:27:38.820056","","","","","","",""
4.0,0.08225201070308685,0.0005105408351794719,"train",5060.0,"2021-11-22 13:27:42.617184","","","","","","",""
4.0,0.06661808490753174,0.000513668291738119,"train",5080.0,"2021-11-22 13:27:45.843901","","","","","","",""
4.0,0.06349632889032364,0.0005168037555130143,"train",5100.0,"2021-11-22 13:27:48.982345","","","","","","",""
4.0,0.05259589105844498,0.0005199471788035603,"train",5120.0,"2021-11-22 13:27:52.211029","","","","","","",""
4.0,0.06560187041759491,0.000523098513788071,"train",5140.0,"2021-11-22 13:27:55.434831","","","","","","",""
4.0,0.0665220245718956,0.0005262577125244969,"train",5160.0,"2021-11-22 13:27:58.689561","","","","","","",""
4.0,0.07818050682544708,0.0005294247269511556,"train",5180.0,"2021-11-22 13:28:02.435256","","","","","","",""
4.0,0.06775021553039551,0.0005325995088874625,"train",5200.0,"2021-11-22 13:28:05.571249","","","","","","",""
4.0,0.07012969255447388,0.0005357820100346641,"train",5220.0,"2021-11-22 13:28:08.698683","","","","","","",""
4.0,0.09616158157587051,0.0005389721819765725,"train",5240.0,"2021-11-22 13:28:11.843738","","","","","","",""
4.0,0.07427849620580673,0.0005421699761803016,"train",5260.0,"2021-11-22 13:28:14.972326","","","","","","",""
4.0,0.04889225959777832,0.000545375343997007,"train",5280.0,"2021-11-22 13:28:18.223337","","","","","","",""
4.0,0.07282567024230957,0.000548588236662624,"train",5300.0,"2021-11-22 13:28:22.101017","","","","","","",""
4.0,0.05414668098092079,0.0005518086052986107,"train",5320.0,"2021-11-22 13:28:25.404238","","","","","","",""
4.0,0.0561283677816391,0.0005550364009126924,"train",5340.0,"2021-11-22 13:28:28.652991","","","","","","",""
4.0,0.05281052738428116,0.0005582715743996042,"train",5360.0,"2021-11-22 13:28:31.879017","","","","","","",""
4.0,"","","train",5371.0,"2021-11-22 13:30:10.997560",0.5486429454995271,0.5317352172026382,0.9371196183928592,0.5238520712322966,0.38661586078579463,0.40434411854408103,0.26166697869651667
4.0,"","","val",5371.0,"2021-11-22 13:30:37.137819",0.537921836947698,0.5042383899597246,0.9284631628800939,0.5082790471460946,0.373158930634822,0.3869440327495247,0.24922757489252875
5.0,0.051972582936286926,0.0005615140765418409,"train",5380.0,"2021-11-22 13:30:41.458115","","","","","","",""
5.0,0.050396665930747986,0.0005647638580104052,"train",5400.0,"2021-11-22 13:30:44.653119","","","","","","",""
5.0,0.06480034440755844,0.0005680208693655555,"train",5420.0,"2021-11-22 13:30:48.506755","","","","","","",""
5.0,0.07644138485193253,0.0005712850610575626,"train",5440.0,"2021-11-22 13:30:51.702948","","","","","","",""
5.0,0.0835232064127922,0.0005745563834274588,"train",5460.0,"2021-11-22 13:30:54.885753","","","","","","",""
5.0,0.05609874427318573,0.0005778347867077974,"train",5480.0,"2021-11-22 13:30:58.022872","","","","","","",""
5.0,0.05650430545210838,0.0005811202210234069,"train",5500.0,"2021-11-22 13:31:01.243184","","","","","","",""
5.0,0.08967722952365875,0.0005844126363921515,"train",5520.0,"2021-11-22 13:31:04.400397","","","","","","",""
5.0,0.07491518557071686,0.0005877119827256904,"train",5540.0,"2021-11-22 13:31:07.647324","","","","","","",""
5.0,0.0776040181517601,0.0005910182098302411,"train",5560.0,"2021-11-22 13:31:11.532970","","","","","","",""
5.0,0.05500679090619087,0.0005943312674073407,"train",5580.0,"2021-11-22 13:31:14.778285","","","","","","",""
5.0,0.08459828048944473,0.0005976511050546148,"train",5600.0,"2021-11-22 13:31:18.079506","","","","","","",""
5.0,0.04383712634444237,0.0006009776722665399,"train",5620.0,"2021-11-22 13:31:21.268914","","","","","","",""
5.0,0.06261734664440155,0.0006043109184352153,"train",5640.0,"2021-11-22 13:31:24.481920","","","","","","",""
5.0,0.07392233610153198,0.0006076507928511315,"train",5660.0,"2021-11-22 13:31:27.691965","","","","","","",""
5.0,0.05524871125817299,0.0006109972447039412,"train",5680.0,"2021-11-22 13:31:30.874250","","","","","","",""
5.0,0.08081851154565811,0.0006143502230832331,"train",5700.0,"2021-11-22 13:31:34.606931","","","","","","",""
5.0,0.04915565997362137,0.000617709676979307,"train",5720.0,"2021-11-22 13:31:37.773224","","","","","","",""
5.0,0.041533589363098145,0.0006210755552839484,"train",5740.0,"2021-11-22 13:31:41.007234","","","","","","",""
5.0,0.03826906159520149,0.0006244478067912059,"train",5760.0,"2021-11-22 13:31:44.251750","","","","","","",""
5.0,0.08350756019353867,0.0006278263801981728,"train",5780.0,"2021-11-22 13:31:47.595775","","","","","","",""
5.0,0.07569628953933716,0.0006312112241057643,"train",5800.0,"2021-11-22 13:31:50.876088","","","","","","",""
5.0,0.05847746506333351,0.0006346022870195008,"train",5820.0,"2021-11-22 13:31:54.673469","","","","","","",""
5.0,0.0425131693482399,0.000637999517350293,"train",5840.0,"2021-11-22 13:31:57.858617","","","","","","",""
5.0,0.07722630351781845,0.0006414028634152236,"train",5860.0,"2021-11-22 13:32:01.041056","","","","","","",""
5.0,0.07166384905576706,0.0006448122734383349,"train",5880.0,"2021-11-22 13:32:04.241213","","","","","","",""
5.0,0.055316321551799774,0.0006482276955514185,"train",5900.0,"2021-11-22 13:32:07.437696","","","","","","",""
5.0,0.07329361885786057,0.0006516490777948008,"train",5920.0,"2021-11-22 13:32:10.653319","","","","","","",""
5.0,0.05893988907337189,0.0006550763681181355,"train",5940.0,"2021-11-22 13:32:13.896737","","","","","","",""
5.0,0.05621859058737755,0.0006585095143811968,"train",5960.0,"2021-11-22 13:32:17.822541","","","","","","",""
5.0,0.059680454432964325,0.0006619484643546683,"train",5980.0,"2021-11-22 13:32:21.047674","","","","","","",""
5.0,0.04717843234539032,0.0006653931657209428,"train",6000.0,"2021-11-22 13:32:24.240471","","","","","","",""
5.0,0.0801260694861412,0.0006688435660749145,"train",6020.0,"2021-11-22 13:32:27.421038","","","","","","",""
5.0,0.06956228613853455,0.0006722996129247772,"train",6040.0,"2021-11-22 13:32:30.567623","","","","","","",""
5.0,0.05703834444284439,0.0006757612536928245,"train",6060.0,"2021-11-22 13:32:33.709300","","","","","","",""
5.0,0.08144544810056686,0.0006792284357162465,"train",6080.0,"2021-11-22 13:32:36.855331","","","","","","",""
5.0,0.057506296783685684,0.0006827011062479345,"train",6100.0,"2021-11-22 13:32:40.599885","","","","","","",""
5.0,0.04919224977493286,0.0006861792124572804,"train",6120.0,"2021-11-22 13:32:43.724688","","","","","","",""
5.0,0.06012918800115585,0.0006896627014309827,"train",6140.0,"2021-11-22 13:32:46.881858","","","","","","",""
5.0,0.05415484681725502,0.0006931515201738503,"train",6160.0,"2021-11-22 13:32:50.234047","","","","","","",""
5.0,0.06355654448270798,0.0006966456156096085,"train",6180.0,"2021-11-22 13:32:53.492236","","","","","","",""
5.0,0.06262761354446411,0.0007001449345817074,"train",6200.0,"2021-11-22 13:32:56.711814","","","","","","",""
5.0,0.05320899561047554,0.0007036494238541304,"train",6220.0,"2021-11-22 13:32:59.860701","","","","","","",""
5.0,0.0677572637796402,0.0007071590301122035,"train",6240.0,"2021-11-22 13:33:03.556321","","","","","","",""
5.0,0.06170666590332985,0.0007106736999634062,"train",6260.0,"2021-11-22 13:33:06.704794","","","","","","",""
5.0,0.05969419330358505,0.0007141933799381852,"train",6280.0,"2021-11-22 13:33:09.856297","","","","","","",""
5.0,0.04537191614508629,0.0007177180164907667,"train",6300.0,"2021-11-22 13:33:12.995768","","","","","","",""
5.0,0.05573635175824165,0.0007212475559999706,"train",6320.0,"2021-11-22 13:33:16.122835","","","","","","",""
5.0,0.05515509471297264,0.0007247819447700277,"train",6340.0,"2021-11-22 13:33:19.263327","","","","","","",""
5.0,0.10033176839351654,0.0007283211290313955,"train",6360.0,"2021-11-22 13:33:22.425074","","","","","","",""
5.0,0.05543546751141548,0.000731865054941576,"train",6380.0,"2021-11-22 13:33:26.229511","","","","","","",""
5.0,0.066655233502388,0.0007354136685859363,"train",6400.0,"2021-11-22 13:33:29.342963","","","","","","",""
5.0,0.10339535027742386,0.0007389669159785269,"train",6420.0,"2021-11-22 13:33:32.533654","","","","","","",""
5.0,0.0596892274916172,0.0007425247430629042,"train",6440.0,"2021-11-22 13:33:35.717410","","","","","","",""
5.0,"","","train",6445.0,"2021-11-22 13:35:09.466614",0.562177108346067,0.564951725179937,0.9436645932430934,0.546899161905646,0.4141783598211771,0.4286817141335397,0.28345027021639146
5.0,"","","val",6445.0,"2021-11-22 13:35:35.635068",0.5467354748927288,0.5253368889529175,0.9334591315914416,0.525606804552175,0.3958877821069148,0.40633671551997125,0.26703321479532494
6.0,0.06627874821424484,0.0007460870957129531,"train",6460.0,"2021-11-22 13:35:41.120856","","","","","","",""
6.0,0.052211977541446686,0.0007496539197337094,"train",6480.0,"2021-11-22 13:35:44.382062","","","","","","",""
6.0,0.06688781082630157,0.0007532251608621844,"train",6500.0,"2021-11-22 13:35:47.612814","","","","","","",""
6.0,0.06743954122066498,0.0007568007647681923,"train",6520.0,"2021-11-22 13:35:50.815991","","","","","","",""
6.0,0.05174066126346588,0.0007603806770551738,"train",6540.0,"2021-11-22 13:35:54.721415","","","","","","",""
6.0,0.05745963007211685,0.0007639648432610257,"train",6560.0,"2021-11-22 13:35:57.921267","","","","","","",""
6.0,0.055374402552843094,0.0007675532088589284,"train",6580.0,"2021-11-22 13:36:01.105867","","","","","","",""
6.0,0.061759594827890396,0.0007711457192581771,"train",6600.0,"2021-11-22 13:36:04.326444","","","","","","",""
6.0,0.0582084022462368,0.0007747423198050105,"train",6620.0,"2021-11-22 13:36:07.509859","","","","","","",""
6.0,0.09037230908870697,0.0007783429557834416,"train",6640.0,"2021-11-22 13:36:10.743871","","","","","","",""
6.0,0.05267871543765068,0.0007819475724160931,"train",6660.0,"2021-11-22 13:36:14.038191","","","","","","",""
6.0,0.05311970412731171,0.0007855561148650289,"train",6680.0,"2021-11-22 13:36:17.271024","","","","","","",""
6.0,0.05856959521770477,0.0007891685282325868,"train",6700.0,"2021-11-22 13:36:21.068500","","","","","","",""
6.0,0.057044416666030884,0.0007927847575622171,"train",6720.0,"2021-11-22 13:36:24.239853","","","","","","",""
6.0,0.06692443788051605,0.0007964047478393166,"train",6740.0,"2021-11-22 13:36:27.360699","","","","","","",""
6.0,0.054084908217191696,0.0008000284439920648,"train",6760.0,"2021-11-22 13:36:30.507167","","","","","","",""
6.0,0.08641423285007477,0.0008036557908922641,"train",6780.0,"2021-11-22 13:36:33.624914","","","","","","",""
6.0,0.08446359634399414,0.0008072867333561765,"train",6800.0,"2021-11-22 13:36:36.768903","","","","","","",""
6.0,0.055340301245450974,0.0008109212161453636,"train",6820.0,"2021-11-22 13:36:40.043817","","","","","","",""
6.0,0.06319478899240494,0.0008145591839675277,"train",6840.0,"2021-11-22 13:36:43.274304","","","","","","",""
6.0,0.09574951231479645,0.0008182005814773524,"train",6860.0,"2021-11-22 13:36:46.510874","","","","","","",""
6.0,0.048997435718774796,0.0008218453532773437,"train",6880.0,"2021-11-22 13:36:50.406481","","","","","","",""
6.0,0.05821055918931961,0.0008254934439186747,"train",6900.0,"2021-11-22 13:36:53.636850","","","","","","",""
6.0,0.06459739059209824,0.0008291447979020278,"train",6920.0,"2021-11-22 13:36:56.863434","","","","","","",""
6.0,0.06495578587055206,0.0008327993596784395,"train",6940.0,"2021-11-22 13:37:00.057289","","","","","","",""
6.0,0.07698769122362137,0.0008364570736501449,"train",6960.0,"2021-11-22 13:37:03.217729","","","","","","",""
6.0,0.05853293091058731,0.000840117884171424,"train",6980.0,"2021-11-22 13:37:06.371181","","","","","","",""
6.0,0.0389677956700325,0.0008437817355494491,"train",7000.0,"2021-11-22 13:37:09.591857","","","","","","",""
6.0,0.05832793563604355,0.00084744857204513,"train",7020.0,"2021-11-22 13:37:12.864620","","","","","","",""
6.0,0.051717258989810944,0.0008511183378739639,"train",7040.0,"2021-11-22 13:37:16.660817","","","","","","",""
6.0,0.04401528462767601,0.0008547909772068829,"train",7060.0,"2021-11-22 13:37:19.895723","","","","","","",""
6.0,0.047966647893190384,0.0008584664341711045,"train",7080.0,"2021-11-22 13:37:23.089266","","","","","","",""
6.0,0.06648876518011093,0.0008621446528509795,"train",7100.0,"2021-11-22 13:37:26.293753","","","","","","",""
6.0,0.05502849444746971,0.0008658255772888456,"train",7120.0,"2021-11-22 13:37:29.427411","","","","","","",""
6.0,0.0490691252052784,0.000869509151485876,"train",7140.0,"2021-11-22 13:37:32.561846","","","","","","",""
6.0,0.0804574117064476,0.0008731953194029329,"train",7160.0,"2021-11-22 13:37:35.695722","","","","","","",""
6.0,0.04676220193505287,0.00087688402496142,"train",7180.0,"2021-11-22 13:37:38.844983","","","","","","",""
6.0,0.04849448800086975,0.0008805752120441335,"train",7200.0,"2021-11-22 13:37:42.018758","","","","","","",""
6.0,0.059302423149347305,0.0008842688244961202,"train",7220.0,"2021-11-22 13:37:45.787064","","","","","","",""
6.0,0.06593445688486099,0.0008879648061255272,"train",7240.0,"2021-11-22 13:37:48.938704","","","","","","",""
6.0,0.08070267736911774,0.0008916631007044589,"train",7260.0,"2021-11-22 13:37:52.162228","","","","","","",""
6.0,0.06585428863763809,0.0008953636519698329,"train",7280.0,"2021-11-22 13:37:55.254703","","","","","","",""
6.0,0.07130996137857437,0.0008990664036242354,"train",7300.0,"2021-11-22 13:37:58.354725","","","","","","",""
6.0,0.07551676034927368,0.0009027712993367762,"train",7320.0,"2021-11-22 13:38:01.488362","","","","","","",""
6.0,0.05401439964771271,0.0009064782827439483,"train",7340.0,"2021-11-22 13:38:04.647544","","","","","","",""
6.0,0.06598185002803802,0.0009101872974504838,"train",7360.0,"2021-11-22 13:38:07.810272","","","","","","",""
6.0,0.06711719185113907,0.0009138982870302119,"train",7380.0,"2021-11-22 13:38:11.622142","","","","","","",""
6.0,0.06740818172693253,0.0009176111950269174,"train",7400.0,"2021-11-22 13:38:14.759536","","","","","","",""
6.0,0.05561389401555061,0.0009213259649552001,"train",7420.0,"2021-11-22 13:38:17.915670","","","","","","",""
6.0,0.060430172830820084,0.0009250425403013339,"train",7440.0,"2021-11-22 13:38:21.128774","","","","","","",""
6.0,0.06484439969062805,0.0009287608645241262,"train",7460.0,"2021-11-22 13:38:24.211124","","","","","","",""
6.0,0.060073625296354294,0.0009324808810557777,"train",7480.0,"2021-11-22 13:38:27.313610","","","","","","",""
6.0,0.0705907866358757,0.0009362025333027448,"train",7500.0,"2021-11-22 13:38:30.292636","","","","","","",""
6.0,"","","train",7519.0,"2021-11-22 13:40:07.290455",0.5805137160736374,0.5897453757002857,0.9502028673804443,0.5591116456093395,0.44663439690114115,0.4682371408447837,0.30467774228742117
6.0,"","","val",7519.0,"2021-11-22 13:40:33.032016",0.5643627507827902,0.5468397867223174,0.9395479364402168,0.5353970435935993,0.4154357914835521,0.4344320099312488,0.27769634858720454
7.0,0.063346266746521,0.0009399257646465985,"train",7520.0,"2021-11-22 13:40:35.915145","","","","","","",""
7.0,0.061649903655052185,0.0009436505184448865,"train",7540.0,"2021-11-22 13:40:39.385213","","","","","","",""
7.0,0.06935083121061325,0.0009473767380319958,"train",7560.0,"2021-11-22 13:40:42.573330","","","","","","",""
7.0,0.05253477767109871,0.0009511043667200134,"train",7580.0,"2021-11-22 13:40:46.448464","","","","","","",""
7.0,0.05955984443426132,0.0009548333477995892,"train",7600.0,"2021-11-22 13:40:49.640422","","","","","","",""
7.0,0.05421697348356247,0.0009585636245407995,"train",7620.0,"2021-11-22 13:40:52.797289","","","","","","",""
7.0,0.05016078054904938,0.0009622951401940085,"train",7640.0,"2021-11-22 13:40:55.926993","","","","","","",""
7.0,0.0654415711760521,0.000966027837990733,"train",7660.0,"2021-11-22 13:40:59.106038","","","","","","",""
7.0,0.053692013025283813,0.0009697616611445057,"train",7680.0,"2021-11-22 13:41:02.310859","","","","","","",""
7.0,0.07222021371126175,0.0009734965528517389,"train",7700.0,"2021-11-22 13:41:05.537624","","","","","","",""
7.0,0.0618884339928627,0.0009772324562925877,"train",7720.0,"2021-11-22 13:41:08.800858","","","","","","",""
7.0,0.0657343864440918,0.0009809693146318175,"train",7740.0,"2021-11-22 13:41:12.096836","","","","","","",""
7.0,0.053944554179906845,0.0009847070710196648,"train",7760.0,"2021-11-22 13:41:15.340066","","","","","","",""
7.0,0.05511088669300079,0.0009884456685927043,"train",7780.0,"2021-11-22 13:41:18.542223","","","","","","",""
7.0,0.05285060778260231,0.0009921850504747143,"train",7800.0,"2021-11-22 13:41:22.339326","","","","","","",""
7.0,0.057949673384428024,0.0009959251597775403,"train",7820.0,"2021-11-22 13:41:25.574154","","","","","","",""
7.0,0.057943396270275116,0.0009996659396019616,"train",7840.0,"2021-11-22 13:41:28.806821","","","","","","",""
7.0,0.05102995038032532,0.001003407333038557,"train",7860.0,"2021-11-22 13:41:32.022670","","","","","","",""
7.0,0.06447486579418182,0.00100714928316857,"train",7880.0,"2021-11-22 13:41:35.255051","","","","","","",""
7.0,0.04564407467842102,0.001010891733064775,"train",7900.0,"2021-11-22 13:41:38.520875","","","","","","",""
7.0,0.08254759758710861,0.001014634625792343,"train",7920.0,"2021-11-22 13:41:41.759926","","","","","","",""
7.0,0.048074062913656235,0.0010183779044097092,"train",7940.0,"2021-11-22 13:41:44.977829","","","","","","",""
7.0,0.04075375199317932,0.0010221215119694373,"train",7960.0,"2021-11-22 13:41:48.226447","","","","","","",""
7.0,0.06499408185482025,0.0010258653915190858,"train",7980.0,"2021-11-22 13:41:51.424872","","","","","","",""
7.0,0.0721079483628273,0.0010296094861020778,"train",8000.0,"2021-11-22 13:41:54.585058","","","","","","",""
7.0,0.051136504858732224,0.0010333537387585629,"train",8020.0,"2021-11-22 13:41:58.345081","","","","","","",""
7.0,0.05139623582363129,0.0010370980925262867,"train",8040.0,"2021-11-22 13:42:01.526272","","","","","","",""
7.0,0.07100784778594971,0.0010408424904414563,"train",8060.0,"2021-11-22 13:42:04.699111","","","","","","",""
7.0,0.07778186351060867,0.001044586875539608,"train",8080.0,"2021-11-22 13:42:07.860112","","","","","","",""
7.0,0.0837937444448471,0.0010483311908564717,"train",8100.0,"2021-11-22 13:42:11.093949","","","","","","",""
7.0,0.046916041523218155,0.0010520753794288399,"train",8120.0,"2021-11-22 13:42:14.317388","","","","","","",""
7.0,0.054026827216148376,0.001055819384295433,"train",8140.0,"2021-11-22 13:42:17.538804","","","","","","",""
7.0,0.026908067986369133,0.0010595631484977667,"train",8160.0,"2021-11-22 13:42:20.784624","","","","","","",""
7.0,0.06376655399799347,0.001063306615081017,"train",8180.0,"2021-11-22 13:42:24.022542","","","","","","",""
7.0,0.08342768996953964,0.0010670497270948882,"train",8200.0,"2021-11-22 13:42:27.214952","","","","","","",""
7.0,0.05695529282093048,0.001070792427594479,"train",8220.0,"2021-11-22 13:42:30.431394","","","","","","",""
7.0,0.055757373571395874,0.001074534659641148,"train",8240.0,"2021-11-22 13:42:34.265760","","","","","","",""
7.0,0.054262980818748474,0.0010782763663033806,"train",8260.0,"2021-11-22 13:42:37.455119","","","","","","",""
7.0,0.06485937535762787,0.0010820174906576554,"train",8280.0,"2021-11-22 13:42:40.661243","","","","","","",""
7.0,0.04646231606602669,0.0010857579757893097,"train",8300.0,"2021-11-22 13:42:43.855219","","","","","","",""
7.0,0.054909709841012955,0.001089497764793405,"train",8320.0,"2021-11-22 13:42:47.061716","","","","","","",""
7.0,0.06950638443231583,0.0010932368007755939,"train",8340.0,"2021-11-22 13:42:50.302298","","","","","","",""
7.0,0.059548087418079376,0.001096975026852984,"train",8360.0,"2021-11-22 13:42:53.562633","","","","","","",""
7.0,0.06902888417243958,0.0011007123861550051,"train",8380.0,"2021-11-22 13:42:56.756229","","","","","","",""
7.0,0.042551666498184204,0.0011044488218242728,"train",8400.0,"2021-11-22 13:43:00.019643","","","","","","",""
7.0,0.05943645164370537,0.0011081842770174545,"train",8420.0,"2021-11-22 13:43:03.282977","","","","","","",""
7.0,0.05290485545992851,0.0011119186949061339,"train",8440.0,"2021-11-22 13:43:06.487316","","","","","","",""
7.0,0.038161564618349075,0.0011156520186776748,"train",8460.0,"2021-11-22 13:43:09.706113","","","","","","",""
7.0,0.07052965462207794,0.001119384191536087,"train",8480.0,"2021-11-22 13:43:13.459262","","","","","","",""
7.0,0.05834254249930382,0.001123115156702889,"train",8500.0,"2021-11-22 13:43:16.689492","","","","","","",""
7.0,0.07723573595285416,0.0011268448574179722,"train",8520.0,"2021-11-22 13:43:19.983044","","","","","","",""
7.0,0.07953201979398727,0.0011305732369404644,"train",8540.0,"2021-11-22 13:43:23.214226","","","","","","",""
7.0,0.10043852776288986,0.0011343002385495933,"train",8560.0,"2021-11-22 13:43:26.451692","","","","","","",""
7.0,0.0567539781332016,0.0011380258055455482,"train",8580.0,"2021-11-22 13:43:29.689479","","","","","","",""
7.0,"","","train",8593.0,"2021-11-22 13:45:09.208898",0.5931747071236265,0.6064755031539336,0.9533275783780046,0.5820786915310106,0.46071793073286216,0.478333609162953,0.31746107264801277
7.0,"","","val",8593.0,"2021-11-22 13:45:34.202169",0.5721906529050215,0.557509593102478,0.9387317402428775,0.5534644867403794,0.43213322675459753,0.4469636019244051,0.29163396224999727
8.0,0.04694921895861626,0.0011417498812503453,"train",8600.0,"2021-11-22 13:45:38.137145","","","","","","",""
8.0,0.07550515979528427,0.0011454724090086865,"train",8620.0,"2021-11-22 13:45:41.468659","","","","","","",""
8.0,0.06646739691495895,0.0011491933321888235,"train",8640.0,"2021-11-22 13:45:44.736866","","","","","","",""
8.0,0.06377008557319641,0.0011529125941834196,"train",8660.0,"2021-11-22 13:45:48.591459","","","","","","",""
8.0,0.08561033010482788,0.001156630138410409,"train",8680.0,"2021-11-22 13:45:51.623712","","","","","","",""
8.0,0.08474491536617279,0.0011603459083138596,"train",8700.0,"2021-11-22 13:45:54.650184","","","","","","",""
8.0,0.050468429923057556,0.001164059847364832,"train",8720.0,"2021-11-22 13:45:57.790504","","","","","","",""
8.0,0.06120378524065018,0.0011677718990622402,"train",8740.0,"2021-11-22 13:46:00.946041","","","","","","",""
8.0,0.04150199145078659,0.001171482006933711,"train",8760.0,"2021-11-22 13:46:04.716262","","","","","","",""
8.0,0.055294789373874664,0.0011751901145364433,"train",8780.0,"2021-11-22 13:46:07.940978","","","","","","",""
8.0,0.055727001279592514,0.0011788961654580661,"train",8800.0,"2021-11-22 13:46:11.163846","","","","","","",""
8.0,0.06417421996593475,0.0011826001033174971,"train",8820.0,"2021-11-22 13:46:14.399008","","","","","","",""
8.0,0.04632988199591637,0.0011863018717658022,"train",8840.0,"2021-11-22 13:46:17.640558","","","","","","",""
8.0,0.048709746450185776,0.0011900014144870488,"train",8860.0,"2021-11-22 13:46:20.824817","","","","","","",""
8.0,0.05078452453017235,0.0011936986751991657,"train",8880.0,"2021-11-22 13:46:24.635160","","","","","","",""
8.0,0.07642343640327454,0.0011973935976547995,"train",8900.0,"2021-11-22 13:46:27.893256","","","","","","",""
8.0,0.07646014541387558,0.0012010861256421686,"train",8920.0,"2021-11-22 13:46:31.115723","","","","","","",""
8.0,0.05925966799259186,0.0012047762029859172,"train",8940.0,"2021-11-22 13:46:34.322989","","","","","","",""
8.0,0.0887741893529892,0.0012084637735479751,"train",8960.0,"2021-11-22 13:46:37.589084","","","","","","",""
8.0,0.0664084181189537,0.0012121487812284063,"train",8980.0,"2021-11-22 13:46:40.869497","","","","","","",""
8.0,0.09106072783470154,0.0012158311699662643,"train",9000.0,"2021-11-22 13:46:44.712212","","","","","","",""
8.0,0.04437899589538574,0.0012195108837404472,"train",9020.0,"2021-11-22 13:46:48.000658","","","","","","",""
8.0,0.04865007847547531,0.0012231878665705453,"train",9040.0,"2021-11-22 13:46:51.293368","","","","","","",""
8.0,0.06810057163238525,0.001226862062517698,"train",9060.0,"2021-11-22 13:46:54.510738","","","","","","",""
8.0,0.04109979420900345,0.001230533415685441,"train",9080.0,"2021-11-22 13:46:57.669335","","","","","","",""
8.0,0.06395713984966278,0.001234201870220557,"train",9100.0,"2021-11-22 13:47:00.824562","","","","","","",""
8.0,0.06074148789048195,0.0012378673703139283,"train",9120.0,"2021-11-22 13:47:04.666915","","","","","","",""
8.0,0.07006704062223434,0.0012415298602013831,"train",9140.0,"2021-11-22 13:47:07.837863","","","","","","",""
8.0,0.05224274843931198,0.0012451892841645433,"train",9160.0,"2021-11-22 13:47:10.998734","","","","","","",""
8.0,0.06134830415248871,0.0012488455865316754,"train",9180.0,"2021-11-22 13:47:14.168785","","","","","","",""
8.0,0.07052745670080185,0.001252498711678535,"train",9200.0,"2021-11-22 13:47:17.298932","","","","","","",""
8.0,0.06009913980960846,0.0012561486040292124,"train",9220.0,"2021-11-22 13:47:20.998465","","","","","","",""
8.0,0.07615513354539871,0.0012597952080569811,"train",9240.0,"2021-11-22 13:47:24.237467","","","","","","",""
8.0,0.043188270181417465,0.001263438468285139,"train",9260.0,"2021-11-22 13:47:27.419623","","","","","","",""
8.0,0.08749403059482574,0.0012670783292878544,"train",9280.0,"2021-11-22 13:47:30.612899","","","","","","",""
8.0,0.047660499811172485,0.0012707147356910105,"train",9300.0,"2021-11-22 13:47:33.859089","","","","","","",""
8.0,0.0645977333188057,0.0012743476321730438,"train",9320.0,"2021-11-22 13:47:37.091348","","","","","","",""
8.0,0.05959213152527809,0.0012779769634657895,"train",9340.0,"2021-11-22 13:47:40.826244","","","","","","",""
8.0,0.0720316544175148,0.001281602674355321,"train",9360.0,"2021-11-22 13:47:43.947298","","","","","","",""
8.0,0.060101814568042755,0.0012852247096827893,"train",9380.0,"2021-11-22 13:47:47.076696","","","","","","",""
8.0,0.03978046402335167,0.0012888430143452622,"train",9400.0,"2021-11-22 13:47:50.217167","","","","","","",""
8.0,0.06317750364542007,0.0012924575332965644,"train",9420.0,"2021-11-22 13:47:53.344021","","","","","","",""
8.0,0.03907298296689987,0.0012960682115481124,"train",9440.0,"2021-11-22 13:47:56.477480","","","","","","",""
8.0,0.0590285025537014,0.0012996749941697528,"train",9460.0,"2021-11-22 13:48:00.290205","","","","","","",""
8.0,0.04084542766213417,0.0013032778262905972,"train",9480.0,"2021-11-22 13:48:03.488190","","","","","","",""
8.0,0.061044685542583466,0.001306876653099857,"train",9500.0,"2021-11-22 13:48:06.701321","","","","","","",""
8.0,0.07516449689865112,0.0013104714198476778,"train",9520.0,"2021-11-22 13:48:09.881292","","","","","","",""
8.0,0.05577188357710838,0.0013140620718459718,"train",9540.0,"2021-11-22 13:48:13.065082","","","","","","",""
8.0,0.05185426399111748,0.0013176485544692499,"train",9560.0,"2021-11-22 13:48:16.290172","","","","","","",""
8.0,0.03554863855242729,0.0013212308131554519,"train",9580.0,"2021-11-22 13:48:20.136019","","","","","","",""
8.0,0.04996850714087486,0.0013248087934067793,"train",9600.0,"2021-11-22 13:48:23.440060","","","","","","",""
8.0,0.05875449627637863,0.0013283824407905212,"train",9620.0,"2021-11-22 13:48:26.854607","","","","","","",""
8.0,0.058853793889284134,0.001331951700939883,"train",9640.0,"2021-11-22 13:48:30.229927","","","","","","",""
8.0,0.052694208920001984,0.001335516519554816,"train",9660.0,"2021-11-22 13:48:33.488430","","","","","","",""
8.0,"","","train",9667.0,"2021-11-22 13:50:07.178504",0.6121661936986103,0.6347559572182578,0.9591906660249625,0.6058875047772153,0.4813586070094831,0.501119819273397,0.33528928974150973
8.0,"","","val",9667.0,"2021-11-22 13:50:31.771056",0.58407746723878,0.5745307379814844,0.9447815165025234,0.5740488805188597,0.4414809181887678,0.4598888108053083,0.29839805813344494
9.0,0.060128919780254364,0.0013390768424028409,"train",9680.0,"2021-11-22 13:50:36.732905","","","","","","",""
9.0,0.06522414088249207,0.0013426326153198726,"train",9700.0,"2021-11-22 13:50:40.670725","","","","","","",""
9.0,0.06561004370450974,0.0013461837842110472,"train",9720.0,"2021-11-22 13:50:43.866924","","","","","","",""
9.0,0.052302081137895584,0.0013497302950515413,"train",9740.0,"2021-11-22 13:50:47.037210","","","","","","",""
9.0,0.0731467679142952,0.001353272093887396,"train",9760.0,"2021-11-22 13:50:50.223260","","","","","","",""
9.0,0.06917012482881546,0.0013568091268363384,"train",9780.0,"2021-11-22 13:50:53.530570","","","","","","",""
9.0,0.07767423242330551,0.001360341340088599,"train",9800.0,"2021-11-22 13:50:56.780803","","","","","","",""
9.0,0.07748547196388245,0.0013638686799077317,"train",9820.0,"2021-11-22 13:51:00.553313","","","","","","",""
9.0,0.043334897607564926,0.001367391092631432,"train",9840.0,"2021-11-22 13:51:03.734339","","","","","","",""
9.0,0.04249816760420799,0.0013709085246723508,"train",9860.0,"2021-11-22 13:51:06.961486","","","","","","",""
9.0,0.07795285433530807,0.0013744209225189138,"train",9880.0,"2021-11-22 13:51:10.226641","","","","","","",""
9.0,0.07966473698616028,0.0013779282327361314,"train",9900.0,"2021-11-22 13:51:13.518592","","","","","","",""
9.0,0.06026125326752663,0.0013814304019664136,"train",9920.0,"2021-11-22 13:51:16.771635","","","","","","",""
9.0,0.051581431180238724,0.001384927376930382,"train",9940.0,"2021-11-22 13:51:19.968158","","","","","","",""
9.0,0.042023349553346634,0.0013884191044276797,"train",9960.0,"2021-11-22 13:51:23.838775","","","","","","",""
9.0,0.036448635160923004,0.0013919055313377806,"train",9980.0,"2021-11-22 13:51:27.066603","","","","","","",""
9.0,0.04574289545416832,0.001395386604620798,"train",10000.0,"2021-11-22 13:51:30.343123","","","","","","",""
9.0,0.07540902495384216,0.001398862271318292,"train",10020.0,"2021-11-22 13:51:33.621230","","","","","","",""
9.0,0.070823073387146,0.0014023324785540719,"train",10040.0,"2021-11-22 13:51:36.897967","","","","","","",""
9.0,0.04134204983711243,0.0014057971735350065,"train",10060.0,"2021-11-22 13:51:40.145325","","","","","","",""
9.0,0.06097397580742836,0.001409256303551822,"train",10080.0,"2021-11-22 13:51:43.375584","","","","","","",""
9.0,0.048016972839832306,0.0014127098159799054,"train",10100.0,"2021-11-22 13:51:47.144280","","","","","","",""
9.0,0.07156084477901459,0.001416157658280107,"train",10120.0,"2021-11-22 13:51:50.360554","","","","","","",""
9.0,0.0534747876226902,0.001419599777999537,"train",10140.0,"2021-11-22 13:51:53.653946","","","","","","",""
9.0,0.06465832144021988,0.0014230361227723651,"train",10160.0,"2021-11-22 13:51:56.822080","","","","","","",""
9.0,0.051315441727638245,0.0014264666403206172,"train",10180.0,"2021-11-22 13:51:59.972114","","","","","","",""
9.0,0.03484019637107849,0.0014298912784549691,"train",10200.0,"2021-11-22 13:52:03.230107","","","","","","",""
9.0,0.05256682261824608,0.0014333099850755418,"train",10220.0,"2021-11-22 13:52:06.472784","","","","","","",""
9.0,0.07841137796640396,0.001436722708172695,"train",10240.0,"2021-11-22 13:52:10.194121","","","","","","",""
9.0,0.04422946274280548,0.0014401293958278168,"train",10260.0,"2021-11-22 13:52:13.327340","","","","","","",""
9.0,0.03957070782780647,0.0014435299962141128,"train",10280.0,"2021-11-22 13:52:16.509729","","","","","","",""
9.0,0.09165659546852112,0.001446924457597397,"train",10300.0,"2021-11-22 13:52:19.724642","","","","","","",""
9.0,0.08971299231052399,0.0014503127283368776,"train",10320.0,"2021-11-22 13:52:22.926321","","","","","","",""
9.0,0.07118123769760132,0.001453694756885942,"train",10340.0,"2021-11-22 13:52:26.120688","","","","","","",""
9.0,0.04903732240200043,0.001457070491792942,"train",10360.0,"2021-11-22 13:52:29.332088","","","","","","",""
9.0,0.04116768389940262,0.001460439881701976,"train",10380.0,"2021-11-22 13:52:33.129718","","","","","","",""
9.0,0.0986020565032959,0.0014638028753536703,"train",10400.0,"2021-11-22 13:52:36.298150","","","","","","",""
9.0,0.043105341494083405,0.00146715942158596,"train",10420.0,"2021-11-22 13:52:39.444555","","","","","","",""
9.0,0.052160173654556274,0.0014705094693348644,"train",10440.0,"2021-11-22 13:52:42.585412","","","","","","",""
9.0,0.04649936407804489,0.001473852967635268,"train",10460.0,"2021-11-22 13:52:45.732104","","","","","","",""
9.0,0.04990316554903984,0.001477189865621693,"train",10480.0,"2021-11-22 13:52:48.876851","","","","","","",""
9.0,0.07512080669403076,0.0014805201125290728,"train",10500.0,"2021-11-22 13:52:52.024598","","","","","","",""
9.0,0.048650145530700684,0.0014838436576935271,"train",10520.0,"2021-11-22 13:52:56.026672","","","","","","",""
9.0,0.06621411442756653,0.0014871604505531295,"train",10540.0,"2021-11-22 13:52:59.346303","","","","","","",""
9.0,0.08251041918992996,0.0014904704406486786,"train",10560.0,"2021-11-22 13:53:02.515082","","","","","","",""
9.0,0.04584723338484764,0.001493773577624465,"train",10580.0,"2021-11-22 13:53:05.733852","","","","","","",""
9.0,0.03721672296524048,0.0014970698112290383,"train",10600.0,"2021-11-22 13:53:08.885572","","","","","","",""
9.0,0.05865376442670822,0.0015003590913159695,"train",10620.0,"2021-11-22 13:53:12.007079","","","","","","",""
9.0,0.06982149928808212,0.0015036413678446159,"train",10640.0,"2021-11-22 13:53:15.155187","","","","","","",""
9.0,0.06842202693223953,0.0015069165908808825,"train",10660.0,"2021-11-22 13:53:18.890759","","","","","","",""
9.0,0.048798032104969025,0.0015101847105979792,"train",10680.0,"2021-11-22 13:53:22.049917","","","","","","",""
9.0,0.07294189929962158,0.0015134456772771814,"train",10700.0,"2021-11-22 13:53:25.221065","","","","","","",""
9.0,0.060200996696949005,0.001516699441308586,"train",10720.0,"2021-11-22 13:53:28.436013","","","","","","",""
9.0,0.04552911967039108,0.0015199459531918644,"train",10740.0,"2021-11-22 13:53:31.614413","","","","","","",""
9.0,"","","train",10741.0,"2021-11-22 13:55:04.484498",0.6175653059739504,0.6531694234746765,0.9628388545135173,0.6150651954494173,0.49804240878212486,0.5223907297477844,0.3471661967738612
9.0,"","","val",10741.0,"2021-11-22 13:55:29.509470",0.5929490896439754,0.5940818089836185,0.948365485725559,0.5801049758058,0.461673072249269,0.4805305183120688,0.310580048039859
10.0,0.062210388481616974,0.001523185163537017,"train",10760.0,"2021-11-22 13:55:35.477805","","","","","","",""
10.0,0.05124500021338463,0.0015264170230651257,"train",10780.0,"2021-11-22 13:55:38.655581","","","","","","",""
10.0,0.042408812791109085,0.0015296414826091002,"train",10800.0,"2021-11-22 13:55:42.498339","","","","","","",""
10.0,0.052248720079660416,0.001532858493114429,"train",10820.0,"2021-11-22 13:55:45.668975","","","","","","",""
10.0,0.07607739418745041,0.0015360680056399256,"train",10840.0,"2021-11-22 13:55:48.853994","","","","","","",""
10.0,0.07564485818147659,0.00153926997135847,"train",10860.0,"2021-11-22 13:55:52.071915","","","","","","",""
10.0,0.03652774915099144,0.0015424643415577555,"train",10880.0,"2021-11-22 13:55:55.298488","","","","","","",""
10.0,0.03535609319806099,0.0015456510676410279,"train",10900.0,"2021-11-22 13:55:58.519095","","","","","","",""
10.0,0.03152453154325485,0.001548830101127823,"train",10920.0,"2021-11-22 13:56:01.743153","","","","","","",""
10.0,0.028677629306912422,0.001552001393654708,"train",10940.0,"2021-11-22 13:56:04.954517","","","","","","",""
10.0,0.034268397837877274,0.0015551648969760147,"train",10960.0,"2021-11-22 13:56:08.139632","","","","","","",""
10.0,0.05279900133609772,0.0015583205629645732,"train",10980.0,"2021-11-22 13:56:11.914647","","","","","","",""
10.0,0.06695172190666199,0.0015614683436124463,"train",11000.0,"2021-11-22 13:56:15.067763","","","","","","",""
10.0,0.04743011295795441,0.0015646081910316572,"train",11020.0,"2021-11-22 13:56:18.211979","","","","","","",""
10.0,0.037161894142627716,0.00156774005745492,"train",11040.0,"2021-11-22 13:56:21.360658","","","","","","",""
10.0,0.06389524042606354,0.001570863895236366,"train",11060.0,"2021-11-22 13:56:24.493346","","","","","","",""
10.0,0.08485378324985504,0.001573979656852267,"train",11080.0,"2021-11-22 13:56:27.655526","","","","","","",""
10.0,0.04478364810347557,0.0015770872949017606,"train",11100.0,"2021-11-22 13:56:30.753405","","","","","","",""
10.0,0.036201514303684235,0.0015801867621075705,"train",11120.0,"2021-11-22 13:56:33.886496","","","","","","",""
10.0,0.07480038702487946,0.001583278011316724,"train",11140.0,"2021-11-22 13:56:37.696649","","","","","","",""
10.0,0.06680178642272949,0.0015863609955012725,"train",11160.0,"2021-11-22 13:56:40.822668","","","","","","",""
10.0,0.04376858100295067,0.0015894356677590045,"train",11180.0,"2021-11-22 13:56:43.904390","","","","","","",""
10.0,0.04318349063396454,0.0015925019813141596,"train",11200.0,"2021-11-22 13:56:46.986128","","","","","","",""
10.0,0.030344856902956963,0.0015955598895181413,"train",11220.0,"2021-11-22 13:56:50.084313","","","","","","",""
10.0,0.04461232200264931,0.0015986093458502254,"train",11240.0,"2021-11-22 13:56:53.173464","","","","","","",""
10.0,0.051369328051805496,0.001601650303918267,"train",11260.0,"2021-11-22 13:56:56.315281","","","","","","",""
10.0,0.03841843456029892,0.0016046827174594105,"train",11280.0,"2021-11-22 13:56:59.509191","","","","","","",""
10.0,0.040694691240787506,0.001607706540340787,"train",11300.0,"2021-11-22 13:57:02.783939","","","","","","",""
10.0,0.04785718023777008,0.0016107217265602207,"train",11320.0,"2021-11-22 13:57:06.639995","","","","","","",""
10.0,0.04918800666928291,0.0016137282302469288,"train",11340.0,"2021-11-22 13:57:09.851095","","","","","","",""
10.0,0.05873154103755951,0.0016167260056622161,"train",11360.0,"2021-11-22 13:57:13.073967","","","","","","",""
10.0,0.06136786565184593,0.001619715007200173,"train",11380.0,"2021-11-22 13:57:16.213451","","","","","","",""
10.0,0.07921572774648666,0.0016226951893883704,"train",11400.0,"2021-11-22 13:57:19.368770","","","","","","",""
10.0,0.05079801380634308,0.0016256665068885498,"train",11420.0,"2021-11-22 13:57:22.568183","","","","","","",""
10.0,0.052543312311172485,0.001628628914497312,"train",11440.0,"2021-11-22 13:57:25.776870","","","","","","",""
10.0,0.04939305782318115,0.001631582367146808,"train",11460.0,"2021-11-22 13:57:28.976752","","","","","","",""
10.0,0.04352164268493652,0.0016345268199054223,"train",11480.0,"2021-11-22 13:57:32.840460","","","","","","",""
10.0,0.07304328680038452,0.001637462227978456,"train",11500.0,"2021-11-22 13:57:36.056408","","","","","","",""
10.0,0.055446360260248184,0.0016403885467088102,"train",11520.0,"2021-11-22 13:57:39.252641","","","","","","",""
10.0,0.048658587038517,0.0016433057315776653,"train",11540.0,"2021-11-22 13:57:42.502747","","","","","","",""
10.0,0.06817296147346497,0.0016462137382051555,"train",11560.0,"2021-11-22 13:57:45.718403","","","","","","",""
10.0,0.04554484784603119,0.0016491125223510469,"train",11580.0,"2021-11-22 13:57:48.911490","","","","","","",""
10.0,0.047085754573345184,0.00165200203991541,"train",11600.0,"2021-11-22 13:57:52.100748","","","","","","",""
10.0,0.062476348131895065,0.001654882246939289,"train",11620.0,"2021-11-22 13:57:55.259200","","","","","","",""
10.0,0.03683721646666527,0.0016577530996053724,"train",11640.0,"2021-11-22 13:57:58.361620","","","","","","",""
10.0,0.06769344955682755,0.0016606145542386595,"train",11660.0,"2021-11-22 13:58:02.061307","","","","","","",""
10.0,0.04920714721083641,0.0016634665673071224,"train",11680.0,"2021-11-22 13:58:05.201416","","","","","","",""
10.0,0.035336628556251526,0.0016663090954223718,"train",11700.0,"2021-11-22 13:58:08.399325","","","","","","",""
10.0,0.06223578751087189,0.0016691420953403148,"train",11720.0,"2021-11-22 13:58:11.559014","","","","","","",""
10.0,0.0513361357152462,0.0016719655239618128,"train",11740.0,"2021-11-22 13:58:14.711907","","","","","","",""
10.0,0.051804278045892715,0.0016747793383333387,"train",11760.0,"2021-11-22 13:58:17.895609","","","","","","",""
10.0,0.05428241193294525,0.0016775834956476293,"train",11780.0,"2021-11-22 13:58:21.141812","","","","","","",""
10.0,0.05006956681609154,0.0016803779532443355,"train",11800.0,"2021-11-22 13:58:24.385747","","","","","","",""
10.0,"","","train",11815.0,"2021-11-22 14:00:00.826327",0.6144218875063668,0.6603813484998695,0.9641270302916488,0.6212918377148923,0.5178629583174681,0.5341987238312814,0.3602535468163852
10.0,"","","val",11815.0,"2021-11-22 14:00:26.169593",0.5857590165835556,0.5847589638617581,0.9492972576499419,0.5798808077169411,0.4699523689132151,0.4860699218657481,0.3135919914607795
11.0,0.04004688560962677,0.0016831626686106733,"train",11820.0,"2021-11-22 14:00:29.776555","","","","","","",""
11.0,0.03683072328567505,0.0016859375993820704,"train",11840.0,"2021-11-22 14:00:33.912255","","","","","","",""
11.0,0.07943806797266006,0.0016887027033428083,"train",11860.0,"2021-11-22 14:00:37.175683","","","","","","",""
11.0,0.03905939310789108,0.0016914579384266673,"train",11880.0,"2021-11-22 14:00:40.405416","","","","","","",""
11.0,0.04270453006029129,0.0016942032627175658,"train",11900.0,"2021-11-22 14:00:43.646625","","","","","","",""
11.0,0.05456666648387909,0.0016969386344501964,"train",11920.0,"2021-11-22 14:00:46.889272","","","","","","",""
11.0,0.05600574612617493,0.0016996640120106633,"train",11940.0,"2021-11-22 14:00:50.071702","","","","","","",""
11.0,0.06087406724691391,0.0017023793539371146,"train",11960.0,"2021-11-22 14:00:53.237613","","","","","","",""
11.0,0.05299541354179382,0.0017050846189203721,"train",11980.0,"2021-11-22 14:00:56.434362","","","","","","",""
11.0,0.06656068563461304,0.0017077797658045617,"train",12000.0,"2021-11-22 14:00:59.591016","","","","","","",""
11.0,0.07975596934556961,0.001710464753587738,"train",12020.0,"2021-11-22 14:01:02.731640","","","","","","",""
11.0,0.04458025470376015,0.001713139541422509,"train",12040.0,"2021-11-22 14:01:05.870847","","","","","","",""
11.0,0.06621796637773514,0.0017158040886166564,"train",12060.0,"2021-11-22 14:01:09.643275","","","","","","",""
11.0,0.04379376769065857,0.0017184583546337555,"train",12080.0,"2021-11-22 14:01:12.824115","","","","","","",""
11.0,0.05008750036358833,0.001721102299093792,"train",12100.0,"2021-11-22 14:01:15.955217","","","","","","",""
11.0,0.07298912853002548,0.0017237358817737759,"train",12120.0,"2021-11-22 14:01:19.058088","","","","","","",""
11.0,0.07339733839035034,0.0017263590626083532,"train",12140.0,"2021-11-22 14:01:22.289178","","","","","","",""
11.0,0.050147999078035355,0.0017289718016904171,"train",12160.0,"2021-11-22 14:01:25.424428","","","","","","",""
11.0,0.0699504017829895,0.0017315740592717122,"train",12180.0,"2021-11-22 14:01:28.551441","","","","","","",""
11.0,0.06409162282943726,0.0017341657957634408,"train",12200.0,"2021-11-22 14:01:31.702960","","","","","","",""
11.0,0.043111711740493774,0.0017367469717368671,"train",12220.0,"2021-11-22 14:01:34.885979","","","","","","",""
11.0,0.04759531468153,0.001739317547923913,"train",12240.0,"2021-11-22 14:01:38.150280","","","","","","",""
11.0,0.08441269397735596,0.0017418774852177585,"train",12260.0,"2021-11-22 14:01:41.368055","","","","","","",""
11.0,0.04984171316027641,0.001744426744673436,"train",12280.0,"2021-11-22 14:01:45.157672","","","","","","",""
11.0,0.03777928277850151,0.001746965287508422,"train",12300.0,"2021-11-22 14:01:48.382822","","","","","","",""
11.0,0.06854873895645142,0.0017494930751032276,"train",12320.0,"2021-11-22 14:01:51.585692","","","","","","",""
11.0,0.04319934919476509,0.001752010069001987,"train",12340.0,"2021-11-22 14:01:54.778551","","","","","","",""
11.0,0.038489580154418945,0.0017545162309130404,"train",12360.0,"2021-11-22 14:01:58.014798","","","","","","",""
11.0,0.03892887756228447,0.001757011522709518,"train",12380.0,"2021-11-22 14:02:01.207196","","","","","","",""
11.0,0.04524940997362137,0.001759495906429921,"train",12400.0,"2021-11-22 14:02:04.399669","","","","","","",""
11.0,0.05856458842754364,0.0017619693442786962,"train",12420.0,"2021-11-22 14:02:07.621481","","","","","","",""
11.0,0.04804513603448868,0.001764431798626813,"train",12440.0,"2021-11-22 14:02:10.851941","","","","","","",""
11.0,0.06908804178237915,0.0017668832320123372,"train",12460.0,"2021-11-22 14:02:14.108026","","","","","","",""
11.0,0.05305573716759682,0.0017693236071409974,"train",12480.0,"2021-11-22 14:02:17.389349","","","","","","",""
11.0,0.057507939636707306,0.0017717528868867543,"train",12500.0,"2021-11-22 14:02:21.267454","","","","","","",""
11.0,0.03344732150435448,0.001774171034292367,"train",12520.0,"2021-11-22 14:02:24.491214","","","","","","",""
11.0,0.03997861221432686,0.0017765780125699525,"train",12540.0,"2021-11-22 14:02:27.713468","","","","","","",""
11.0,0.055492665618658066,0.0017789737851015462,"train",12560.0,"2021-11-22 14:02:30.926090","","","","","","",""
11.0,0.047521162778139114,0.0017813583154396603,"train",12580.0,"2021-11-22 14:02:34.146963","","","","","","",""
11.0,0.0616443008184433,0.001783731567307837,"train",12600.0,"2021-11-22 14:02:37.396113","","","","","","",""
11.0,0.05806008726358414,0.0017860935046012001,"train",12620.0,"2021-11-22 14:02:40.664488","","","","","","",""
11.0,0.06470311433076859,0.0017884440913870057,"train",12640.0,"2021-11-22 14:02:43.918434","","","","","","",""
11.0,0.059740547090768814,0.0017907832919051877,"train",12660.0,"2021-11-22 14:02:47.155276","","","","","","",""
11.0,0.04623165354132652,0.0017931110705689019,"train",12680.0,"2021-11-22 14:02:50.443049","","","","","","",""
11.0,0.0362822487950325,0.0017954273919650677,"train",12700.0,"2021-11-22 14:02:53.726085","","","","","","",""
11.0,0.04011817276477814,0.0017977322208549075,"train",12720.0,"2021-11-22 14:02:56.975313","","","","","","",""
11.0,0.038316529244184494,0.0018000255221744808,"train",12740.0,"2021-11-22 14:03:00.782670","","","","","","",""
11.0,0.041303664445877075,0.0018023072610352197,"train",12760.0,"2021-11-22 14:03:03.994877","","","","","","",""
11.0,0.07600104063749313,0.0018045774027244592,"train",12780.0,"2021-11-22 14:03:07.227038","","","","","","",""
11.0,0.03157224506139755,0.0018068359127059648,"train",12800.0,"2021-11-22 14:03:10.423263","","","","","","",""
11.0,0.05573234707117081,0.0018090827566204569,"train",12820.0,"2021-11-22 14:03:13.608871","","","","","","",""
11.0,0.04037933796644211,0.0018113179002861364,"train",12840.0,"2021-11-22 14:03:16.791276","","","","","","",""
11.0,0.03632159158587456,0.0018135413096992024,"train",12860.0,"2021-11-22 14:03:20.018446","","","","","","",""
11.0,0.05786244571208954,0.0018157529510343694,"train",12880.0,"2021-11-22 14:03:23.267321","","","","","","",""
11.0,"","","train",12889.0,"2021-11-22 14:04:56.459486",0.635785490795314,0.687994795781392,0.9687817132869182,0.642051055665314,0.5331321285265873,0.5547583528118321,0.3775050217542365
11.0,"","","val",12889.0,"2021-11-22 14:05:21.362786",0.5993273802620898,0.605733136716014,0.9511010576346697,0.5937588203092325,0.482399704955547,0.5006248298837632,0.32628962667336636
12.0,0.0515916645526886,0.0018179527906453834,"train",12900.0,"2021-11-22 14:05:26.053314","","","","","","",""
12.0,0.05026776343584061,0.0018201407950655334,"train",12920.0,"2021-11-22 14:05:30.091865","","","","","","",""
12.0,0.043904341757297516,0.0018223169310081588,"train",12940.0,"2021-11-22 14:05:33.319319","","","","","","",""
12.0,0.06069249287247658,0.0018244811653671583,"train",12960.0,"2021-11-22 14:05:36.515613","","","","","","",""
12.0,0.043294090777635574,0.001826633465217492,"train",12980.0,"2021-11-22 14:05:39.750551","","","","","","",""
12.0,0.037664372473955154,0.0018287737978156821,"train",13000.0,"2021-11-22 14:05:42.973109","","","","","","",""
12.0,0.05613280460238457,0.0018309021306003126,"train",13020.0,"2021-11-22 14:05:46.195937","","","","","","",""
12.0,0.04712865129113197,0.0018330184311925232,"train",13040.0,"2021-11-22 14:05:49.882320","","","","","","",""
12.0,0.04262888431549072,0.001835122667396502,"train",13060.0,"2021-11-22 14:05:53.047154","","","","","","",""
12.0,0.0490289032459259,0.0018372148071999763,"train",13080.0,"2021-11-22 14:05:56.233907","","","","","","",""
12.0,0.047878433018922806,0.001839294818774699,"train",13100.0,"2021-11-22 14:05:59.446591","","","","","","",""
12.0,0.05170293152332306,0.0018413626704769318,"train",13120.0,"2021-11-22 14:06:02.641603","","","","","","",""
12.0,0.08097733557224274,0.0018434183308479286,"train",13140.0,"2021-11-22 14:06:05.844967","","","","","","",""
12.0,0.041472721844911575,0.001845461768614413,"train",13160.0,"2021-11-22 14:06:09.652185","","","","","","",""
12.0,0.05549003556370735,0.0018474929526890534,"train",13180.0,"2021-11-22 14:06:12.810718","","","","","","",""
12.0,0.04027329012751579,0.0018495118521709374,"train",13200.0,"2021-11-22 14:06:15.913671","","","","","","",""
12.0,0.07034172117710114,0.0018515184363460412,"train",13220.0,"2021-11-22 14:06:19.032275","","","","","","",""
12.0,0.070101298391819,0.0018535126746876964,"train",13240.0,"2021-11-22 14:06:22.164584","","","","","","",""
12.0,0.06186576187610626,0.001855494536857055,"train",13260.0,"2021-11-22 14:06:25.303987","","","","","","",""
12.0,0.08475201576948166,0.001857463992703551,"train",13280.0,"2021-11-22 14:06:29.014556","","","","","","",""
12.0,0.0433121919631958,0.001859421012265359,"train",13300.0,"2021-11-22 14:06:32.277537","","","","","","",""
12.0,0.047340959310531616,0.0018613655657698492,"train",13320.0,"2021-11-22 14:06:35.458351","","","","","","",""
12.0,0.036467716097831726,0.0018632976236340423,"train",13340.0,"2021-11-22 14:06:38.650022","","","","","","",""
12.0,0.04188460856676102,0.0018652171564650568,"train",13360.0,"2021-11-22 14:06:41.823016","","","","","","",""
12.0,0.0499773807823658,0.0018671241350605588,"train",13380.0,"2021-11-22 14:06:44.994583","","","","","","",""
12.0,0.07181903719902039,0.001869018530409205,"train",13400.0,"2021-11-22 14:06:48.791313","","","","","","",""
12.0,0.042194996029138565,0.0018709003136910837,"train",13420.0,"2021-11-22 14:06:52.001532","","","","","","",""
12.0,0.05086902529001236,0.0018727694562781538,"train",13440.0,"2021-11-22 14:06:55.187690","","","","","","",""
12.0,0.06409274786710739,0.001874625929734681,"train",13460.0,"2021-11-22 14:06:58.515540","","","","","","",""
12.0,0.05214172229170799,0.0018764697058176688,"train",13480.0,"2021-11-22 14:07:01.703637","","","","","","",""
12.0,0.048512350767850876,0.001878300756477289,"train",13500.0,"2021-11-22 14:07:05.539242","","","","","","",""
12.0,0.038059577345848083,0.0018801190538573096,"train",13520.0,"2021-11-22 14:07:08.786006","","","","","","",""
12.0,0.06709007173776627,0.0018819245702955162,"train",13540.0,"2021-11-22 14:07:12.003391","","","","","","",""
12.0,0.06932711601257324,0.0018837172783241344,"train",13560.0,"2021-11-22 14:07:15.211608","","","","","","",""
12.0,0.03832494467496872,0.0018854971506702478,"train",13580.0,"2021-11-22 14:07:18.526610","","","","","","",""
12.0,0.06685532629489899,0.0018872641602562118,"train",13600.0,"2021-11-22 14:07:21.806851","","","","","","",""
12.0,0.04989152029156685,0.0018890182802000666,"train",13620.0,"2021-11-22 14:07:25.714562","","","","","","",""
12.0,0.042382288724184036,0.001890759483815946,"train",13640.0,"2021-11-22 14:07:28.935781","","","","","","",""
12.0,0.035597436130046844,0.0018924877446144823,"train",13660.0,"2021-11-22 14:07:32.176302","","","","","","",""
12.0,0.05469712242484093,0.0018942030363032112,"train",13680.0,"2021-11-22 14:07:35.406040","","","","","","",""
12.0,0.05008041486144066,0.0018959053327869695,"train",13700.0,"2021-11-22 14:07:38.655796","","","","","","",""
12.0,0.03567826375365257,0.0018975946081682942,"train",13720.0,"2021-11-22 14:07:41.891641","","","","","","",""
12.0,0.06903176009654999,0.001899270836747816,"train",13740.0,"2021-11-22 14:07:45.700262","","","","","","",""
12.0,0.05674102529883385,0.0019009339930246482,"train",13760.0,"2021-11-22 14:07:48.980667","","","","","","",""
12.0,0.06448390334844589,0.0019025840516967779,"train",13780.0,"2021-11-22 14:07:52.204171","","","","","","",""
12.0,0.07833009958267212,0.001904220987661449,"train",13800.0,"2021-11-22 14:07:55.318774","","","","","","",""
12.0,0.057379111647605896,0.0019058447760155438,"train",13820.0,"2021-11-22 14:07:58.511385","","","","","","",""
12.0,0.034408651292324066,0.001907455392055963,"train",13840.0,"2021-11-22 14:08:01.708980","","","","","","",""
12.0,0.0446612723171711,0.0019090528112800014,"train",13860.0,"2021-11-22 14:08:05.464357","","","","","","",""
12.0,0.061266276985406876,0.001910637009385719,"train",13880.0,"2021-11-22 14:08:08.625149","","","","","","",""
12.0,0.055319055914878845,0.0019122079622723132,"train",13900.0,"2021-11-22 14:08:11.860822","","","","","","",""
12.0,0.08628783375024796,0.0019137656460404843,"train",13920.0,"2021-11-22 14:08:15.114140","","","","","","",""
12.0,0.05712653696537018,0.001915310036992798,"train",13940.0,"2021-11-22 14:08:18.287400","","","","","","",""
12.0,0.05554968863725662,0.0019168411116340476,"train",13960.0,"2021-11-22 14:08:22.052784","","","","","","",""
12.0,"","","train",13963.0,"2021-11-22 14:09:57.273468",0.6473841228261661,0.697903469237342,0.9701398955445993,0.6681865679409845,0.5578920553017455,0.5898744947799286,0.38868155909636537
12.0,"","","val",13963.0,"2021-11-22 14:10:23.310384",0.6046619505972399,0.6023774004786195,0.9512329219306104,0.6144050893910759,0.48895104549784707,0.5161716686906173,0.32685055232790916
13.0,0.06144135072827339,0.001918358846671611,"train",13980.0,"2021-11-22 14:10:29.021546","","","","","","",""
13.0,0.06802931427955627,0.001919863219015804,"train",14000.0,"2021-11-22 14:10:32.320008","","","","","","",""
13.0,0.03116287663578987,0.0019213542057802332,"train",14020.0,"2021-11-22 14:10:35.555151","","","","","","",""
13.0,0.03967661410570145,0.0019228317842821434,"train",14040.0,"2021-11-22 14:10:38.759121","","","","","","",""
13.0,0.04258367791771889,0.0019242959320427617,"train",14060.0,"2021-11-22 14:10:41.959138","","","","","","",""
13.0,0.043995216488838196,0.0019257466267876419,"train",14080.0,"2021-11-22 14:10:45.213750","","","","","","",""
13.0,0.03007960505783558,0.0019271838464470004,"train",14100.0,"2021-11-22 14:10:49.247334","","","","","","",""
13.0,0.061716508120298386,0.0019286075691560547,"train",14120.0,"2021-11-22 14:10:52.400627","","","","","","",""
13.0,0.07291102409362793,0.0019300177732553536,"train",14140.0,"2021-11-22 14:10:55.517199","","","","","","",""
13.0,0.04378361627459526,0.0019314144372911094,"train",14160.0,"2021-11-22 14:10:58.620171","","","","","","",""
13.0,0.041722219437360764,0.0019327975400155214,"train",14180.0,"2021-11-22 14:11:01.712455","","","","","","",""
13.0,0.06470507383346558,0.001934167060387101,"train",14200.0,"2021-11-22 14:11:04.974985","","","","","","",""
13.0,0.04183471202850342,0.0019355229775709917,"train",14220.0,"2021-11-22 14:11:08.224096","","","","","","",""
13.0,0.04284520074725151,0.0019368652709392852,"train",14240.0,"2021-11-22 14:11:12.122091","","","","","","",""
13.0,0.041456300765275955,0.0019381939200713357,"train",14260.0,"2021-11-22 14:11:15.347483","","","","","","",""
13.0,0.037034519016742706,0.0019395089047540715,"train",14280.0,"2021-11-22 14:11:18.576243","","","","","","",""
13.0,0.04391986131668091,0.0019408102049823003,"train",14300.0,"2021-11-22 14:11:21.804488","","","","","","",""
13.0,0.053866975009441376,0.0019420978009590157,"train",14320.0,"2021-11-22 14:11:25.035534","","","","","","",""
13.0,0.04700835421681404,0.0019433716730956974,"train",14340.0,"2021-11-22 14:11:28.270020","","","","","","",""
13.0,0.0685649961233139,0.0019446318020126087,"train",14360.0,"2021-11-22 14:11:31.492883","","","","","","",""
13.0,0.0431864932179451,0.0019458781685390927,"train",14380.0,"2021-11-22 14:11:35.317650","","","","","","",""
13.0,0.034970395267009735,0.0019471107537138632,"train",14400.0,"2021-11-22 14:11:38.539349","","","","","","",""
13.0,0.04599445313215256,0.0019483295387852924,"train",14420.0,"2021-11-22 14:11:41.753312","","","","","","",""
13.0,0.04789605736732483,0.0019495345052116977,"train",14440.0,"2021-11-22 14:11:45.000496","","","","","","",""
13.0,0.03236838057637215,0.0019507256346616227,"train",14460.0,"2021-11-22 14:11:48.254194","","","","","","",""
13.0,0.03832578659057617,0.0019519029090141163,"train",14480.0,"2021-11-22 14:11:51.477525","","","","","","",""
13.0,0.033456701785326004,0.001953066310359009,"train",14500.0,"2021-11-22 14:11:54.684653","","","","","","",""
13.0,0.0636608824133873,0.001954215820997184,"train",14520.0,"2021-11-22 14:11:58.479933","","","","","","",""
13.0,0.04090886935591698,0.0019553514234408476,"train",14540.0,"2021-11-22 14:12:01.681295","","","","","","",""
13.0,0.06388358026742935,0.0019564731004137956,"train",14560.0,"2021-11-22 14:12:04.935448","","","","","","",""
13.0,0.030793828889727592,0.0019575808348516743,"train",14580.0,"2021-11-22 14:12:08.275050","","","","","","",""
13.0,0.05863327533006668,0.0019586746099022425,"train",14600.0,"2021-11-22 14:12:11.627776","","","","","","",""
13.0,0.04544711858034134,0.001959754408925626,"train",14620.0,"2021-11-22 14:12:14.982249","","","","","","",""
13.0,0.06938423216342926,0.001960820215494572,"train",14640.0,"2021-11-22 14:12:18.304856","","","","","","",""
13.0,0.042529262602329254,0.0019618720133946967,"train",14660.0,"2021-11-22 14:12:22.297537","","","","","","",""
13.0,0.04945814609527588,0.001962909786624736,"train",14680.0,"2021-11-22 14:12:25.524861","","","","","","",""
13.0,0.04585167393088341,0.0019639335193967853,"train",14700.0,"2021-11-22 14:12:28.723169","","","","","","",""
13.0,0.0762200653553009,0.001964943196136541,"train",14720.0,"2021-11-22 14:12:31.905004","","","","","","",""
13.0,0.037072595208883286,0.0019659388014835375,"train",14740.0,"2021-11-22 14:12:35.138202","","","","","","",""
13.0,0.05053615942597389,0.0019669203202913816,"train",14760.0,"2021-11-22 14:12:38.367051","","","","","","",""
13.0,0.04625760018825531,0.0019678877376279815,"train",14780.0,"2021-11-22 14:12:41.595962","","","","","","",""
13.0,0.05438005179166794,0.001968841038775774,"train",14800.0,"2021-11-22 14:12:45.495828","","","","","","",""
13.0,0.048308029770851135,0.0019697802092319507,"train",14820.0,"2021-11-22 14:12:48.743615","","","","","","",""
13.0,0.03406253829598427,0.0019707052347086754,"train",14840.0,"2021-11-22 14:12:51.963433","","","","","","",""
13.0,0.03674197942018509,0.001971616101133304,"train",14860.0,"2021-11-22 14:12:55.201851","","","","","","",""
13.0,0.08876311033964157,0.001972512794648596,"train",14880.0,"2021-11-22 14:12:58.431713","","","","","","",""
13.0,0.07057472318410873,0.0019733953016129297,"train",14900.0,"2021-11-22 14:13:01.701696","","","","","","",""
13.0,0.06334234774112701,0.0019742636086005046,"train",14920.0,"2021-11-22 14:13:04.946083","","","","","","",""
13.0,0.0882067084312439,0.0019751177024015486,"train",14940.0,"2021-11-22 14:13:08.792432","","","","","","",""
13.0,0.08004865795373917,0.0019759575700225187,"train",14960.0,"2021-11-22 14:13:11.998818","","","","","","",""
13.0,0.053566236048936844,0.0019767831986862985,"train",14980.0,"2021-11-22 14:13:15.193040","","","","","","",""
13.0,0.05634690448641777,0.001977594575832392,"train",15000.0,"2021-11-22 14:13:18.384084","","","","","","",""
13.0,0.028031980618834496,0.0019783916891171153,"train",15020.0,"2021-11-22 14:13:21.542786","","","","","","",""
13.0,"","","train",15037.0,"2021-11-22 14:14:56.736704",0.6493924179582333,0.7170540600289055,0.9724403844472658,0.658346980860303,0.550252041069696,0.5859712019038444,0.39082762066276494
13.0,"","","val",15037.0,"2021-11-22 14:15:22.945126",0.6006610228458773,0.6151664463122667,0.9528128805700582,0.5994108190404024,0.47934767461542466,0.5118967271392135,0.3230759141371277
14.0,0.03726606443524361,0.001979174526413784,"train",15040.0,"2021-11-22 14:15:26.281049","","","","","","",""
14.0,0.04013410210609436,0.0019799430758128973,"train",15060.0,"2021-11-22 14:15:29.731459","","","","","","",""
14.0,0.05891290307044983,0.0019806973256223217,"train",15080.0,"2021-11-22 14:15:33.768014","","","","","","",""
14.0,0.050018925219774246,0.0019814372643674654,"train",15100.0,"2021-11-22 14:15:37.134592","","","","","","",""
14.0,0.05634323135018349,0.0019821628807914545,"train",15120.0,"2021-11-22 14:15:40.396579","","","","","","",""
14.0,0.036235060542821884,0.0019828741638553042,"train",15140.0,"2021-11-22 14:15:43.631483","","","","","","",""
14.0,0.06639468669891357,0.0019835711027380875,"train",15160.0,"2021-11-22 14:15:46.842676","","","","","","",""
14.0,0.044468898326158524,0.001984253686837098,"train",15180.0,"2021-11-22 14:15:50.032902","","","","","","",""
14.0,0.04897819459438324,0.001984921905768013,"train",15200.0,"2021-11-22 14:15:53.289314","","","","","","",""
14.0,0.0468914695084095,0.00198557574936505,"train",15220.0,"2021-11-22 14:15:56.541158","","","","","","",""
14.0,0.0607333742082119,0.0019862152076811222,"train",15240.0,"2021-11-22 14:16:00.428870","","","","","","",""
14.0,0.033058278262615204,0.001986840270987991,"train",15260.0,"2021-11-22 14:16:03.586987","","","","","","",""
14.0,0.03408517315983772,0.0019874509297764104,"train",15280.0,"2021-11-22 14:16:06.731996","","","","","","",""
14.0,0.0611693374812603,0.001988047174756275,"train",15300.0,"2021-11-22 14:16:09.837682","","","","","","",""
14.0,0.05613003671169281,0.0019886289968567617,"train",15320.0,"2021-11-22 14:16:12.940731","","","","","","",""
14.0,0.05208152160048485,0.0019891963872264644,"train",15340.0,"2021-11-22 14:16:16.057074","","","","","","",""
14.0,0.05813897028565407,0.0019897493372335305,"train",15360.0,"2021-11-22 14:16:19.184078","","","","","","",""
14.0,0.041668158024549484,0.001990287838465794,"train",15380.0,"2021-11-22 14:16:22.417102","","","","","","",""
14.0,0.037595514208078384,0.0019908118827308995,"train",15400.0,"2021-11-22 14:16:25.574570","","","","","","",""
14.0,0.04777169227600098,0.001991321462056431,"train",15420.0,"2021-11-22 14:16:29.389159","","","","","","",""
14.0,0.057195473462343216,0.0019918165686900304,"train",15440.0,"2021-11-22 14:16:32.593090","","","","","","",""
14.0,0.04821963235735893,0.001992297195099516,"train",15460.0,"2021-11-22 14:16:35.684264","","","","","","",""
14.0,0.041588544845581055,0.001992763333972998,"train",15480.0,"2021-11-22 14:16:38.836259","","","","","","",""
14.0,0.04448573663830757,0.0019932149782189885,"train",15500.0,"2021-11-22 14:16:42.082449","","","","","","",""
14.0,0.0679527074098587,0.001993652120966511,"train",15520.0,"2021-11-22 14:16:45.262955","","","","","","",""
14.0,0.04515150934457779,0.001994074755565202,"train",15540.0,"2021-11-22 14:16:48.374502","","","","","","",""
14.0,0.039109569042921066,0.0019944828755854172,"train",15560.0,"2021-11-22 14:16:51.601212","","","","","","",""
14.0,0.07286194711923599,0.001994876474818323,"train",15580.0,"2021-11-22 14:16:55.486566","","","","","","",""
14.0,0.04226146265864372,0.001995255547275996,"train",15600.0,"2021-11-22 14:16:58.707993","","","","","","",""
14.0,0.05540502816438675,0.001995620087191512,"train",15620.0,"2021-11-22 14:17:01.965568","","","","","","",""
14.0,0.04543100297451019,0.001995970089019033,"train",15640.0,"2021-11-22 14:17:05.245342","","","","","","",""
14.0,0.04863367974758148,0.001996305547433895,"train",15660.0,"2021-11-22 14:17:08.523949","","","","","","",""
14.0,0.03294412046670914,0.001996626457332684,"train",15680.0,"2021-11-22 14:17:11.846052","","","","","","",""
14.0,0.0482834167778492,0.0019969328138333175,"train",15700.0,"2021-11-22 14:17:15.118434","","","","","","",""
14.0,0.049850620329380035,0.0019972246122751166,"train",15720.0,"2021-11-22 14:17:18.341767","","","","","","",""
14.0,0.026565905660390854,0.0019975018482188797,"train",15740.0,"2021-11-22 14:17:21.544947","","","","","","",""
14.0,0.06350163370370865,0.001997764517446946,"train",15760.0,"2021-11-22 14:17:25.323423","","","","","","",""
14.0,0.07610509544610977,0.0019980126159632626,"train",15780.0,"2021-11-22 14:17:28.543806","","","","","","",""
14.0,0.027574405074119568,0.001998246139993445,"train",15800.0,"2021-11-22 14:17:31.774155","","","","","","",""
14.0,0.02318323403596878,0.0019984650859848335,"train",15820.0,"2021-11-22 14:17:35.149296","","","","","","",""
14.0,0.04322991147637367,0.0019986694506065475,"train",15840.0,"2021-11-22 14:17:38.553341","","","","","","",""
14.0,0.05195567384362221,0.001998859230749537,"train",15860.0,"2021-11-22 14:17:41.977162","","","","","","",""
14.0,0.04592547193169594,0.0019990344235266294,"train",15880.0,"2021-11-22 14:17:45.391627","","","","","","",""
14.0,0.04177948459982872,0.0019991950262725727,"train",15900.0,"2021-11-22 14:17:48.708942","","","","","","",""
14.0,0.04002616927027702,0.0019993410365440768,"train",15920.0,"2021-11-22 14:17:52.404234","","","","","","",""
14.0,0.05458630248904228,0.0019994724521198515,"train",15940.0,"2021-11-22 14:17:55.516367","","","","","","",""
14.0,0.029131092131137848,0.001999589271000638,"train",15960.0,"2021-11-22 14:17:58.570156","","","","","","",""
14.0,0.05777580291032791,0.001999691491409242,"train",15980.0,"2021-11-22 14:18:01.639007","","","","","","",""
14.0,0.04557214677333832,0.0019997791117905587,"train",16000.0,"2021-11-22 14:18:04.799680","","","","","","",""
14.0,0.05701029673218727,0.0019998521308115967,"train",16020.0,"2021-11-22 14:18:07.918276","","","","","","",""
14.0,0.07097384333610535,0.0019999105473614996,"train",16040.0,"2021-11-22 14:18:11.018863","","","","","","",""
14.0,0.048571616411209106,0.001999954360551562,"train",16060.0,"2021-11-22 14:18:14.057942","","","","","","",""
14.0,0.0794418603181839,0.001999983569715243,"train",16080.0,"2021-11-22 14:18:17.086636","","","","","","",""
14.0,0.06789994239807129,0.001999998174408176,"train",16100.0,"2021-11-22 14:18:20.688983","","","","","","",""
14.0,"","","train",16111.0,"2021-11-22 14:19:58.536112",0.6672487811977007,0.7405852195937696,0.9760354416253125,0.6801207123794,0.5927906387182891,0.6278508492741769,0.4287954565151922
14.0,"","","val",16111.0,"2021-11-22 14:20:23.613791",0.6119679925779891,0.625436961436338,0.9574220642182341,0.612807279748835,0.5157118802049554,0.5426197151543496,0.3502671891637962
15.0,0.031169982627034187,0.0019999996507605177,"train",16120.0,"2021-11-22 14:20:27.974022","","","","","","",""
15.0,0.08199567347764969,0.0019999968568461227,"train",16140.0,"2021-11-22 14:20:31.225411","","","","","","",""
15.0,0.06325088441371918,0.001999991269025138,"train",16160.0,"2021-11-22 14:20:34.418239","","","","","","",""
15.0,0.0775802955031395,0.001999982887313176,"train",16180.0,"2021-11-22 14:20:37.606786","","","","","","",""
15.0,0.07529928535223007,0.001999971711733655,"train",16200.0,"2021-11-22 14:20:40.881709","","","","","","",""
15.0,0.051087696105241776,0.0019999577423177985,"train",16220.0,"2021-11-22 14:20:43.924691","","","","","","",""
15.0,0.055000390857458115,0.0019999409791046354,"train",16240.0,"2021-11-22 14:20:46.956199","","","","","","",""
15.0,0.059164877980947495,0.0019999214221410014,"train",16260.0,"2021-11-22 14:20:50.039761","","","","","","",""
15.0,0.04400387406349182,0.0019998990714815376,"train",16280.0,"2021-11-22 14:20:53.199866","","","","","","",""
15.0,0.04666697978973389,0.001999873927188689,"train",16300.0,"2021-11-22 14:20:56.455772","","","","","","",""
15.0,0.04338711127638817,0.0019998459893327083,"train",16320.0,"2021-11-22 14:21:00.389023","","","","","","",""
15.0,0.05774101987481117,0.001999815257991651,"train",16340.0,"2021-11-22 14:21:03.544143","","","","","","",""
15.0,0.03559983894228935,0.0019997817332513784,"train",16360.0,"2021-11-22 14:21:06.767001","","","","","","",""
15.0,0.07058601081371307,0.0019997454152055555,"train",16380.0,"2021-11-22 14:21:09.917610","","","","","","",""
15.0,0.03508986532688141,0.0019997063039556536,"train",16400.0,"2021-11-22 14:21:13.035071","","","","","","",""
15.0,0.06319508701562881,0.0019996643996109454,"train",16420.0,"2021-11-22 14:21:16.138089","","","","","","",""
15.0,0.05005589872598648,0.0019996197022885093,"train",16440.0,"2021-11-22 14:21:19.311606","","","","","","",""
15.0,0.07914740592241287,0.001999572212113226,"train",16460.0,"2021-11-22 14:21:22.543420","","","","","","",""
15.0,0.03916127234697342,0.0019995219292177793,"train",16480.0,"2021-11-22 14:21:25.693227","","","","","","",""
15.0,0.062493037432432175,0.0019994688537426563,"train",16500.0,"2021-11-22 14:21:28.861700","","","","","","",""
15.0,0.038657281547784805,0.0019994129858361465,"train",16520.0,"2021-11-22 14:21:32.023693","","","","","","",""
15.0,0.04420550540089607,0.00199935432565434,"train",16540.0,"2021-11-22 14:21:35.769319","","","","","","",""
15.0,0.05631602928042412,0.0019992928733611292,"train",16560.0,"2021-11-22 14:21:39.054255","","","","","","",""
15.0,0.027799496427178383,0.001999228629128207,"train",16580.0,"2021-11-22 14:21:42.332093","","","","","","",""
15.0,0.0695096030831337,0.0019991615931350677,"train",16600.0,"2021-11-22 14:21:45.547610","","","","","","",""
15.0,0.04573589563369751,0.0019990917655690046,"train",16620.0,"2021-11-22 14:21:48.765545","","","","","","",""
15.0,0.03241162374615669,0.001999019146625111,"train",16640.0,"2021-11-22 14:21:51.961248","","","","","","",""
15.0,0.04172474890947342,0.0019989437365062783,"train",16660.0,"2021-11-22 14:21:55.067343","","","","","","",""
15.0,0.031743478029966354,0.0019988655354231974,"train",16680.0,"2021-11-22 14:21:58.321132","","","","","","",""
15.0,0.048045624047517776,0.001998784543594356,"train",16700.0,"2021-11-22 14:22:01.536646","","","","","","",""
15.0,0.039344221353530884,0.0019987007612460397,"train",16720.0,"2021-11-22 14:22:04.693864","","","","","","",""
15.0,0.05579943209886551,0.0019986141886123303,"train",16740.0,"2021-11-22 14:22:07.897335","","","","","","",""
15.0,0.04647877812385559,0.001998524825935105,"train",16760.0,"2021-11-22 14:22:11.105166","","","","","","",""
15.0,0.03813949599862099,0.0019984326734640363,"train",16780.0,"2021-11-22 14:22:14.859751","","","","","","",""
15.0,0.04819517210125923,0.0019983377314565925,"train",16800.0,"2021-11-22 14:22:17.996748","","","","","","",""
15.0,0.03656382113695145,0.0019982400001780335,"train",16820.0,"2021-11-22 14:22:21.247196","","","","","","",""
15.0,0.04020579159259796,0.001998139479901414,"train",16840.0,"2021-11-22 14:22:24.461641","","","","","","",""
15.0,0.04142853245139122,0.0019980361709075797,"train",16860.0,"2021-11-22 14:22:27.668224","","","","","","",""
15.0,0.06183158606290817,0.001997930073485169,"train",16880.0,"2021-11-22 14:22:30.896162","","","","","","",""
15.0,0.04008756950497627,0.0019978211879306098,"train",16900.0,"2021-11-22 14:22:34.102899","","","","","","",""
15.0,0.04394366219639778,0.00199770951454812,"train",16920.0,"2021-11-22 14:22:37.340324","","","","","","",""
15.0,0.0592530332505703,0.001997595053649708,"train",16940.0,"2021-11-22 14:22:40.572447","","","","","","",""
15.0,0.040957801043987274,0.0019974778055551687,"train",16960.0,"2021-11-22 14:22:43.816066","","","","","","",""
15.0,0.04551568999886513,0.001997357770592084,"train",16980.0,"2021-11-22 14:22:47.069252","","","","","","",""
15.0,0.04914659261703491,0.0019972349490958233,"train",17000.0,"2021-11-22 14:22:51.037188","","","","","","",""
15.0,0.03926578164100647,0.0019971093414095403,"train",17020.0,"2021-11-22 14:22:54.259254","","","","","","",""
15.0,0.07365787029266357,0.0019969809478841746,"train",17040.0,"2021-11-22 14:22:57.554067","","","","","","",""
15.0,0.05336546152830124,0.0019968497688784476,"train",17060.0,"2021-11-22 14:23:00.907788","","","","","","",""
15.0,0.042023852467536926,0.001996715804758864,"train",17080.0,"2021-11-22 14:23:04.231143","","","","","","",""
15.0,0.06300348788499832,0.00199657905589971,"train",17100.0,"2021-11-22 14:23:07.545314","","","","","","",""
15.0,0.05900219455361366,0.001996439522683051,"train",17120.0,"2021-11-22 14:23:10.821347","","","","","","",""
15.0,0.05858921259641647,0.0019962972054987337,"train",17140.0,"2021-11-22 14:23:14.157378","","","","","","",""
15.0,0.028326276689767838,0.001996152104744381,"train",17160.0,"2021-11-22 14:23:17.411652","","","","","","",""
15.0,0.07861191034317017,0.0019960042208253936,"train",17180.0,"2021-11-22 14:23:20.611362","","","","","","",""
15.0,"","","train",17185.0,"2021-11-22 14:24:53.460178",0.6850178272575129,0.7618734360636664,0.9787486552709334,0.7130931077712678,0.6149651174412429,0.6512304720452555,0.44877509894452855
15.0,"","","val",17185.0,"2021-11-22 14:25:18.481600",0.6219413197263134,0.6318378759427645,0.9597670804070548,0.6345895440677861,0.5248704814700262,0.5525396110868763,0.3567185924500056
16.0,0.03782777488231659,0.0019958535541549495,"train",17200.0,"2021-11-22 14:25:23.886716","","","","","","",""
16.0,0.07320398092269897,0.0019957001051539988,"train",17220.0,"2021-11-22 14:25:27.887514","","","","","","",""
16.0,0.056097306311130524,0.0019955438742512684,"train",17240.0,"2021-11-22 14:25:31.108128","","","","","","",""
16.0,0.07490568608045578,0.0019953848618832542,"train",17260.0,"2021-11-22 14:25:34.399745","","","","","","",""
16.0,0.04125729948282242,0.0019952230684942263,"train",17280.0,"2021-11-22 14:25:37.702213","","","","","","",""
16.0,0.03740505129098892,0.0019950584945362232,"train",17300.0,"2021-11-22 14:25:40.846726","","","","","","",""
16.0,0.06508307158946991,0.001994891140469052,"train",17320.0,"2021-11-22 14:25:44.559034","","","","","","",""
16.0,0.05513165891170502,0.0019947210067602886,"train",17340.0,"2021-11-22 14:25:47.703667","","","","","","",""
16.0,0.06204059720039368,0.0019945480938852733,"train",17360.0,"2021-11-22 14:25:50.817684","","","","","","",""
16.0,0.03797918185591698,0.0019943724023271125,"train",17380.0,"2021-11-22 14:25:53.940297","","","","","","",""
16.0,0.06634201109409332,0.0019941939325766747,"train",17400.0,"2021-11-22 14:25:57.241626","","","","","","",""
16.0,0.06102612987160683,0.0019940126851325925,"train",17420.0,"2021-11-22 14:26:00.474170","","","","","","",""
16.0,0.07321002334356308,0.001993828660501257,"train",17440.0,"2021-11-22 14:26:04.315026","","","","","","",""
16.0,0.039302319288253784,0.00199364185919682,"train",17460.0,"2021-11-22 14:26:07.493429","","","","","","",""
16.0,0.03452569991350174,0.00199345228174119,"train",17480.0,"2021-11-22 14:26:10.657307","","","","","","",""
16.0,0.04838235676288605,0.001993259928664033,"train",17500.0,"2021-11-22 14:26:13.830009","","","","","","",""
16.0,0.040576450526714325,0.0019930648005027692,"train",17520.0,"2021-11-22 14:26:16.995541","","","","","","",""
16.0,0.055197086185216904,0.0019928668978025726,"train",17540.0,"2021-11-22 14:26:20.163847","","","","","","",""
16.0,0.0550665520131588,0.0019926662211163684,"train",17560.0,"2021-11-22 14:26:23.950914","","","","","","",""
16.0,0.04496540501713753,0.001992462771004833,"train",17580.0,"2021-11-22 14:26:27.125411","","","","","","",""
16.0,0.047614190727472305,0.0019922565480363905,"train",17600.0,"2021-11-22 14:26:30.378194","","","","","","",""
16.0,0.05288763716816902,0.001992047552787213,"train",17620.0,"2021-11-22 14:26:33.605862","","","","","","",""
16.0,0.04776157811284065,0.0019918357858412184,"train",17640.0,"2021-11-22 14:26:36.894778","","","","","","",""
16.0,0.058489490300416946,0.001991621247790067,"train",17660.0,"2021-11-22 14:26:40.122063","","","","","","",""
16.0,0.07430072873830795,0.0019914039392331627,"train",17680.0,"2021-11-22 14:26:43.955774","","","","","","",""
16.0,0.036246079951524734,0.00199118386077765,"train",17700.0,"2021-11-22 14:26:47.190641","","","","","","",""
16.0,0.06318982690572739,0.0019909610130384122,"train",17720.0,"2021-11-22 14:26:50.324052","","","","","","",""
16.0,0.04712558910250664,0.0019907353966380687,"train",17740.0,"2021-11-22 14:26:53.536519","","","","","","",""
16.0,0.03288034349679947,0.0019905070122069753,"train",17760.0,"2021-11-22 14:26:56.737669","","","","","","",""
16.0,0.07315947115421295,0.001990275860383222,"train",17780.0,"2021-11-22 14:27:00.528812","","","","","","",""
16.0,0.032638996839523315,0.001990041941812629,"train",17800.0,"2021-11-22 14:27:03.705659","","","","","","",""
16.0,0.05455520749092102,0.0019898052571487483,"train",17820.0,"2021-11-22 14:27:06.870460","","","","","","",""
16.0,0.055015601217746735,0.0019895658070528594,"train",17840.0,"2021-11-22 14:27:10.039283","","","","","","",""
16.0,0.05062068998813629,0.001989323592193968,"train",17860.0,"2021-11-22 14:27:13.232551","","","","","","",""
16.0,0.041146278381347656,0.001989078613248805,"train",17880.0,"2021-11-22 14:27:16.398031","","","","","","",""
16.0,0.0352175347507,0.0019888308709018233,"train",17900.0,"2021-11-22 14:27:20.235310","","","","","","",""
16.0,0.037494126707315445,0.0019885803658451972,"train",17920.0,"2021-11-22 14:27:23.388282","","","","","","",""
16.0,0.07284513115882874,0.001988327098778819,"train",17940.0,"2021-11-22 14:27:26.573428","","","","","","",""
16.0,0.0707700252532959,0.0019880710704102984,"train",17960.0,"2021-11-22 14:27:29.806729","","","","","","",""
16.0,0.03267093002796173,0.00198781228145496,"train",17980.0,"2021-11-22 14:27:33.032555","","","","","","",""
16.0,0.04575423151254654,0.0019875507326358407,"train",18000.0,"2021-11-22 14:27:36.281707","","","","","","",""
16.0,0.0793873593211174,0.0019872864246836893,"train",18020.0,"2021-11-22 14:27:40.122303","","","","","","",""
16.0,0.03846331313252449,0.001987019358336962,"train",18040.0,"2021-11-22 14:27:43.379183","","","","","","",""
16.0,0.04666953161358833,0.0019867495343418237,"train",18060.0,"2021-11-22 14:27:46.576271","","","","","","",""
16.0,0.052297886461019516,0.001986476953452142,"train",18080.0,"2021-11-22 14:27:49.822976","","","","","","",""
16.0,0.06689443439245224,0.0019862016164294877,"train",18100.0,"2021-11-22 14:27:53.052990","","","","","","",""
16.0,0.031270842999219894,0.001985923524043133,"train",18120.0,"2021-11-22 14:27:56.286724","","","","","","",""
16.0,0.038879286497831345,0.001985642677070047,"train",18140.0,"2021-11-22 14:28:00.070916","","","","","","",""
16.0,0.03451423719525337,0.0019853590762948957,"train",18160.0,"2021-11-22 14:28:03.272431","","","","","","",""
16.0,0.05654335767030716,0.001985072722510039,"train",18180.0,"2021-11-22 14:28:06.475766","","","","","","",""
16.0,0.05621591955423355,0.001984783616515528,"train",18200.0,"2021-11-22 14:28:09.692300","","","","","","",""
16.0,0.04469890519976616,0.0019844917591191036,"train",18220.0,"2021-11-22 14:28:12.859087","","","","","","",""
16.0,0.07378194481134415,0.0019841971511361943,"train",18240.0,"2021-11-22 14:28:16.678072","","","","","","",""
16.0,"","","train",18259.0,"2021-11-22 14:29:54.675607",0.6860510805500982,0.773225672944892,0.9799563466979102,0.7046212460122171,0.6280657842127642,0.6706156002188102,0.4582383766552802
16.0,"","","val",18259.0,"2021-11-22 14:30:19.331778",0.6168386872318219,0.6346037770079277,0.9570571533121623,0.6233108833401179,0.5300589860021593,0.5655413672536352,0.3571627455002806
17.0,0.041343774646520615,0.001983899793389913,"train",18260.0,"2021-11-22 14:30:22.271035","","","","","","",""
17.0,0.03965664654970169,0.001983599686711055,"train",18280.0,"2021-11-22 14:30:25.758922","","","","","","",""
17.0,0.04568101093173027,0.0019832968319380972,"train",18300.0,"2021-11-22 14:30:29.081973","","","","","","",""
17.0,0.06916525214910507,0.0019829912299171933,"train",18320.0,"2021-11-22 14:30:32.344123","","","","","","",""
17.0,0.04339383542537689,0.001982682881502172,"train",18340.0,"2021-11-22 14:30:35.508726","","","","","","",""
17.0,0.049904949963092804,0.001982371787554537,"train",18360.0,"2021-11-22 14:30:38.652725","","","","","","",""
17.0,0.05017122998833656,0.0019820579489434617,"train",18380.0,"2021-11-22 14:30:42.506905","","","","","","",""
17.0,0.055364128202199936,0.0019817413665457885,"train",18400.0,"2021-11-22 14:30:45.542089","","","","","","",""
17.0,0.033111732453107834,0.001981422041246025,"train",18420.0,"2021-11-22 14:30:48.521853","","","","","","",""
17.0,0.032449234277009964,0.0019810999739363427,"train",18440.0,"2021-11-22 14:30:51.475330","","","","","","",""
17.0,0.03916594758629799,0.0019807751655165737,"train",18460.0,"2021-11-22 14:30:54.589368","","","","","","",""
17.0,0.07170005887746811,0.001980447616894209,"train",18480.0,"2021-11-22 14:30:57.750070","","","","","","",""
17.0,0.054074931889772415,0.0019801173289843957,"train",18500.0,"2021-11-22 14:31:00.903221","","","","","","",""
17.0,0.06629250943660736,0.001979784302709934,"train",18520.0,"2021-11-22 14:31:04.596780","","","","","","",""
17.0,0.056581251323223114,0.0019794485390012746,"train",18540.0,"2021-11-22 14:31:07.735456","","","","","","",""
17.0,0.07546138763427734,0.0019791100387965164,"train",18560.0,"2021-11-22 14:31:10.871822","","","","","","",""
17.0,0.03737260401248932,0.0019787688030414047,"train",18580.0,"2021-11-22 14:31:13.991781","","","","","","",""
17.0,0.037357959896326065,0.0019784248326893267,"train",18600.0,"2021-11-22 14:31:17.112910","","","","","","",""
17.0,0.031914275139570236,0.0019780781287013103,"train",18620.0,"2021-11-22 14:31:20.241894","","","","","","",""
17.0,0.03982798382639885,0.0019777286920460214,"train",18640.0,"2021-11-22 14:31:23.372871","","","","","","",""
17.0,0.05811268836259842,0.0019773765236997596,"train",18660.0,"2021-11-22 14:31:27.082079","","","","","","",""
17.0,0.054168857634067535,0.0019770216246464585,"train",18680.0,"2021-11-22 14:31:30.279287","","","","","","",""
17.0,0.037182051688432693,0.0019766639958776785,"train",18700.0,"2021-11-22 14:31:33.592702","","","","","","",""
17.0,0.04481105878949165,0.001976303638392609,"train",18720.0,"2021-11-22 14:31:36.928064","","","","","","",""
17.0,0.0335250198841095,0.001975940553198063,"train",18740.0,"2021-11-22 14:31:40.255194","","","","","","",""
17.0,0.05810469016432762,0.001975574741308473,"train",18760.0,"2021-11-22 14:31:43.531475","","","","","","",""
17.0,0.02382528781890869,0.00197520620374589,"train",18780.0,"2021-11-22 14:31:46.674463","","","","","","",""
17.0,0.04475625231862068,0.0019748349415399822,"train",18800.0,"2021-11-22 14:31:50.389815","","","","","","",""
17.0,0.07856941223144531,0.0019744609557280283,"train",18820.0,"2021-11-22 14:31:53.532919","","","","","","",""
17.0,0.060036055743694305,0.001974084247354917,"train",18840.0,"2021-11-22 14:31:56.680861","","","","","","",""
17.0,0.04006216675043106,0.001973704817473144,"train",18860.0,"2021-11-22 14:31:59.893346","","","","","","",""
17.0,0.038075972348451614,0.0019733226671428085,"train",18880.0,"2021-11-22 14:32:03.139436","","","","","","",""
17.0,0.034713782370090485,0.0019729377974316105,"train",18900.0,"2021-11-22 14:32:06.389087","","","","","","",""
17.0,0.07079637050628662,0.001972550209414848,"train",18920.0,"2021-11-22 14:32:09.579164","","","","","","",""
17.0,0.026510780677199364,0.0019721599041754127,"train",18940.0,"2021-11-22 14:32:13.440488","","","","","","",""
17.0,0.06631176173686981,0.0019717668828037895,"train",18960.0,"2021-11-22 14:32:16.664024","","","","","","",""
17.0,0.061191484332084656,0.0019713711463980508,"train",18980.0,"2021-11-22 14:32:19.880094","","","","","","",""
17.0,0.03840639442205429,0.001970972696063855,"train",19000.0,"2021-11-22 14:32:23.090426","","","","","","",""
17.0,0.07009416818618774,0.0019705715329144434,"train",19020.0,"2021-11-22 14:32:26.316681","","","","","","",""
17.0,0.03778845816850662,0.0019701676580706367,"train",19040.0,"2021-11-22 14:32:29.568189","","","","","","",""
17.0,0.04380820691585541,0.0019697610726608305,"train",19060.0,"2021-11-22 14:32:32.793096","","","","","","",""
17.0,0.06574331223964691,0.0019693517778209954,"train",19080.0,"2021-11-22 14:32:36.588437","","","","","","",""
17.0,0.03647160902619362,0.0019689397746946707,"train",19100.0,"2021-11-22 14:32:39.823783","","","","","","",""
17.0,0.037139225751161575,0.0019685250644329634,"train",19120.0,"2021-11-22 14:32:43.076116","","","","","","",""
17.0,0.05279587209224701,0.001968107648194543,"train",19140.0,"2021-11-22 14:32:46.309005","","","","","","",""
17.0,0.03208187222480774,0.0019676875271456397,"train",19160.0,"2021-11-22 14:32:49.535207","","","","","","",""
17.0,0.05543910712003708,0.0019672647024600413,"train",19180.0,"2021-11-22 14:32:52.670937","","","","","","",""
17.0,0.06041128933429718,0.001966839175319089,"train",19200.0,"2021-11-22 14:32:56.459487","","","","","","",""
17.0,0.05514340475201607,0.0019664109469116737,"train",19220.0,"2021-11-22 14:32:59.601263","","","","","","",""
17.0,0.0528370663523674,0.001965980018434235,"train",19240.0,"2021-11-22 14:33:02.804447","","","","","","",""
17.0,0.03205449506640434,0.0019655463910907543,"train",19260.0,"2021-11-22 14:33:06.048455","","","","","","",""
17.0,0.055759795010089874,0.0019651100660927558,"train",19280.0,"2021-11-22 14:33:09.260599","","","","","","",""
17.0,0.027921803295612335,0.0019646710446592987,"train",19300.0,"2021-11-22 14:33:12.490284","","","","","","",""
17.0,0.08184202015399933,0.0019642293280169765,"train",19320.0,"2021-11-22 14:33:15.671184","","","","","","",""
17.0,"","","train",19333.0,"2021-11-22 14:34:49.829176",0.692934584879575,0.7885021982316847,0.982038949900306,0.7229538938624908,0.6430249342658059,0.6741210317002925,0.4758346247164453
17.0,"","","val",19333.0,"2021-11-22 14:35:15.840110",0.6131276817812826,0.6284902851182105,0.9578958251247516,0.6285626790451976,0.5271727307699161,0.552539156267187,0.3540467397571255
18.0,0.03906501829624176,0.0019637849173999135,"train",19340.0,"2021-11-22 14:35:20.614433","","","","","","",""
18.0,0.02621888741850853,0.0019633378140497602,"train",19360.0,"2021-11-22 14:35:24.000645","","","","","","",""
18.0,0.04668920114636421,0.0019628880192156905,"train",19380.0,"2021-11-22 14:35:27.261340","","","","","","",""
18.0,0.05929913371801376,0.0019624355341543985,"train",19400.0,"2021-11-22 14:35:30.476940","","","","","","",""
18.0,0.033487457782030106,0.0019619803601300936,"train",19420.0,"2021-11-22 14:35:33.664397","","","","","","",""
18.0,0.03879125416278839,0.0019615224984144987,"train",19440.0,"2021-11-22 14:35:36.789069","","","","","","",""
18.0,0.04066724330186844,0.0019610619502868462,"train",19460.0,"2021-11-22 14:35:39.903352","","","","","","",""
18.0,0.05525051802396774,0.0019605987170338733,"train",19480.0,"2021-11-22 14:35:43.006581","","","","","","",""
18.0,0.03571198135614395,0.0019601327999498198,"train",19500.0,"2021-11-22 14:35:46.120778","","","","","","",""
18.0,0.0468115471303463,0.001959664200336424,"train",19520.0,"2021-11-22 14:35:49.807485","","","","","","",""
18.0,0.0398312546312809,0.0019591929195029185,"train",19540.0,"2021-11-22 14:35:52.977088","","","","","","",""
18.0,0.06119343265891075,0.001958718958766028,"train",19560.0,"2021-11-22 14:35:56.191415","","","","","","",""
18.0,0.02706429734826088,0.0019582423194499632,"train",19580.0,"2021-11-22 14:35:59.414106","","","","","","",""
18.0,0.02743060328066349,0.00195776300288642,"train",19600.0,"2021-11-22 14:36:02.589012","","","","","","",""
18.0,0.0501263253390789,0.0019572810104145724,"train",19620.0,"2021-11-22 14:36:05.796636","","","","","","",""
18.0,0.037782058119773865,0.001956796343381074,"train",19640.0,"2021-11-22 14:36:09.134058","","","","","","",""
18.0,0.026787588372826576,0.0019563090031400466,"train",19660.0,"2021-11-22 14:36:12.234556","","","","","","",""
18.0,0.03851957619190216,0.0019558189910530853,"train",19680.0,"2021-11-22 14:36:15.899135","","","","","","",""
18.0,0.07160279154777527,0.001955326308489246,"train",19700.0,"2021-11-22 14:36:18.949103","","","","","","",""
18.0,0.072579525411129,0.0019548309568250487,"train",19720.0,"2021-11-22 14:36:21.992215","","","","","","",""
18.0,0.03878553584218025,0.0019543329374444693,"train",19740.0,"2021-11-22 14:36:24.994075","","","","","","",""
18.0,0.04077982157468796,0.001953832251738937,"train",19760.0,"2021-11-22 14:36:27.949989","","","","","","",""
18.0,0.03108735755085945,0.0019533289011073314,"train",19780.0,"2021-11-22 14:36:30.937447","","","","","","",""
18.0,0.040985021740198135,0.0019528228869559769,"train",19800.0,"2021-11-22 14:36:34.159104","","","","","","",""
18.0,0.030871644616127014,0.00195231421069864,"train",19820.0,"2021-11-22 14:36:37.322189","","","","","","",""
18.0,0.027421370148658752,0.0019518028737565247,"train",19840.0,"2021-11-22 14:36:40.455818","","","","","","",""
18.0,0.023268526419997215,0.0019512888775582687,"train",19860.0,"2021-11-22 14:36:44.248780","","","","","","",""
18.0,0.06663892418146133,0.0019507722235399404,"train",19880.0,"2021-11-22 14:36:47.414308","","","","","","",""
18.0,0.04857352375984192,0.0019502529131450322,"train",19900.0,"2021-11-22 14:36:50.569522","","","","","","",""
18.0,0.03314647078514099,0.0019497309478244598,"train",19920.0,"2021-11-22 14:36:53.730349","","","","","","",""
18.0,0.04335044324398041,0.0019492063290365556,"train",19940.0,"2021-11-22 14:36:56.920737","","","","","","",""
18.0,0.0732918530702591,0.0019486790582470663,"train",19960.0,"2021-11-22 14:37:00.096766","","","","","","",""
18.0,0.03281421959400177,0.0019481491369291474,"train",19980.0,"2021-11-22 14:37:03.318748","","","","","","",""
18.0,0.06972972303628922,0.0019476165665633606,"train",20000.0,"2021-11-22 14:37:06.533725","","","","","","",""
18.0,0.0460050031542778,0.0019470813486376678,"train",20020.0,"2021-11-22 14:37:09.778089","","","","","","",""
18.0,0.051046762615442276,0.001946543484647429,"train",20040.0,"2021-11-22 14:37:13.572177","","","","","","",""
18.0,0.04319825768470764,0.0019460029760953966,"train",20060.0,"2021-11-22 14:37:16.799690","","","","","","",""
18.0,0.06588345021009445,0.0019454598244917117,"train",20080.0,"2021-11-22 14:37:19.984775","","","","","","",""
18.0,0.040394872426986694,0.0019449140313539002,"train",20100.0,"2021-11-22 14:37:23.154950","","","","","","",""
18.0,0.054080937057733536,0.0019443655982068677,"train",20120.0,"2021-11-22 14:37:26.273445","","","","","","",""
18.0,0.04873870685696602,0.0019438145265828963,"train",20140.0,"2021-11-22 14:37:29.391535","","","","","","",""
18.0,0.039914682507514954,0.0019432608180216396,"train",20160.0,"2021-11-22 14:37:32.490967","","","","","","",""
18.0,0.04951227828860283,0.0019427044740701186,"train",20180.0,"2021-11-22 14:37:35.614940","","","","","","",""
18.0,0.036366745829582214,0.0019421454962827178,"train",20200.0,"2021-11-22 14:37:39.311309","","","","","","",""
18.0,0.07155419886112213,0.0019415838862211795,"train",20220.0,"2021-11-22 14:37:42.512010","","","","","","",""
