"epoch","loss","lr","part","step","time","accuracy","auprc","auroc","challenge_metric","f_beta_measure","f_measure","g_beta_measure"
0.0,0.35230445861816406,8.000730236035311e-05,"train",20.0,"2021-11-21 17:58:20.327339","","","","","","",""
0.0,0.16532674431800842,8.002920933031948e-05,"train",40.0,"2021-11-21 17:58:27.028268","","","","","","",""
0.0,0.1232662945985794,8.006572057662293e-05,"train",60.0,"2021-11-21 17:58:34.281427","","","","","","",""
0.0,0.117620088160038,8.011683554380914e-05,"train",80.0,"2021-11-21 17:58:41.164566","","","","","","",""
0.0,0.12290369719266891,8.018255345425274e-05,"train",100.0,"2021-11-21 17:58:47.909107","","","","","","",""
0.0,0.12346767634153366,8.026287330817079e-05,"train",120.0,"2021-11-21 17:58:55.211705","","","","","","",""
0.0,0.13689902424812317,8.03577938836373e-05,"train",140.0,"2021-11-21 17:59:02.069833","","","","","","",""
0.0,0.12486383318901062,8.04673137366021e-05,"train",160.0,"2021-11-21 17:59:09.453296","","","","","","",""
0.0,0.11869622766971588,8.059143120091187e-05,"train",180.0,"2021-11-21 17:59:16.192766","","","","","","",""
0.0,0.11145684868097305,8.073014438833613e-05,"train",200.0,"2021-11-21 17:59:22.919355","","","","","","",""
0.0,0.13249199092388153,8.088345118859724e-05,"train",220.0,"2021-11-21 17:59:30.209356","","","","","","",""
0.0,0.11915796250104904,8.10513492693996e-05,"train",240.0,"2021-11-21 17:59:36.970800","","","","","","",""
0.0,0.10480404645204544,8.123383607646804e-05,"train",260.0,"2021-11-21 17:59:44.336920","","","","","","",""
0.0,0.11944657564163208,8.143090883358495e-05,"train",280.0,"2021-11-21 17:59:51.143372","","","","","","",""
0.0,0.10799466818571091,8.164256454263295e-05,"train",300.0,"2021-11-21 17:59:58.486136","","","","","","",""
0.0,0.09728411585092545,8.186879998364088e-05,"train",320.0,"2021-11-21 18:00:05.310832","","","","","","",""
0.0,0.10614331066608429,8.210961171483213e-05,"train",340.0,"2021-11-21 18:00:12.054653","","","","","","",""
0.0,0.10260948538780212,8.236499607267717e-05,"train",360.0,"2021-11-21 18:00:19.524290","","","","","","",""
0.0,0.09534814208745956,8.26349491719505e-05,"train",380.0,"2021-11-21 18:00:26.295079","","","","","","",""
0.0,0.09049146622419357,8.291946690578713e-05,"train",400.0,"2021-11-21 18:00:33.682281","","","","","","",""
0.0,0.10686617344617844,8.321854494574774e-05,"train",420.0,"2021-11-21 18:00:40.550870","","","","","","",""
0.0,0.10053862631320953,8.353217874188293e-05,"train",440.0,"2021-11-21 18:00:47.376695","","","","","","",""
0.0,0.10536433011293411,8.38603635228035e-05,"train",460.0,"2021-11-21 18:00:54.570106","","","","","","",""
0.0,0.09080476313829422,8.420309429575212e-05,"train",480.0,"2021-11-21 18:01:01.293525","","","","","","",""
0.0,0.09889745712280273,8.456036584667914e-05,"train",500.0,"2021-11-21 18:01:08.638003","","","","","","",""
0.0,0.08519458770751953,8.493217274032315e-05,"train",520.0,"2021-11-21 18:01:15.489324","","","","","","",""
0.0,0.09739730507135391,8.531850932029235e-05,"train",540.0,"2021-11-21 18:01:22.799632","","","","","","",""
0.0,0.08956003189086914,8.571936970915212e-05,"train",560.0,"2021-11-21 18:01:29.596970","","","","","","",""
0.0,0.09881682693958282,8.613474780851246e-05,"train",580.0,"2021-11-21 18:01:36.419228","","","","","","",""
0.0,0.10575764626264572,8.656463729912224e-05,"train",600.0,"2021-11-21 18:01:43.773042","","","","","","",""
0.0,0.08840157836675644,8.700903164096468e-05,"train",620.0,"2021-11-21 18:01:50.483696","","","","","","",""
0.0,0.0880160927772522,8.746792407335769e-05,"train",640.0,"2021-11-21 18:01:57.749335","","","","","","",""
0.0,0.08119964599609375,8.794130761505497e-05,"train",660.0,"2021-11-21 18:02:04.508568","","","","","","",""
0.0,0.07442642748355865,8.842917506435462e-05,"train",680.0,"2021-11-21 18:02:11.235782","","","","","","",""
0.0,0.08388097584247589,8.893151899920645e-05,"train",700.0,"2021-11-21 18:02:18.619453","","","","","","",""
0.0,0.0907864049077034,8.944833177732632e-05,"train",720.0,"2021-11-21 18:02:25.371655","","","","","","",""
0.0,0.06269299983978271,8.997960553631186e-05,"train",740.0,"2021-11-21 18:02:32.741826","","","","","","",""
0.0,0.06962007284164429,9.052533219376224e-05,"train",760.0,"2021-11-21 18:02:39.510007","","","","","","",""
0.0,0.07684887945652008,9.108550344740104e-05,"train",780.0,"2021-11-21 18:02:46.897922","","","","","","",""
0.0,0.08190768212080002,9.166011077520208e-05,"train",800.0,"2021-11-21 18:02:53.689398","","","","","","",""
0.0,0.08546476811170578,9.224914543552059e-05,"train",820.0,"2021-11-21 18:03:00.447375","","","","","","",""
0.0,0.10663698613643646,9.285259846722417e-05,"train",840.0,"2021-11-21 18:03:07.883687","","","","","","",""
0.0,0.07911612838506699,9.34704606898307e-05,"train",860.0,"2021-11-21 18:03:14.699734","","","","","","",""
0.0,0.08896584063768387,9.410272270364735e-05,"train",880.0,"2021-11-21 18:03:22.023106","","","","","","",""
0.0,0.09132006019353867,9.474937488991348e-05,"train",900.0,"2021-11-21 18:03:28.857720","","","","","","",""
0.0,0.0864126905798912,9.541040741094719e-05,"train",920.0,"2021-11-21 18:03:35.602207","","","","","","",""
0.0,0.07570012658834457,9.608581021029522e-05,"train",940.0,"2021-11-21 18:03:42.892295","","","","","","",""
0.0,0.0693405419588089,9.677557301288509e-05,"train",960.0,"2021-11-21 18:03:49.656691","","","","","","",""
0.0,0.10017892718315125,9.747968532518238e-05,"train",980.0,"2021-11-21 18:03:56.881461","","","","","","",""
0.0,0.0923047810792923,9.819813643535029e-05,"train",1000.0,"2021-11-21 18:04:03.650874","","","","","","",""
0.0,0.09445934742689133,9.893091541341185e-05,"train",1020.0,"2021-11-21 18:04:10.923885","","","","","","",""
0.0,0.07848504930734634,9.967801111141644e-05,"train",1040.0,"2021-11-21 18:04:17.612888","","","","","","",""
0.0,0.09325752407312393,0.00010043941216361023,"train",1060.0,"2021-11-21 18:04:24.337325","","","","","","",""
0.0,"","","train",1074.0,"2021-11-21 18:06:42.329974",0.45998690242305174,0.328934719905024,0.8589026220034003,0.38489085005476137,0.2063335192243651,0.20354581803955177,0.14197162210364828
0.0,"","","val",1074.0,"2021-11-21 18:07:18.224219",0.4552939812130349,0.3250650464356116,0.8593940933309383,0.3801252562672861,0.2049134136142324,0.20168668548110055,0.13972710461554844
1.0,0.08336526155471802,0.00010121510698660771,"train",1080.0,"2021-11-21 18:07:23.627814","","","","","","",""
1.0,0.08952298760414124,0.00010200508377956928,"train",1100.0,"2021-11-21 18:07:30.354249","","","","","","",""
1.0,0.10207171738147736,0.00010280933052437993,"train",1120.0,"2021-11-21 18:07:37.779525","","","","","","",""
1.0,0.05322987213730812,0.00010362783498583223,"train",1140.0,"2021-11-21 18:07:45.111287","","","","","","",""
1.0,0.0725647360086441,0.0001044605847118124,"train",1160.0,"2021-11-21 18:07:51.862791","","","","","","",""
1.0,0.08458374440670013,0.0001053075670334907,"train",1180.0,"2021-11-21 18:07:59.299910","","","","","","",""
1.0,0.09374356269836426,0.00010616876906551181,"train",1200.0,"2021-11-21 18:08:06.045861","","","","","","",""
1.0,0.07377924025058746,0.0001070441777061941,"train",1220.0,"2021-11-21 18:08:13.318506","","","","","","",""
1.0,0.09441183507442474,0.00010793377963772563,"train",1240.0,"2021-11-21 18:08:20.612250","","","","","","",""
1.0,0.09645015001296997,0.0001088375613263698,"train",1260.0,"2021-11-21 18:08:27.291237","","","","","","",""
1.0,0.05633567273616791,0.00010975550902266908,"train",1280.0,"2021-11-21 18:08:34.661391","","","","","","",""
1.0,0.062149278819561005,0.00011068760876165474,"train",1300.0,"2021-11-21 18:08:42.013081","","","","","","",""
1.0,0.0739075317978859,0.0001116338463630598,"train",1320.0,"2021-11-21 18:08:48.855959","","","","","","",""
1.0,0.07707800716161728,0.00011259420743153455,"train",1340.0,"2021-11-21 18:08:56.179863","","","","","","",""
1.0,0.07711902260780334,0.00011356867735686535,"train",1360.0,"2021-11-21 18:09:02.914345","","","","","","",""
1.0,0.0781138688325882,0.00011455724131419621,"train",1380.0,"2021-11-21 18:09:10.215439","","","","","","",""
1.0,0.0832144245505333,0.00011555988426425654,"train",1400.0,"2021-11-21 18:09:17.593617","","","","","","",""
1.0,0.09956035763025284,0.00011657659095358746,"train",1420.0,"2021-11-21 18:09:24.393158","","","","","","",""
1.0,0.08647671341896057,0.00011760734591477516,"train",1440.0,"2021-11-21 18:09:31.681222","","","","","","",""
1.0,0.08093101531267166,0.00011865213346668618,"train",1460.0,"2021-11-21 18:09:38.505096","","","","","","",""
1.0,0.07041823118925095,0.00011971093771470502,"train",1480.0,"2021-11-21 18:09:45.894087","","","","","","",""
1.0,0.08600819110870361,0.0001207837425509777,"train",1500.0,"2021-11-21 18:09:53.301067","","","","","","",""
1.0,0.07280014455318451,0.00012187053165465503,"train",1520.0,"2021-11-21 18:10:00.100148","","","","","","",""
1.0,0.08416254073381424,0.000122971288492142,"train",1540.0,"2021-11-21 18:10:07.557828","","","","","","",""
1.0,0.08088385313749313,0.00012408599631734863,"train",1560.0,"2021-11-21 18:10:14.557740","","","","","","",""
1.0,0.05776670202612877,0.00012521463817194542,"train",1580.0,"2021-11-21 18:10:22.036845","","","","","","",""
1.0,0.08675642311573029,0.00012635719688562077,"train",1600.0,"2021-11-21 18:10:29.355477","","","","","","",""
1.0,0.07934456318616867,0.00012751365507634267,"train",1620.0,"2021-11-21 18:10:36.109941","","","","","","",""
1.0,0.08636975288391113,0.0001286839951506226,"train",1640.0,"2021-11-21 18:10:43.509990","","","","","","",""
1.0,0.07659175246953964,0.00012986819930378333,"train",1660.0,"2021-11-21 18:10:50.239282","","","","","","",""
1.0,0.07654760032892227,0.00013106624952023064,"train",1680.0,"2021-11-21 18:10:57.571820","","","","","","",""
1.0,0.06265820562839508,0.00013227812757372545,"train",1700.0,"2021-11-21 18:11:04.888243","","","","","","",""
1.0,0.08311779797077179,0.00013350381502766394,"train",1720.0,"2021-11-21 18:11:11.592392","","","","","","",""
1.0,0.06495989859104156,0.00013474329323535494,"train",1740.0,"2021-11-21 18:11:18.834655","","","","","","",""
1.0,0.06515198945999146,0.0001359965433403059,"train",1760.0,"2021-11-21 18:11:25.525426","","","","","","",""
1.0,0.06398308277130127,0.00013726354627650872,"train",1780.0,"2021-11-21 18:11:32.827519","","","","","","",""
1.0,0.0625954419374466,0.00013854428276873052,"train",1800.0,"2021-11-21 18:11:40.086453","","","","","","",""
1.0,0.06992609798908234,0.00013983873333280506,"train",1820.0,"2021-11-21 18:11:46.873163","","","","","","",""
1.0,0.07853368669748306,0.00014114687827593156,"train",1840.0,"2021-11-21 18:11:54.186684","","","","","","",""
1.0,0.09197547286748886,0.00014246869769697352,"train",1860.0,"2021-11-21 18:12:01.014245","","","","","","",""
1.0,0.09011927247047424,0.00014380417148676054,"train",1880.0,"2021-11-21 18:12:08.340115","","","","","","",""
1.0,0.06143549829721451,0.00014515327932839404,"train",1900.0,"2021-11-21 18:12:15.590903","","","","","","",""
1.0,0.10212361067533493,0.0001465160006975598,"train",1920.0,"2021-11-21 18:12:22.277830","","","","","","",""
1.0,0.08237428218126297,0.00014789231486283454,"train",1940.0,"2021-11-21 18:12:29.579205","","","","","","",""
1.0,0.07029510289430618,0.00014928220088600633,"train",1960.0,"2021-11-21 18:12:36.838186","","","","","","",""
1.0,0.08069605380296707,0.00015068563762239045,"train",1980.0,"2021-11-21 18:12:43.623790","","","","","","",""
1.0,0.08353547006845474,0.00015210260372115238,"train",2000.0,"2021-11-21 18:12:51.071230","","","","","","",""
1.0,0.07179569453001022,0.00015353307762563115,"train",2020.0,"2021-11-21 18:12:57.913347","","","","","","",""
1.0,0.05809445679187775,0.00015497703757366872,"train",2040.0,"2021-11-21 18:13:05.236127","","","","","","",""
1.0,0.06516189873218536,0.00015643446159794,"train",2060.0,"2021-11-21 18:13:12.663581","","","","","","",""
1.0,0.05707743763923645,0.0001579053275262887,"train",2080.0,"2021-11-21 18:13:19.521220","","","","","","",""
1.0,0.08034392446279526,0.00015938961298206183,"train",2100.0,"2021-11-21 18:13:26.900481","","","","","","",""
1.0,0.07532862573862076,0.00016088729538445297,"train",2120.0,"2021-11-21 18:13:33.757429","","","","","","",""
1.0,0.07074771821498871,0.000162398351948844,"train",2140.0,"2021-11-21 18:13:41.123236","","","","","","",""
1.0,"","","train",2148.0,"2021-11-21 18:15:55.583702",0.47915302335734555,0.4145796546442672,0.8961479494020504,0.47354178500168154,0.3153908474548501,0.3171635724367553,0.20888325145722764
1.0,"","","val",2148.0,"2021-11-21 18:16:31.197186",0.47709613823495306,0.41030163343100046,0.8961270631922527,0.469057088657477,0.3120821164314511,0.3120487377041195,0.206560819483649
2.0,0.06571932882070541,0.00016392275968715297,"train",2160.0,"2021-11-21 18:16:39.481264","","","","","","",""
2.0,0.07108894735574722,0.00016546049540818223,"train",2180.0,"2021-11-21 18:16:46.585384","","","","","","",""
2.0,0.04758431389927864,0.00016701153571797313,"train",2200.0,"2021-11-21 18:16:54.096463","","","","","","",""
2.0,0.06717941910028458,0.00016857585702016015,"train",2220.0,"2021-11-21 18:17:00.978374","","","","","","",""
2.0,0.06558582931756973,0.00017015343551633126,"train",2240.0,"2021-11-21 18:17:08.404356","","","","","","",""
2.0,0.10238572955131531,0.0001717442472063892,"train",2260.0,"2021-11-21 18:17:15.864260","","","","","","",""
2.0,0.07133354246616364,0.00017334826788891681,"train",2280.0,"2021-11-21 18:17:22.770595","","","","","","",""
2.0,0.07291129231452942,0.00017496547316154555,"train",2300.0,"2021-11-21 18:17:30.261855","","","","","","",""
2.0,0.0779142901301384,0.00017659583842132573,"train",2320.0,"2021-11-21 18:17:37.296796","","","","","","",""
2.0,0.07603435963392258,0.00017823933886510217,"train",2340.0,"2021-11-21 18:17:44.806644","","","","","","",""
2.0,0.06407634913921356,0.00017989594948989015,"train",2360.0,"2021-11-21 18:17:52.299986","","","","","","",""
2.0,0.08422406017780304,0.00018156564509325753,"train",2380.0,"2021-11-21 18:17:59.230485","","","","","","",""
2.0,0.06612902134656906,0.0001832484002737059,"train",2400.0,"2021-11-21 18:18:06.713431","","","","","","",""
2.0,0.07535902410745621,0.00018494418943105877,"train",2420.0,"2021-11-21 18:18:13.717314","","","","","","",""
2.0,0.0637911856174469,0.00018665298676685078,"train",2440.0,"2021-11-21 18:18:21.190274","","","","","","",""
2.0,0.07336460798978806,0.0001883747662847191,"train",2460.0,"2021-11-21 18:18:28.656748","","","","","","",""
2.0,0.07751395553350449,0.00019010950179080112,"train",2480.0,"2021-11-21 18:18:35.527637","","","","","","",""
2.0,0.07294517010450363,0.00019185716689412995,"train",2500.0,"2021-11-21 18:18:42.951076","","","","","","",""
2.0,0.06987189501523972,0.00019361773500703797,"train",2520.0,"2021-11-21 18:18:50.387835","","","","","","",""
2.0,0.052815958857536316,0.00019539117934556168,"train",2540.0,"2021-11-21 18:18:57.249759","","","","","","",""
2.0,0.08651750534772873,0.00019717747292984696,"train",2560.0,"2021-11-21 18:19:04.700684","","","","","","",""
2.0,0.0814950093626976,0.0001989765885845624,"train",2580.0,"2021-11-21 18:19:11.714070","","","","","","",""
2.0,0.06371047347784042,0.00020078849893931014,"train",2600.0,"2021-11-21 18:19:19.145561","","","","","","",""
2.0,0.06128566712141037,0.0002026131764290434,"train",2620.0,"2021-11-21 18:19:26.718278","","","","","","",""
2.0,0.05508036911487579,0.00020445059329448614,"train",2640.0,"2021-11-21 18:19:33.680440","","","","","","",""
2.0,0.08857202529907227,0.00020630072158255497,"train",2660.0,"2021-11-21 18:19:41.072347","","","","","","",""
2.0,0.06688028573989868,0.00020816353314678467,"train",2680.0,"2021-11-21 18:19:47.915519","","","","","","",""
2.0,0.062406931072473526,0.00021003899964775505,"train",2700.0,"2021-11-21 18:19:55.271458","","","","","","",""
2.0,0.07569228857755661,0.00021192709255352473,"train",2720.0,"2021-11-21 18:20:02.657316","","","","","","",""
2.0,0.06175724416971207,0.00021382778314006255,"train",2740.0,"2021-11-21 18:20:09.548639","","","","","","",""
2.0,0.06473815441131592,0.00021574104249168615,"train",2760.0,"2021-11-21 18:20:16.953661","","","","","","",""
2.0,0.067642442882061,0.00021766684150150133,"train",2780.0,"2021-11-21 18:20:23.878704","","","","","","",""
2.0,0.05821966752409935,0.00021960515087184485,"train",2800.0,"2021-11-21 18:20:31.281910","","","","","","",""
2.0,0.06814165413379669,0.00022155594111472978,"train",2820.0,"2021-11-21 18:20:38.698866","","","","","","",""
2.0,0.08270161598920822,0.0002235191825522959,"train",2840.0,"2021-11-21 18:20:45.535231","","","","","","",""
2.0,0.07405637204647064,0.00022549484531725838,"train",2860.0,"2021-11-21 18:20:52.929734","","","","","","",""
2.0,0.10151192545890808,0.00022748289935336434,"train",2880.0,"2021-11-21 18:20:59.750793","","","","","","",""
2.0,0.04803285375237465,0.00022948331441584964,"train",2900.0,"2021-11-21 18:21:07.264352","","","","","","",""
2.0,0.06648765504360199,0.00023149606007189785,"train",2920.0,"2021-11-21 18:21:14.631916","","","","","","",""
2.0,0.08314263820648193,0.00023352110570110476,"train",2940.0,"2021-11-21 18:21:21.484969","","","","","","",""
2.0,0.0679282695055008,0.00023555842049594305,"train",2960.0,"2021-11-21 18:21:28.917663","","","","","","",""
2.0,0.07200407236814499,0.00023760797346223305,"train",2980.0,"2021-11-21 18:21:35.781828","","","","","","",""
2.0,0.06925822794437408,0.00023966973341961028,"train",3000.0,"2021-11-21 18:21:43.192428","","","","","","",""
2.0,0.053751617670059204,0.0002417436690020044,"train",3020.0,"2021-11-21 18:21:50.603111","","","","","","",""
2.0,0.06295023113489151,0.00024382974865811325,"train",3040.0,"2021-11-21 18:21:57.498460","","","","","","",""
2.0,0.08139915019273758,0.000245927940651884,"train",3060.0,"2021-11-21 18:22:04.915814","","","","","","",""
2.0,0.05657174810767174,0.0002480382130629953,"train",3080.0,"2021-11-21 18:22:11.864515","","","","","","",""
2.0,0.048658337444067,0.0002501605337873443,"train",3100.0,"2021-11-21 18:22:19.311042","","","","","","",""
2.0,0.06774890422821045,0.0002522948705375337,"train",3120.0,"2021-11-21 18:22:26.676583","","","","","","",""
2.0,0.05876544490456581,0.00025444119084336303,"train",3140.0,"2021-11-21 18:22:33.573079","","","","","","",""
2.0,0.0842704102396965,0.00025659946205232364,"train",3160.0,"2021-11-21 18:22:41.088792","","","","","","",""
2.0,0.0590309239923954,0.0002587696513300941,"train",3180.0,"2021-11-21 18:22:48.549702","","","","","","",""
2.0,0.05932777374982834,0.0002609517256610412,"train",3200.0,"2021-11-21 18:22:55.447662","","","","","","",""
2.0,0.05637709051370621,0.00026314565184872084,"train",3220.0,"2021-11-21 18:23:02.791551","","","","","","",""
2.0,"","","train",3222.0,"2021-11-21 18:25:15.231998",0.5206868951466201,0.4654075914138864,0.91049031515619,0.5084712016548355,0.3614975252787176,0.364298827613754,0.24423125889978792
2.0,"","","val",3222.0,"2021-11-21 18:25:50.063938",0.518265104951873,0.45411894170423334,0.9071609985934497,0.5016661660409923,0.35895201169534985,0.35990483547173785,0.23929111180649457
3.0,0.05853071063756943,0.0002653513965163838,"train",3240.0,"2021-11-21 18:25:59.564336","","","","","","",""
3.0,0.08670645207166672,0.0002675689261074836,"train",3260.0,"2021-11-21 18:26:07.089648","","","","","","",""
3.0,0.05902321636676788,0.00026979820688618605,"train",3280.0,"2021-11-21 18:26:14.523200","","","","","","",""
3.0,0.05496726185083389,0.00027203920493788433,"train",3300.0,"2021-11-21 18:26:21.371329","","","","","","",""
3.0,0.04802307114005089,0.00027429188616971277,"train",3320.0,"2021-11-21 18:26:28.835168","","","","","","",""
3.0,0.07600999623537064,0.0002765562163110668,"train",3340.0,"2021-11-21 18:26:35.757419","","","","","","",""
3.0,0.06827126443386078,0.00027883216091412503,"train",3360.0,"2021-11-21 18:26:43.108295","","","","","","",""
3.0,0.08459370583295822,0.0002811196853543707,"train",3380.0,"2021-11-21 18:26:50.488589","","","","","","",""
3.0,0.0752820372581482,0.00028341875483112134,"train",3400.0,"2021-11-21 18:26:57.249028","","","","","","",""
3.0,0.0800039991736412,0.00028572933436805644,"train",3420.0,"2021-11-21 18:27:04.572727","","","","","","",""
3.0,0.06236248090863228,0.0002880513888137504,"train",3440.0,"2021-11-21 18:27:11.476674","","","","","","",""
3.0,0.05783238261938095,0.0002903848828422063,"train",3460.0,"2021-11-21 18:27:18.796065","","","","","","",""
3.0,0.08396366983652115,0.00029272978095339465,"train",3480.0,"2021-11-21 18:27:26.206766","","","","","","",""
3.0,0.07640797644853592,0.00029508604747379243,"train",3500.0,"2021-11-21 18:27:33.028369","","","","","","",""
3.0,0.06262515485286713,0.00029745364655692653,"train",3520.0,"2021-11-21 18:27:40.434006","","","","","","",""
3.0,0.06197219714522362,0.0002998325421839181,"train",3540.0,"2021-11-21 18:27:47.245276","","","","","","",""
3.0,0.07692158222198486,0.0003022226981640318,"train",3560.0,"2021-11-21 18:27:54.690424","","","","","","",""
3.0,0.05333525687456131,0.00030462407813522494,"train",3580.0,"2021-11-21 18:28:02.164139","","","","","","",""
3.0,0.07394280284643173,0.0003070366455647027,"train",3600.0,"2021-11-21 18:28:09.104960","","","","","","",""
3.0,0.07836615294218063,0.000309460363749471,"train",3620.0,"2021-11-21 18:28:16.452951","","","","","","",""
3.0,0.04580049589276314,0.0003118951958168978,"train",3640.0,"2021-11-21 18:28:23.286426","","","","","","",""
3.0,0.06318753212690353,0.0003143411047252722,"train",3660.0,"2021-11-21 18:28:30.640942","","","","","","",""
3.0,0.058752190321683884,0.0003167980532643691,"train",3680.0,"2021-11-21 18:28:37.931504","","","","","","",""
3.0,0.08320799469947815,0.0003192660040560141,"train",3700.0,"2021-11-21 18:28:44.643973","","","","","","",""
3.0,0.06804051250219345,0.0003217449195546528,"train",3720.0,"2021-11-21 18:28:51.897805","","","","","","",""
3.0,0.04676061496138573,0.00032423476204792244,"train",3740.0,"2021-11-21 18:28:59.209837","","","","","","",""
3.0,0.05075027048587799,0.0003267354936572248,"train",3760.0,"2021-11-21 18:29:05.969198","","","","","","",""
3.0,0.09074711054563522,0.0003292470763383026,"train",3780.0,"2021-11-21 18:29:13.483536","","","","","","",""
3.0,0.06748749315738678,0.0003317694718818192,"train",3800.0,"2021-11-21 18:29:20.277100","","","","","","",""
3.0,0.06822999566793442,0.00033430264191393853,"train",3820.0,"2021-11-21 18:29:27.632596","","","","","","",""
3.0,0.07261867821216583,0.0003368465478969097,"train",3840.0,"2021-11-21 18:29:34.940365","","","","","","",""
3.0,0.09375637024641037,0.0003394011511296533,"train",3860.0,"2021-11-21 18:29:41.713151","","","","","","",""
3.0,0.05276058614253998,0.0003419664127483496,"train",3880.0,"2021-11-21 18:29:49.142950","","","","","","",""
3.0,0.06908409297466278,0.00034454229372703074,"train",3900.0,"2021-11-21 18:29:55.943319","","","","","","",""
3.0,0.0714242234826088,0.00034712875487817314,"train",3920.0,"2021-11-21 18:30:03.348616","","","","","","",""
3.0,0.07822506874799728,0.00034972575685329526,"train",3940.0,"2021-11-21 18:30:10.665287","","","","","","",""
3.0,0.08871469646692276,0.0003523332601435541,"train",3960.0,"2021-11-21 18:30:17.431577","","","","","","",""
3.0,0.0583735927939415,0.00035495122508034916,"train",3980.0,"2021-11-21 18:30:24.796480","","","","","","",""
3.0,0.08813261985778809,0.0003575796118359231,"train",4000.0,"2021-11-21 18:30:31.627797","","","","","","",""
3.0,0.05986747145652771,0.00036021838042396906,"train",4020.0,"2021-11-21 18:30:39.025617","","","","","","",""
3.0,0.06304554641246796,0.0003628674907002389,"train",4040.0,"2021-11-21 18:30:46.370853","","","","","","",""
3.0,0.06807007640600204,0.00036552690236315395,"train",4060.0,"2021-11-21 18:30:53.102425","","","","","","",""
3.0,0.06931006163358688,0.00036819657495441773,"train",4080.0,"2021-11-21 18:31:00.392078","","","","","","",""
3.0,0.06796243041753769,0.0003708764678596317,"train",4100.0,"2021-11-21 18:31:07.212883","","","","","","",""
3.0,0.09856175631284714,0.00037356654030891293,"train",4120.0,"2021-11-21 18:31:14.525340","","","","","","",""
3.0,0.07128474116325378,0.0003762667513775148,"train",4140.0,"2021-11-21 18:31:21.816877","","","","","","",""
3.0,0.08169330656528473,0.0003789770599864498,"train",4160.0,"2021-11-21 18:31:28.557935","","","","","","",""
3.0,0.08597102761268616,0.000381697424903113,"train",4180.0,"2021-11-21 18:31:35.931318","","","","","","",""
3.0,0.07290557771921158,0.0003844278047419108,"train",4200.0,"2021-11-21 18:31:42.659331","","","","","","",""
3.0,0.07811838388442993,0.0003871681579648903,"train",4220.0,"2021-11-21 18:31:49.945755","","","","","","",""
3.0,0.06082228571176529,0.0003899184428823709,"train",4240.0,"2021-11-21 18:31:57.297475","","","","","","",""
3.0,0.07198221236467361,0.0003926786176535783,"train",4260.0,"2021-11-21 18:32:04.103264","","","","","","",""
3.0,0.04974129796028137,0.0003954486402872818,"train",4280.0,"2021-11-21 18:32:11.394068","","","","","","",""
3.0,"","","train",4296.0,"2021-11-21 18:34:27.577054",0.5378883795386742,0.5084712929337136,0.9245546160407355,0.5248977057951987,0.3644263795567877,0.3741822911227905,0.24923923856808608
3.0,"","","val",4296.0,"2021-11-21 18:35:02.029782",0.5317174997100776,0.4939507858507874,0.918574932347028,0.5141996684187748,0.3564220084476767,0.3636307259738562,0.23929647925035763
4.0,0.07452239096164703,0.0003982284686424324,"train",4300.0,"2021-11-21 18:35:07.481270","","","","","","",""
4.0,0.07674570381641388,0.0004010180604288045,"train",4320.0,"2021-11-21 18:35:14.394241","","","","","","",""
4.0,0.04585167393088341,0.00040381737320763873,"train",4340.0,"2021-11-21 18:35:21.925564","","","","","","",""
4.0,0.052318181842565536,0.0004066263643922878,"train",4360.0,"2021-11-21 18:35:28.746119","","","","","","",""
4.0,0.04358316585421562,0.0004094449912488646,"train",4380.0,"2021-11-21 18:35:36.037013","","","","","","",""
4.0,0.08893559873104095,0.0004122732108968923,"train",4400.0,"2021-11-21 18:35:43.388776","","","","","","",""
4.0,0.060156725347042084,0.0004151109803099558,"train",4420.0,"2021-11-21 18:35:50.263721","","","","","","",""
4.0,0.06666160374879837,0.00041795825631635764,"train",4440.0,"2021-11-21 18:35:57.632224","","","","","","",""
4.0,0.056222908198833466,0.0004208149955997739,"train",4460.0,"2021-11-21 18:36:04.403191","","","","","","",""
4.0,0.06191762909293175,0.0004236811546999141,"train",4480.0,"2021-11-21 18:36:11.730350","","","","","","",""
4.0,0.07928210496902466,0.0004265566900131805,"train",4500.0,"2021-11-21 18:36:19.031730","","","","","","",""
4.0,0.05551835522055626,0.0004294415577933337,"train",4520.0,"2021-11-21 18:36:25.756388","","","","","","",""
4.0,0.05757104232907295,0.00043233571415215717,"train",4540.0,"2021-11-21 18:36:33.188606","","","","","","",""
4.0,0.049258042126894,0.0004352391150601242,"train",4560.0,"2021-11-21 18:36:40.062714","","","","","","",""
4.0,0.0411057211458683,0.0004381517163470684,"train",4580.0,"2021-11-21 18:36:47.436283","","","","","","",""
4.0,0.05395806208252907,0.00044107347370285683,"train",4600.0,"2021-11-21 18:36:54.808528","","","","","","",""
4.0,0.05591350421309471,0.00044400434267806194,"train",4620.0,"2021-11-21 18:37:01.628853","","","","","","",""
4.0,0.04294203966856003,0.00044694427868463907,"train",4640.0,"2021-11-21 18:37:08.906922","","","","","","",""
4.0,0.07292968779802322,0.00044989323699660467,"train",4660.0,"2021-11-21 18:37:15.710231","","","","","","",""
4.0,0.051433976739645004,0.0004528511727507165,"train",4680.0,"2021-11-21 18:37:23.038952","","","","","","",""
4.0,0.0811397135257721,0.00045581804094715645,"train",4700.0,"2021-11-21 18:37:30.431981","","","","","","",""
4.0,0.06813636422157288,0.00045879379645021425,"train",4720.0,"2021-11-21 18:37:37.267756","","","","","","",""
4.0,0.05731040984392166,0.0004617783939889759,"train",4740.0,"2021-11-21 18:37:44.722782","","","","","","",""
4.0,0.0884513407945633,0.0004647717881580103,"train",4760.0,"2021-11-21 18:37:51.621759","","","","","","",""
4.0,0.06319836527109146,0.0004677739334180617,"train",4780.0,"2021-11-21 18:37:58.968894","","","","","","",""
4.0,0.06956815719604492,0.00047078478409674144,"train",4800.0,"2021-11-21 18:38:06.366531","","","","","","",""
4.0,0.05947466194629669,0.00047380429438922305,"train",4820.0,"2021-11-21 18:38:13.164616","","","","","","",""
4.0,0.05639355257153511,0.00047683241835893946,"train",4840.0,"2021-11-21 18:38:20.517249","","","","","","",""
4.0,0.07606517523527145,0.0004798691099382815,"train",4860.0,"2021-11-21 18:38:27.301575","","","","","","",""
4.0,0.054952073842287064,0.0004829143229292986,"train",4880.0,"2021-11-21 18:38:34.633442","","","","","","",""
4.0,0.037476878613233566,0.0004859680110044023,"train",4900.0,"2021-11-21 18:38:42.010951","","","","","","",""
4.0,0.04800461232662201,0.0004890301277070699,"train",4920.0,"2021-11-21 18:38:48.892133","","","","","","",""
4.0,0.08898156136274338,0.0004921006264525525,"train",4940.0,"2021-11-21 18:38:56.329860","","","","","","",""
4.0,0.07125648856163025,0.0004951794605285824,"train",4960.0,"2021-11-21 18:39:03.697900","","","","","","",""
4.0,0.06739145517349243,0.0004982665830960853,"train",4980.0,"2021-11-21 18:39:10.580646","","","","","","",""
4.0,0.06596104055643082,0.0005013619471898913,"train",5000.0,"2021-11-21 18:39:17.950235","","","","","","",""
4.0,0.04832659661769867,0.0005044655057194504,"train",5020.0,"2021-11-21 18:39:24.775456","","","","","","",""
4.0,0.059636346995830536,0.0005075772114695486,"train",5040.0,"2021-11-21 18:39:32.141468","","","","","","",""
4.0,0.05109207332134247,0.0005106970171010257,"train",5060.0,"2021-11-21 18:39:39.562434","","","","","","",""
4.0,0.07210483402013779,0.0005138248751514966,"train",5080.0,"2021-11-21 18:39:46.435174","","","","","","",""
4.0,0.06286165863275528,0.0005169607380360731,"train",5100.0,"2021-11-21 18:39:53.860730","","","","","","",""
4.0,0.07467565685510635,0.000520104558048086,"train",5120.0,"2021-11-21 18:40:00.706064","","","","","","",""
4.0,0.08315005898475647,0.0005232562873598136,"train",5140.0,"2021-11-21 18:40:08.074181","","","","","","",""
4.0,0.054750170558691025,0.0005264158780232072,"train",5160.0,"2021-11-21 18:40:15.466117","","","","","","",""
4.0,0.06139783933758736,0.0005295832819706228,"train",5180.0,"2021-11-21 18:40:22.306319","","","","","","",""
4.0,0.048346951603889465,0.0005327584510155488,"train",5200.0,"2021-11-21 18:40:29.667285","","","","","","",""
4.0,0.06883146613836288,0.000535941336853343,"train",5220.0,"2021-11-21 18:40:36.489097","","","","","","",""
4.0,0.06821448355913162,0.0005391318910619655,"train",5240.0,"2021-11-21 18:40:43.852119","","","","","","",""
4.0,0.08273643255233765,0.0005423300651027144,"train",5260.0,"2021-11-21 18:40:51.155760","","","","","","",""
4.0,0.054000433534383774,0.0005455358103209663,"train",5280.0,"2021-11-21 18:40:57.933817","","","","","","",""
4.0,0.05627799779176712,0.0005487490779469157,"train",5300.0,"2021-11-21 18:41:05.240585","","","","","","",""
4.0,0.04718431830406189,0.000551969819096316,"train",5320.0,"2021-11-21 18:41:12.094252","","","","","","",""
4.0,0.052342742681503296,0.0005551979847712252,"train",5340.0,"2021-11-21 18:41:19.484420","","","","","","",""
4.0,0.0525447241961956,0.0005584335258607489,"train",5360.0,"2021-11-21 18:41:26.853299","","","","","","",""
4.0,"","","train",5370.0,"2021-11-21 18:43:42.938462",0.5559484828640034,0.537877021421303,0.9355827423408605,0.5885281935379898,0.43582029938457,0.44893913437435284,0.28777240425389417
4.0,"","","val",5370.0,"2021-11-21 18:44:18.536858",0.5533457033515018,0.5174999295594996,0.9284166406710228,0.5765892558181344,0.4241587337676046,0.43620750762819266,0.27744774178933834
5.0,0.06384788453578949,0.0005616763931417894,"train",5380.0,"2021-11-21 18:44:25.326765","","","","","","",""
5.0,0.05323534086346626,0.0005649265372797939,"train",5400.0,"2021-11-21 18:44:32.961699","","","","","","",""
5.0,0.064938023686409,0.0005681839088295046,"train",5420.0,"2021-11-21 18:44:39.872754","","","","","","",""
5.0,0.06541822105646133,0.0005714484582357109,"train",5440.0,"2021-11-21 18:44:47.324862","","","","","","",""
5.0,0.08058928698301315,0.0005747201358340048,"train",5460.0,"2021-11-21 18:44:54.723432","","","","","","",""
5.0,0.07366248220205307,0.0005779988918515344,"train",5480.0,"2021-11-21 18:45:01.645269","","","","","","",""
5.0,0.0609089657664299,0.0005812846764077623,"train",5500.0,"2021-11-21 18:45:09.099660","","","","","","",""
5.0,0.052342165261507034,0.0005845774395152243,"train",5520.0,"2021-11-21 18:45:16.471228","","","","","","",""
5.0,0.06274989247322083,0.0005878771310802895,"train",5540.0,"2021-11-21 18:45:23.242864","","","","","","",""
5.0,0.052851367741823196,0.0005911837009039229,"train",5560.0,"2021-11-21 18:45:30.596350","","","","","","",""
5.0,0.0561944805085659,0.0005944970986824485,"train",5580.0,"2021-11-21 18:45:37.528575","","","","","","",""
5.0,0.08927392959594727,0.000597817274008315,"train",5600.0,"2021-11-21 18:45:44.881130","","","","","","",""
5.0,0.055386751890182495,0.0006011441763708635,"train",5620.0,"2021-11-21 18:45:52.280930","","","","","","",""
5.0,0.06396742910146713,0.0006044777551570929,"train",5640.0,"2021-11-21 18:45:59.245701","","","","","","",""
5.0,0.0606849230825901,0.000607817959652434,"train",5660.0,"2021-11-21 18:46:06.663673","","","","","","",""
5.0,0.05951974540948868,0.0006111647390415189,"train",5680.0,"2021-11-21 18:46:13.550602","","","","","","",""
5.0,0.08101601898670197,0.0006145180424089525,"train",5700.0,"2021-11-21 18:46:21.073216","","","","","","",""
5.0,0.04817279055714607,0.0006178778187400902,"train",5720.0,"2021-11-21 18:46:28.460181","","","","","","",""
5.0,0.05442168191075325,0.0006212440169218129,"train",5740.0,"2021-11-21 18:46:35.262790","","","","","","",""
5.0,0.04165744036436081,0.0006246165857433027,"train",5760.0,"2021-11-21 18:46:42.665576","","","","","","",""
5.0,0.06513551622629166,0.0006279954738968251,"train",5780.0,"2021-11-21 18:46:49.467090","","","","","","",""
5.0,0.05529816448688507,0.0006313806299785075,"train",5800.0,"2021-11-21 18:46:56.854805","","","","","","",""
5.0,0.05619675666093826,0.0006347720024891209,"train",5820.0,"2021-11-21 18:47:04.191951","","","","","","",""
5.0,0.05440683290362358,0.0006381695398348657,"train",5840.0,"2021-11-21 18:47:10.979157","","","","","","",""
5.0,0.06020621210336685,0.0006415731903281542,"train",5860.0,"2021-11-21 18:47:18.293632","","","","","","",""
5.0,0.061798106878995895,0.0006449829021883979,"train",5880.0,"2021-11-21 18:47:25.106037","","","","","","",""
5.0,0.05937522277235985,0.0006483986235427956,"train",5900.0,"2021-11-21 18:47:32.464318","","","","","","",""
5.0,0.07518218457698822,0.0006518203024271213,"train",5920.0,"2021-11-21 18:47:39.816988","","","","","","",""
5.0,0.05407189577817917,0.0006552478867865169,"train",5940.0,"2021-11-21 18:47:46.588182","","","","","","",""
5.0,0.04982477053999901,0.0006586813244762815,"train",5960.0,"2021-11-21 18:47:53.967668","","","","","","",""
5.0,0.041310328990221024,0.0006621205632626672,"train",5980.0,"2021-11-21 18:48:00.741832","","","","","","",""
5.0,0.05001309514045715,0.0006655655508236717,"train",6000.0,"2021-11-21 18:48:08.174257","","","","","","",""
5.0,0.0843072161078453,0.0006690162347498356,"train",6020.0,"2021-11-21 18:48:15.556816","","","","","","",""
5.0,0.04176053777337074,0.0006724725625450389,"train",6040.0,"2021-11-21 18:48:22.381716","","","","","","",""
5.0,0.06791398674249649,0.0006759344816273003,"train",6060.0,"2021-11-21 18:48:29.790954","","","","","","",""
5.0,0.0542801134288311,0.0006794019393295771,"train",6080.0,"2021-11-21 18:48:36.631158","","","","","","",""
5.0,0.06753002852201462,0.0006828748829005654,"train",6100.0,"2021-11-21 18:48:44.015840","","","","","","",""
5.0,0.03759179636836052,0.0006863532595055041,"train",6120.0,"2021-11-21 18:48:51.438440","","","","","","",""
5.0,0.05068296939134598,0.0006898370162269777,"train",6140.0,"2021-11-21 18:48:58.279647","","","","","","",""
5.0,0.07946693897247314,0.0006933261000657217,"train",6160.0,"2021-11-21 18:49:05.743894","","","","","","",""
5.0,0.07185179740190506,0.000696820457941429,"train",6180.0,"2021-11-21 18:49:13.142381","","","","","","",""
5.0,0.04141097888350487,0.000700320036693557,"train",6200.0,"2021-11-21 18:49:19.991797","","","","","","",""
5.0,0.0652325376868248,0.0007038247830821358,"train",6220.0,"2021-11-21 18:49:27.448031","","","","","","",""
5.0,0.052958812564611435,0.0007073346437885815,"train",6240.0,"2021-11-21 18:49:34.297105","","","","","","",""
5.0,0.08815565705299377,0.000710849565416502,"train",6260.0,"2021-11-21 18:49:41.734977","","","","","","",""
5.0,0.07851404696702957,0.0007143694944925134,"train",6280.0,"2021-11-21 18:49:49.110540","","","","","","",""
5.0,0.059208743274211884,0.0007178943774670524,"train",6300.0,"2021-11-21 18:49:55.910004","","","","","","",""
5.0,0.06659183651208878,0.0007214241607151901,"train",6320.0,"2021-11-21 18:50:03.290031","","","","","","",""
5.0,0.057314012199640274,0.000724958790537449,"train",6340.0,"2021-11-21 18:50:10.144743","","","","","","",""
5.0,0.0570373609662056,0.0007284982131606195,"train",6360.0,"2021-11-21 18:50:17.527740","","","","","","",""
5.0,0.03614664822816849,0.0007320423747385781,"train",6380.0,"2021-11-21 18:50:24.880938","","","","","","",""
5.0,0.05615418031811714,0.0007355912213531054,"train",6400.0,"2021-11-21 18:50:31.647548","","","","","","",""
5.0,0.04483133554458618,0.000739144699014708,"train",6420.0,"2021-11-21 18:50:39.001296","","","","","","",""
5.0,0.05110127478837967,0.0007427027536634401,"train",6440.0,"2021-11-21 18:50:45.800198","","","","","","",""
5.0,"","","train",6444.0,"2021-11-21 18:53:03.994789",0.5681001236993378,0.5608898231809679,0.9369907236080042,0.5896406350094072,0.4411094455407306,0.45708977477178436,0.2960021671896864
5.0,"","","val",6444.0,"2021-11-21 18:53:39.754090",0.5597239939696161,0.5403120846552947,0.9301683347781509,0.5750278972619784,0.42663816227556234,0.44271911358107363,0.2793400787698966
6.0,0.060626886785030365,0.0007462653311697235,"train",6460.0,"2021-11-21 18:53:48.532914","","","","","","",""
6.0,0.06807655841112137,0.0007498323773351733,"train",6480.0,"2021-11-21 18:53:55.252845","","","","","","",""
6.0,0.07911434769630432,0.0007534038378934223,"train",6500.0,"2021-11-21 18:54:02.643153","","","","","","",""
6.0,0.07595930993556976,0.0007569796585109453,"train",6520.0,"2021-11-21 18:54:09.391600","","","","","","",""
6.0,0.07726103067398071,0.0007605597847878862,"train",6540.0,"2021-11-21 18:54:16.730173","","","","","","",""
6.0,0.05746787413954735,0.0007641441622588871,"train",6560.0,"2021-11-21 18:54:23.589065","","","","","","",""
6.0,0.057399727404117584,0.0007677327363939143,"train",6580.0,"2021-11-21 18:54:30.357691","","","","","","",""
6.0,0.07156550139188766,0.0007713254525990895,"train",6600.0,"2021-11-21 18:54:37.653940","","","","","","",""
6.0,0.058692146092653275,0.0007749222562175211,"train",6620.0,"2021-11-21 18:54:44.496602","","","","","","",""
6.0,0.07704909145832062,0.000778523092530133,"train",6640.0,"2021-11-21 18:54:51.911231","","","","","","",""
6.0,0.060759831219911575,0.0007821279067564996,"train",6660.0,"2021-11-21 18:54:58.786520","","","","","","",""
6.0,0.07277245819568634,0.0007857366440556786,"train",6680.0,"2021-11-21 18:55:05.582518","","","","","","",""
6.0,0.06807826459407806,0.0007893492495270442,"train",6700.0,"2021-11-21 18:55:12.987634","","","","","","",""
6.0,0.08177834749221802,0.0007929656682111239,"train",6720.0,"2021-11-21 18:55:19.808723","","","","","","",""
6.0,0.06110945716500282,0.0007965858450904332,"train",6740.0,"2021-11-21 18:55:27.219623","","","","","","",""
6.0,0.053828973323106766,0.000800209725090314,"train",6760.0,"2021-11-21 18:55:34.026656","","","","","","",""
6.0,0.056139085441827774,0.0008038372530797706,"train",6780.0,"2021-11-21 18:55:41.337095","","","","","","",""
6.0,0.05561238154768944,0.0008074683738723109,"train",6800.0,"2021-11-21 18:55:48.065313","","","","","","",""
6.0,0.06000002846121788,0.0008111030322267832,"train",6820.0,"2021-11-21 18:55:54.771955","","","","","","",""
6.0,0.0664101243019104,0.0008147411728482187,"train",6840.0,"2021-11-21 18:56:02.066975","","","","","","",""
6.0,0.057071853429079056,0.0008183827403886721,"train",6860.0,"2021-11-21 18:56:08.850726","","","","","","",""
6.0,0.05129789561033249,0.0008220276794480633,"train",6880.0,"2021-11-21 18:56:16.124514","","","","","","",""
6.0,0.054483696818351746,0.0008256759345750203,"train",6900.0,"2021-11-21 18:56:22.909135","","","","","","",""
6.0,0.0482521615922451,0.0008293274502677234,"train",6920.0,"2021-11-21 18:56:29.691951","","","","","","",""
6.0,0.0710897371172905,0.0008329821709747486,"train",6940.0,"2021-11-21 18:56:37.119182","","","","","","",""
6.0,0.07357382029294968,0.0008366400410959136,"train",6960.0,"2021-11-21 18:56:43.881846","","","","","","",""
6.0,0.054949697107076645,0.000840301004983123,"train",6980.0,"2021-11-21 18:56:51.316797","","","","","","",""
6.0,0.05514656752347946,0.0008439650069412147,"train",7000.0,"2021-11-21 18:56:58.115224","","","","","","",""
6.0,0.07693514972925186,0.0008476319912288095,"train",7020.0,"2021-11-21 18:57:05.475107","","","","","","",""
6.0,0.04543238505721092,0.0008513019020591544,"train",7040.0,"2021-11-21 18:57:12.271937","","","","","","",""
6.0,0.0655990019440651,0.0008549746836009771,"train",7060.0,"2021-11-21 18:57:19.056719","","","","","","",""
6.0,0.05934552103281021,0.0008586502799793306,"train",7080.0,"2021-11-21 18:57:26.420136","","","","","","",""
6.0,0.06272793561220169,0.0008623286352764453,"train",7100.0,"2021-11-21 18:57:33.281276","","","","","","",""
6.0,0.05472717061638832,0.0008660096935325802,"train",7120.0,"2021-11-21 18:57:40.555943","","","","","","",""
6.0,0.05463755503296852,0.0008696933987468731,"train",7140.0,"2021-11-21 18:57:47.354864","","","","","","",""
6.0,0.04875008016824722,0.0008733796948781924,"train",7160.0,"2021-11-21 18:57:54.139479","","","","","","",""
6.0,0.06106840446591377,0.0008770685258459915,"train",7180.0,"2021-11-21 18:58:01.524043","","","","","","",""
6.0,0.057565122842788696,0.0008807598355311595,"train",7200.0,"2021-11-21 18:58:08.301530","","","","","","",""
6.0,0.07801917940378189,0.0008844535677768764,"train",7220.0,"2021-11-21 18:58:15.629459","","","","","","",""
6.0,0.04547828435897827,0.0008881496663894681,"train",7240.0,"2021-11-21 18:58:22.437298","","","","","","",""
6.0,0.03350527212023735,0.0008918480751392592,"train",7260.0,"2021-11-21 18:58:29.769870","","","","","","",""
6.0,0.0632544532418251,0.00089554873776143,"train",7280.0,"2021-11-21 18:58:36.535279","","","","","","",""
6.0,0.055159326642751694,0.0008992515979568724,"train",7300.0,"2021-11-21 18:58:43.321875","","","","","","",""
6.0,0.08831622451543808,0.0009029565993930457,"train",7320.0,"2021-11-21 18:58:50.757201","","","","","","",""
6.0,0.05201156437397003,0.0009066636857048339,"train",7340.0,"2021-11-21 18:58:57.517406","","","","","","",""
6.0,0.05106137692928314,0.0009103728004954039,"train",7360.0,"2021-11-21 18:59:04.921347","","","","","","",""
6.0,0.06394456326961517,0.0009140838873370617,"train",7380.0,"2021-11-21 18:59:11.706537","","","","","","",""
6.0,0.047087736427783966,0.0009177968897721136,"train",7400.0,"2021-11-21 18:59:18.490571","","","","","","",""
6.0,0.0638192668557167,0.0009215117513137218,"train",7420.0,"2021-11-21 18:59:25.804683","","","","","","",""
6.0,0.048077814280986786,0.0009252284154467663,"train",7440.0,"2021-11-21 18:59:32.589167","","","","","","",""
6.0,0.04775813966989517,0.0009289468256287042,"train",7460.0,"2021-11-21 18:59:39.998545","","","","","","",""
6.0,0.06815409660339355,0.0009326669252904287,"train",7480.0,"2021-11-21 18:59:46.776219","","","","","","",""
6.0,0.07504348456859589,0.0009363886578371307,"train",7500.0,"2021-11-21 18:59:54.147881","","","","","","",""
6.0,"","","train",7518.0,"2021-11-21 19:02:12.991905",0.5747944408062287,0.5771167576661875,0.9448988124658732,0.6023801933618611,0.4650250288213969,0.47703205150035405,0.31156413486097434
6.0,"","","val",7518.0,"2021-11-21 19:02:48.743644",0.5623332946770265,0.558935502400542,0.9383730297264463,0.5849305518220106,0.4480039010066767,0.45974736111089687,0.29190766617253144
7.0,0.04665571451187134,0.0009401119666491604,"train",7520.0,"2021-11-21 19:02:52.874706","","","","","","",""
7.0,0.052868761122226715,0.0009438367950828869,"train",7540.0,"2021-11-21 19:02:59.755050","","","","","","",""
7.0,0.04512963071465492,0.000947563086471561,"train",7560.0,"2021-11-21 19:03:07.256488","","","","","","",""
7.0,0.09152398258447647,0.0009512907841261783,"train",7580.0,"2021-11-21 19:03:14.088513","","","","","","",""
7.0,0.047960467636585236,0.0009550198313363391,"train",7600.0,"2021-11-21 19:03:21.487967","","","","","","",""
7.0,0.05453135073184967,0.0009587501713711128,"train",7620.0,"2021-11-21 19:03:28.259351","","","","","","",""
7.0,0.042195022106170654,0.0009624817474799023,"train",7640.0,"2021-11-21 19:03:35.003914","","","","","","",""
7.0,0.05332102254033089,0.0009662145028933038,"train",7660.0,"2021-11-21 19:03:42.334387","","","","","","",""
7.0,0.08604596555233002,0.0009699483808239733,"train",7680.0,"2021-11-21 19:03:49.124386","","","","","","",""
7.0,0.050163693726062775,0.0009736833244674895,"train",7700.0,"2021-11-21 19:03:56.515166","","","","","","",""
7.0,0.04700107127428055,0.0009774192770032192,"train",7720.0,"2021-11-21 19:04:03.338508","","","","","","",""
7.0,0.07239383459091187,0.0009811561815951785,"train",7740.0,"2021-11-21 19:04:10.697157","","","","","","",""
7.0,0.0551663376390934,0.0009848939813929015,"train",7760.0,"2021-11-21 19:04:17.543065","","","","","","",""
7.0,0.07673811167478561,0.0009886326195323026,"train",7780.0,"2021-11-21 19:04:24.424596","","","","","","",""
7.0,0.06484757363796234,0.0009923720391365428,"train",7800.0,"2021-11-21 19:04:31.910399","","","","","","",""
7.0,0.049296095967292786,0.000996112183316893,"train",7820.0,"2021-11-21 19:04:38.850658","","","","","","",""
7.0,0.07340830564498901,0.0009998529951736029,"train",7840.0,"2021-11-21 19:04:46.314245","","","","","","",""
7.0,0.04709230363368988,0.0010035944177967638,"train",7860.0,"2021-11-21 19:04:53.230479","","","","","","",""
7.0,0.049107957631349564,0.0010073363942671744,"train",7880.0,"2021-11-21 19:05:00.114798","","","","","","",""
7.0,0.05584382265806198,0.0010110788676572094,"train",7900.0,"2021-11-21 19:05:07.528297","","","","","","",""
7.0,0.05957505479454994,0.0010148217810316822,"train",7920.0,"2021-11-21 19:05:14.325644","","","","","","",""
7.0,0.0767287015914917,0.0010185650774487127,"train",7940.0,"2021-11-21 19:05:21.811614","","","","","","",""
7.0,0.05358931049704552,0.0010223086999605951,"train",7960.0,"2021-11-21 19:05:28.581379","","","","","","",""
7.0,0.06218351423740387,0.0010260525916146609,"train",7980.0,"2021-11-21 19:05:35.993110","","","","","","",""
7.0,0.03850686550140381,0.0010297966954541469,"train",8000.0,"2021-11-21 19:05:42.828057","","","","","","",""
7.0,0.06599289178848267,0.001033540954519064,"train",8020.0,"2021-11-21 19:05:49.630918","","","","","","",""
7.0,0.07270064949989319,0.0010372853118470592,"train",8040.0,"2021-11-21 19:05:57.105281","","","","","","",""
7.0,0.06970405578613281,0.0010410297104742857,"train",8060.0,"2021-11-21 19:06:03.944692","","","","","","",""
7.0,0.06607607007026672,0.0010447740934362692,"train",8080.0,"2021-11-21 19:06:11.409942","","","","","","",""
7.0,0.0701395645737648,0.0010485184037687715,"train",8100.0,"2021-11-21 19:06:18.365903","","","","","","",""
7.0,0.05885216221213341,0.0010522625845086615,"train",8120.0,"2021-11-21 19:06:25.255623","","","","","","",""
7.0,0.06571833044290543,0.0010560065786947796,"train",8140.0,"2021-11-21 19:06:32.662052","","","","","","",""
7.0,0.04757099971175194,0.0010597503293688013,"train",8160.0,"2021-11-21 19:06:39.505164","","","","","","",""
7.0,0.04924429580569267,0.001063493779576111,"train",8180.0,"2021-11-21 19:06:46.976224","","","","","","",""
7.0,0.0729815810918808,0.0010672368723666614,"train",8200.0,"2021-11-21 19:06:53.869370","","","","","","",""
7.0,0.04308921843767166,0.0010709795507958426,"train",8220.0,"2021-11-21 19:07:01.292157","","","","","","",""
7.0,0.06400705873966217,0.0010747217579253504,"train",8240.0,"2021-11-21 19:07:08.135861","","","","","","",""
7.0,0.06060798093676567,0.0010784634368240487,"train",8260.0,"2021-11-21 19:07:15.017093","","","","","","",""
7.0,0.05915195867419243,0.0010822045305688382,"train",8280.0,"2021-11-21 19:07:22.403640","","","","","","",""
7.0,0.042624473571777344,0.0010859449822455227,"train",8300.0,"2021-11-21 19:07:29.191305","","","","","","",""
7.0,0.06122203171253204,0.001089684734949672,"train",8320.0,"2021-11-21 19:07:36.550494","","","","","","",""
7.0,0.06720627844333649,0.00109342373178749,"train",8340.0,"2021-11-21 19:07:43.308345","","","","","","",""
7.0,0.06711481511592865,0.0010971619158766821,"train",8360.0,"2021-11-21 19:07:50.108773","","","","","","",""
7.0,0.03711134195327759,0.0011008992303473152,"train",8380.0,"2021-11-21 19:07:57.532778","","","","","","",""
7.0,0.03434658423066139,0.001104635618342687,"train",8400.0,"2021-11-21 19:08:04.367326","","","","","","",""
7.0,0.06192510947585106,0.001108371023020191,"train",8420.0,"2021-11-21 19:08:11.728803","","","","","","",""
7.0,0.06941378861665726,0.0011121053875521787,"train",8440.0,"2021-11-21 19:08:18.505036","","","","","","",""
7.0,0.06861218810081482,0.0011158386551268257,"train",8460.0,"2021-11-21 19:08:25.817674","","","","","","",""
7.0,0.043925657868385315,0.0011195707689489972,"train",8480.0,"2021-11-21 19:08:32.656936","","","","","","",""
7.0,0.044601015746593475,0.0011233016722411097,"train",8500.0,"2021-11-21 19:08:39.490841","","","","","","",""
7.0,0.07396689802408218,0.0011270313082439951,"train",8520.0,"2021-11-21 19:08:46.900886","","","","","","",""
7.0,0.06170793995261192,0.001130759620217767,"train",8540.0,"2021-11-21 19:08:53.840702","","","","","","",""
7.0,0.06604243814945221,0.0011344865514426794,"train",8560.0,"2021-11-21 19:09:01.225464","","","","","","",""
7.0,0.052565235644578934,0.0011382120452199938,"train",8580.0,"2021-11-21 19:09:07.953182","","","","","","",""
7.0,"","","train",8592.0,"2021-11-21 19:11:24.811808",0.6012952048315506,0.6044732559443907,0.9491825733472949,0.6061941211554549,0.49541352685071516,0.5140446926000661,0.34005872019235966
7.0,"","","val",8592.0,"2021-11-21 19:11:59.678266",0.5850052186014149,0.5773267835034154,0.9406700426366779,0.5881238308544849,0.48016668731147827,0.4989245545003804,0.3229833052164729
8.0,0.05226466432213783,0.001141936044872839,"train",8600.0,"2021-11-21 19:12:05.770994","","","","","","",""
8.0,0.07008267939090729,0.0011456584937470744,"train",8620.0,"2021-11-21 19:12:13.162725","","","","","","",""
8.0,0.051368072628974915,0.0011493793352121522,"train",8640.0,"2021-11-21 19:12:19.892604","","","","","","",""
8.0,0.05863991379737854,0.0011530985126619784,"train",8660.0,"2021-11-21 19:12:27.117498","","","","","","",""
8.0,0.0519719161093235,0.001156815969515773,"train",8680.0,"2021-11-21 19:12:33.874541","","","","","","",""
8.0,0.0419454500079155,0.001160531649218934,"train",8700.0,"2021-11-21 19:12:41.271243","","","","","","",""
8.0,0.06635868549346924,0.001164245495243894,"train",8720.0,"2021-11-21 19:12:47.954242","","","","","","",""
8.0,0.07017820328474045,0.0011679574510909817,"train",8740.0,"2021-11-21 19:12:54.645807","","","","","","",""
8.0,0.04459889233112335,0.0011716674602892828,"train",8760.0,"2021-11-21 19:13:01.898020","","","","","","",""
8.0,0.04946916177868843,0.0011753754663974968,"train",8780.0,"2021-11-21 19:13:08.605064","","","","","","",""
8.0,0.06670903414487839,0.0011790814130047968,"train",8800.0,"2021-11-21 19:13:15.831518","","","","","","",""
8.0,0.05346233397722244,0.001182785243731688,"train",8820.0,"2021-11-21 19:13:22.584121","","","","","","",""
8.0,0.05575820431113243,0.0011864869022308656,"train",8840.0,"2021-11-21 19:13:29.316910","","","","","","",""
8.0,0.0780574381351471,0.0011901863321880693,"train",8860.0,"2021-11-21 19:13:36.682739","","","","","","",""
8.0,0.04064930975437164,0.001193883477322945,"train",8880.0,"2021-11-21 19:13:43.604331","","","","","","",""
8.0,0.07817374914884567,0.0011975782813898961,"train",8900.0,"2021-11-21 19:13:50.954473","","","","","","",""
8.0,0.04619290307164192,0.0012012706881789417,"train",8920.0,"2021-11-21 19:13:57.695135","","","","","","",""
8.0,0.056470174342393875,0.001204960641516572,"train",8940.0,"2021-11-21 19:14:05.007726","","","","","","",""
8.0,0.06293383985757828,0.0012086480852666014,"train",8960.0,"2021-11-21 19:14:11.725244","","","","","","",""
8.0,0.08096174150705338,0.0012123329633310235,"train",8980.0,"2021-11-21 19:14:18.440828","","","","","","",""
8.0,0.04386797547340393,0.0012160152196508643,"train",9000.0,"2021-11-21 19:14:25.790459","","","","","","",""
8.0,0.045576244592666626,0.0012196947982070355,"train",9020.0,"2021-11-21 19:14:32.525413","","","","","","",""
8.0,0.04169554263353348,0.0012233716430211856,"train",9040.0,"2021-11-21 19:14:39.830999","","","","","","",""
8.0,0.07959377020597458,0.001227045698156553,"train",9060.0,"2021-11-21 19:14:46.561974","","","","","","",""
8.0,0.03426080569624901,0.0012307169077188148,"train",9080.0,"2021-11-21 19:14:53.342888","","","","","","",""
8.0,0.04242635890841484,0.0012343852158569401,"train",9100.0,"2021-11-21 19:15:00.612184","","","","","","",""
8.0,0.04731624945998192,0.0012380505667640377,"train",9120.0,"2021-11-21 19:15:07.469963","","","","","","",""
8.0,0.07546404749155045,0.0012417129046782046,"train",9140.0,"2021-11-21 19:15:14.964685","","","","","","",""
8.0,0.06157718598842621,0.0012453721738833758,"train",9160.0,"2021-11-21 19:15:21.691537","","","","","","",""
8.0,0.04500604793429375,0.001249028318710172,"train",9180.0,"2021-11-21 19:15:29.009380","","","","","","",""
8.0,0.06592462956905365,0.0012526812835367447,"train",9200.0,"2021-11-21 19:15:35.816345","","","","","","",""
8.0,0.04109732061624527,0.0012563310127896242,"train",9220.0,"2021-11-21 19:15:42.679405","","","","","","",""
8.0,0.04050740972161293,0.0012599774509445645,"train",9240.0,"2021-11-21 19:15:50.049063","","","","","","",""
8.0,0.08897645771503448,0.0012636205425273874,"train",9260.0,"2021-11-21 19:15:56.807486","","","","","","",""
8.0,0.05935129150748253,0.0012672602321148268,"train",9280.0,"2021-11-21 19:16:04.138525","","","","","","",""
8.0,0.051951952278614044,0.0012708964643353732,"train",9300.0,"2021-11-21 19:16:10.918244","","","","","","",""
8.0,0.05706238001585007,0.001274529183870114,"train",9320.0,"2021-11-21 19:16:17.611744","","","","","","",""
8.0,0.05012314394116402,0.0012781583354535748,"train",9340.0,"2021-11-21 19:16:24.959265","","","","","","",""
8.0,0.059278059750795364,0.0012817838638745646,"train",9360.0,"2021-11-21 19:16:31.680190","","","","","","",""
8.0,0.055152684450149536,0.001285405713977009,"train",9380.0,"2021-11-21 19:16:38.947005","","","","","","",""
8.0,0.05684135854244232,0.0012890238306607947,"train",9400.0,"2021-11-21 19:16:45.693967","","","","","","",""
8.0,0.052622053772211075,0.001292638158882606,"train",9420.0,"2021-11-21 19:16:52.947776","","","","","","",""
8.0,0.05640780180692673,0.0012962486436567603,"train",9440.0,"2021-11-21 19:16:59.652474","","","","","","",""
8.0,0.047050487250089645,0.0012998552300560484,"train",9460.0,"2021-11-21 19:17:06.399644","","","","","","",""
8.0,0.08300790935754776,0.0013034578632125668,"train",9480.0,"2021-11-21 19:17:13.726028","","","","","","",""
8.0,0.0362955778837204,0.0013070564883185534,"train",9500.0,"2021-11-21 19:17:20.492416","","","","","","",""
8.0,0.08509804308414459,0.001310651050627223,"train",9520.0,"2021-11-21 19:17:27.880031","","","","","","",""
8.0,0.06232397258281708,0.001314241495453598,"train",9540.0,"2021-11-21 19:17:34.548699","","","","","","",""
8.0,0.05535528436303139,0.00131782776817534,"train",9560.0,"2021-11-21 19:17:41.259530","","","","","","",""
8.0,0.05892590433359146,0.0013214098142335837,"train",9580.0,"2021-11-21 19:17:48.611221","","","","","","",""
8.0,0.05698893219232559,0.001324987579133764,"train",9600.0,"2021-11-21 19:17:55.479226","","","","","","",""
8.0,0.06684400141239166,0.0013285610084464463,"train",9620.0,"2021-11-21 19:18:02.811246","","","","","","",""
8.0,0.06336279958486557,0.001332130047808155,"train",9640.0,"2021-11-21 19:18:09.629524","","","","","","",""
8.0,0.04897034168243408,0.001335694642922199,"train",9660.0,"2021-11-21 19:18:16.999974","","","","","","",""
8.0,"","","train",9666.0,"2021-11-21 19:20:35.941095",0.6022702466710326,0.6095622605354027,0.9519592926434465,0.6260225112108825,0.5192220427830124,0.536529727313607,0.35116755118957915
8.0,"","","val",9666.0,"2021-11-21 19:21:10.605184",0.5846573118404268,0.5796036515376405,0.9440761176449652,0.600661363707296,0.49465441235594104,0.5115856761692956,0.32533899852887
9.0,0.059467487037181854,0.0013392547395594985,"train",9680.0,"2021-11-21 19:21:18.764345","","","","","","",""
9.0,0.04975450038909912,0.001342810283559412,"train",9700.0,"2021-11-21 19:21:25.525943","","","","","","",""
9.0,0.08336793631315231,0.0013463612208305564,"train",9720.0,"2021-11-21 19:21:32.951629","","","","","","",""
9.0,0.03776601701974869,0.0013499074973516321,"train",9740.0,"2021-11-21 19:21:39.803051","","","","","","",""
9.0,0.03301983326673508,0.0013534490591722464,"train",9760.0,"2021-11-21 19:21:47.336942","","","","","","",""
9.0,0.043509576469659805,0.0013569858524137305,"train",9780.0,"2021-11-21 19:21:53.996071","","","","","","",""
9.0,0.060807302594184875,0.001360517823269962,"train",9800.0,"2021-11-21 19:22:00.677658","","","","","","",""
9.0,0.0531519390642643,0.0013640449180081834,"train",9820.0,"2021-11-21 19:22:07.985376","","","","","","",""
9.0,0.036938540637493134,0.0013675670829698173,"train",9840.0,"2021-11-21 19:22:14.742405","","","","","","",""
9.0,0.04748283699154854,0.0013710842645712853,"train",9860.0,"2021-11-21 19:22:22.113055","","","","","","",""
9.0,0.03926042094826698,0.0013745964093048219,"train",9880.0,"2021-11-21 19:22:28.914667","","","","","","",""
9.0,0.02924538403749466,0.0013781034637392886,"train",9900.0,"2021-11-21 19:22:36.384064","","","","","","",""
9.0,0.05165962129831314,0.0013816053745209864,"train",9920.0,"2021-11-21 19:22:43.193472","","","","","","",""
9.0,0.04027906432747841,0.0013851020883744697,"train",9940.0,"2021-11-21 19:22:49.952168","","","","","","",""
9.0,0.0505945049226284,0.001388593552103353,"train",9960.0,"2021-11-21 19:22:57.305279","","","","","","",""
9.0,0.08197306096553802,0.0013920797125911233,"train",9980.0,"2021-11-21 19:23:04.068116","","","","","","",""
9.0,0.058487292379140854,0.001395560516801947,"train",10000.0,"2021-11-21 19:23:11.412674","","","","","","",""
9.0,0.04566676542162895,0.0013990359117814774,"train",10020.0,"2021-11-21 19:23:18.238747","","","","","","",""
9.0,0.05687945708632469,0.0014025058446576583,"train",10040.0,"2021-11-21 19:23:25.162398","","","","","","",""
9.0,0.08697688579559326,0.0014059702626415317,"train",10060.0,"2021-11-21 19:23:32.558883","","","","","","",""
9.0,0.06463195383548737,0.0014094291130280377,"train",10080.0,"2021-11-21 19:23:39.385647","","","","","","",""
9.0,0.056565240025520325,0.0014128823431968183,"train",10100.0,"2021-11-21 19:23:46.808936","","","","","","",""
9.0,0.055343519896268845,0.001416329900613017,"train",10120.0,"2021-11-21 19:23:53.621402","","","","","","",""
9.0,0.07058524340391159,0.0014197717328280782,"train",10140.0,"2021-11-21 19:24:01.011071","","","","","","",""
9.0,0.04256200045347214,0.0014232077874805457,"train",10160.0,"2021-11-21 19:24:07.916248","","","","","","",""
9.0,0.0899830237030983,0.0014266380122968589,"train",10180.0,"2021-11-21 19:24:14.792648","","","","","","",""
9.0,0.07866337150335312,0.0014300623550921468,"train",10200.0,"2021-11-21 19:24:22.247011","","","","","","",""
9.0,0.0405893512070179,0.0014334807637710243,"train",10220.0,"2021-11-21 19:24:29.152139","","","","","","",""
9.0,0.07160472124814987,0.0014368931863283831,"train",10240.0,"2021-11-21 19:24:36.668517","","","","","","",""
9.0,0.0454605296254158,0.0014402995708501826,"train",10260.0,"2021-11-21 19:24:43.459738","","","","","","",""
9.0,0.0754297748208046,0.0014436998655142422,"train",10280.0,"2021-11-21 19:24:50.223343","","","","","","",""
9.0,0.04784969985485077,0.0014470940185910258,"train",10300.0,"2021-11-21 19:24:57.543064","","","","","","",""
9.0,0.04420333728194237,0.001450481978444431,"train",10320.0,"2021-11-21 19:25:04.364889","","","","","","",""
9.0,0.045400433242321014,0.0014538636935325763,"train",10340.0,"2021-11-21 19:25:11.814021","","","","","","",""
9.0,0.05494245886802673,0.0014572391124085817,"train",10360.0,"2021-11-21 19:25:18.620482","","","","","","",""
9.0,0.056084662675857544,0.0014606081837213525,"train",10380.0,"2021-11-21 19:25:26.024603","","","","","","",""
9.0,0.05226034298539162,0.0014639708562163639,"train",10400.0,"2021-11-21 19:25:32.858941","","","","","","",""
9.0,0.05124707520008087,0.001467327078736435,"train",10420.0,"2021-11-21 19:25:39.652672","","","","","","",""
9.0,0.03207379952073097,0.0014706768002225108,"train",10440.0,"2021-11-21 19:25:47.048332","","","","","","",""
9.0,0.07027425616979599,0.0014740199697144392,"train",10460.0,"2021-11-21 19:25:53.873673","","","","","","",""
9.0,0.07581537961959839,0.0014773565363517442,"train",10480.0,"2021-11-21 19:26:01.255228","","","","","","",""
9.0,0.0634164959192276,0.0014806864493744007,"train",10500.0,"2021-11-21 19:26:08.028320","","","","","","",""
9.0,0.057446397840976715,0.0014840096581236072,"train",10520.0,"2021-11-21 19:26:14.846836","","","","","","",""
9.0,0.06312452256679535,0.001487326112042556,"train",10540.0,"2021-11-21 19:26:22.236866","","","","","","",""
9.0,0.07283303141593933,0.0014906357606772013,"train",10560.0,"2021-11-21 19:26:29.158512","","","","","","",""
9.0,0.055270180106163025,0.0014939385536770291,"train",10580.0,"2021-11-21 19:26:36.681372","","","","","","",""
9.0,0.041056077927351,0.0014972344407958218,"train",10600.0,"2021-11-21 19:26:43.463979","","","","","","",""
9.0,0.0755808874964714,0.0015005233718924213,"train",10620.0,"2021-11-21 19:26:50.807696","","","","","","",""
9.0,0.05931328237056732,0.0015038052969314946,"train",10640.0,"2021-11-21 19:26:57.603671","","","","","","",""
9.0,0.06384167075157166,0.0015070801659842939,"train",10660.0,"2021-11-21 19:27:04.354916","","","","","","",""
9.0,0.040418900549411774,0.001510347929229414,"train",10680.0,"2021-11-21 19:27:11.657512","","","","","","",""
9.0,0.04626499116420746,0.0015136085369535537,"train",10700.0,"2021-11-21 19:27:18.449651","","","","","","",""
9.0,0.05245713144540787,0.0015168619395522708,"train",10720.0,"2021-11-21 19:27:25.832152","","","","","","",""
9.0,0.05292114242911339,0.0015201080875307349,"train",10740.0,"2021-11-21 19:27:32.611969","","","","","","",""
9.0,"","","train",10740.0,"2021-11-21 19:29:45.938555",0.5938295859710399,0.6070548256537436,0.9497104101032569,0.6023925548852544,0.5065576251442648,0.5281813790666625,0.3416009907139733
9.0,"","","val",10740.0,"2021-11-21 19:30:20.906891",0.5814681665313696,0.57879885135192,0.9432910999863685,0.5861673022905562,0.49161622186708975,0.5123911966588366,0.32503270206471735
10.0,0.05715520679950714,0.0015233469315044834,"train",10760.0,"2021-11-21 19:30:31.217553","","","","","","",""
10.0,0.0459216944873333,0.0015265784222001709,"train",10780.0,"2021-11-21 19:30:38.671329","","","","","","",""
10.0,0.041273899376392365,0.0015298025104563185,"train",10800.0,"2021-11-21 19:30:45.520899","","","","","","",""
10.0,0.0568389967083931,0.001533019147224064,"train",10820.0,"2021-11-21 19:30:52.927510","","","","","","",""
10.0,0.070250004529953,0.0015362282835679054,"train",10840.0,"2021-11-21 19:30:59.637366","","","","","","",""
10.0,0.05308504030108452,0.0015394298706664469,"train",10860.0,"2021-11-21 19:31:06.943874","","","","","","",""
10.0,0.050184573978185654,0.001542623859813141,"train",10880.0,"2021-11-21 19:31:13.588559","","","","","","",""
10.0,0.046939119696617126,0.00154581020241703,"train",10900.0,"2021-11-21 19:31:20.386756","","","","","","",""
10.0,0.0454440675675869,0.0015489888500034858,"train",10920.0,"2021-11-21 19:31:27.804886","","","","","","",""
10.0,0.028469879180192947,0.0015521597542149444,"train",10940.0,"2021-11-21 19:31:34.621396","","","","","","",""
10.0,0.04328681156039238,0.0015553228668116455,"train",10960.0,"2021-11-21 19:31:41.930922","","","","","","",""
10.0,0.046639811247587204,0.0015584781396723642,"train",10980.0,"2021-11-21 19:31:48.710674","","","","","","",""
10.0,0.048464931547641754,0.0015616255247951432,"train",11000.0,"2021-11-21 19:31:55.544469","","","","","","",""
10.0,0.0339168906211853,0.0015647649742980233,"train",11020.0,"2021-11-21 19:32:02.914947","","","","","","",""
10.0,0.04130170866847038,0.0015678964404197727,"train",11040.0,"2021-11-21 19:32:09.651504","","","","","","",""
10.0,0.04532109200954437,0.0015710198755206112,"train",11060.0,"2021-11-21 19:32:16.985058","","","","","","",""
10.0,0.06424804776906967,0.0015741352320829379,"train",11080.0,"2021-11-21 19:32:23.814021","","","","","","",""
10.0,0.05710074305534363,0.0015772424627120527,"train",11100.0,"2021-11-21 19:32:31.230934","","","","","","",""
10.0,0.036864034831523895,0.0015803415201368761,"train",11120.0,"2021-11-21 19:32:37.975609","","","","","","",""
10.0,0.04053155705332756,0.001583432357210671,"train",11140.0,"2021-11-21 19:32:44.709715","","","","","","",""
10.0,0.07356595247983932,0.001586514926911758,"train",11160.0,"2021-11-21 19:32:52.162845","","","","","","",""
10.0,0.05360782891511917,0.0015895891823442313,"train",11180.0,"2021-11-21 19:32:58.909161","","","","","","",""
10.0,0.06171414256095886,0.0015926550767386717,"train",11200.0,"2021-11-21 19:33:06.297447","","","","","","",""
10.0,0.05566268786787987,0.0015957125634528599,"train",11220.0,"2021-11-21 19:33:13.064946","","","","","","",""
10.0,0.048530519008636475,0.0015987615959724836,"train",11240.0,"2021-11-21 19:33:19.767456","","","","","","",""
10.0,0.05656357482075691,0.0016018021279118457,"train",11260.0,"2021-11-21 19:33:27.104418","","","","","","",""
10.0,0.03788799047470093,0.0016048341130145728,"train",11280.0,"2021-11-21 19:33:34.015532","","","","","","",""
10.0,0.04812488332390785,0.0016078575051543145,"train",11300.0,"2021-11-21 19:33:41.571311","","","","","","",""
10.0,0.04257453233003616,0.0016108722583354478,"train",11320.0,"2021-11-21 19:33:48.311250","","","","","","",""
10.0,0.06202486529946327,0.0016138783266937777,"train",11340.0,"2021-11-21 19:33:55.579442","","","","","","",""
10.0,0.05276446044445038,0.0016168756644972322,"train",11360.0,"2021-11-21 19:34:02.405000","","","","","","",""
10.0,0.052691176533699036,0.0016198642261465587,"train",11380.0,"2021-11-21 19:34:09.067224","","","","","","",""
10.0,0.05066009983420372,0.0016228439661760208,"train",11400.0,"2021-11-21 19:34:16.427474","","","","","","",""
10.0,0.047245945781469345,0.001625814839254086,"train",11420.0,"2021-11-21 19:34:23.218174","","","","","","",""
10.0,0.0553399883210659,0.0016287768001841164,"train",11440.0,"2021-11-21 19:34:30.458987","","","","","","",""
10.0,0.056543514132499695,0.001631729803905059,"train",11460.0,"2021-11-21 19:34:37.187839","","","","","","",""
10.0,0.06899082660675049,0.0016346738054921273,"train",11480.0,"2021-11-21 19:34:44.141870","","","","","","",""
10.0,0.04912397637963295,0.001637608760157486,"train",11500.0,"2021-11-21 19:34:51.597825","","","","","","",""
10.0,0.04665578156709671,0.0016405346232509356,"train",11520.0,"2021-11-21 19:34:58.390600","","","","","","",""
10.0,0.03611811622977257,0.0016434513502605861,"train",11540.0,"2021-11-21 19:35:05.776879","","","","","","",""
10.0,0.04899179935455322,0.0016463588968135383,"train",11560.0,"2021-11-21 19:35:12.580001","","","","","","",""
10.0,0.04893050342798233,0.0016492572186765577,"train",11580.0,"2021-11-21 19:35:19.931572","","","","","","",""
10.0,0.061168864369392395,0.001652146271756747,"train",11600.0,"2021-11-21 19:35:26.701024","","","","","","",""
10.0,0.07155268639326096,0.0016550260121022172,"train",11620.0,"2021-11-21 19:35:33.470208","","","","","","",""
10.0,0.046978410333395004,0.0016578963959027562,"train",11640.0,"2021-11-21 19:35:40.750050","","","","","","",""
10.0,0.0886814296245575,0.001660757379490496,"train",11660.0,"2021-11-21 19:35:47.529591","","","","","","",""
10.0,0.04832907021045685,0.0016636089193405761,"train",11680.0,"2021-11-21 19:35:54.779784","","","","","","",""
10.0,0.0639922022819519,0.0016664509720718049,"train",11700.0,"2021-11-21 19:36:01.672280","","","","","","",""
10.0,0.07306275516748428,0.0016692834944473224,"train",11720.0,"2021-11-21 19:36:08.520622","","","","","","",""
10.0,0.04297352582216263,0.0016721064433752554,"train",11740.0,"2021-11-21 19:36:15.817419","","","","","","",""
10.0,0.05275812745094299,0.0016749197759093734,"train",11760.0,"2021-11-21 19:36:22.615420","","","","","","",""
10.0,0.07343943417072296,0.0016777234492497436,"train",11780.0,"2021-11-21 19:36:29.949150","","","","","","",""
10.0,0.04296332597732544,0.0016805174207433808,"train",11800.0,"2021-11-21 19:36:36.792423","","","","","","",""
10.0,"","","train",11814.0,"2021-11-21 19:38:53.846506",0.6205923015353271,0.6289573127587862,0.9560283318587679,0.6345567314745423,0.5231500910113204,0.5386171339157516,0.3628892241767343
10.0,"","","val",11814.0,"2021-11-21 19:39:28.665618",0.6040241215354285,0.6032936359803343,0.9483921617716239,0.6135627773247098,0.5073451981835576,0.5204576156522982,0.3434319884222278
11.0,0.06078266352415085,0.0016833016478848956,"train",11820.0,"2021-11-21 19:39:34.774005","","","","","","",""
11.0,0.053247205913066864,0.0016860760883171426,"train",11840.0,"2021-11-21 19:39:41.699828","","","","","","",""
11.0,0.044716883450746536,0.001688840699831864,"train",11860.0,"2021-11-21 19:39:48.561447","","","","","","",""
11.0,0.047509655356407166,0.0016915954403703313,"train",11880.0,"2021-11-21 19:39:55.935878","","","","","","",""
11.0,0.03535955026745796,0.0016943402680239862,"train",11900.0,"2021-11-21 19:40:02.779368","","","","","","",""
11.0,0.04764949902892113,0.0016970751410350774,"train",11920.0,"2021-11-21 19:40:10.126405","","","","","","",""
11.0,0.036186546087265015,0.001699800017797296,"train",11940.0,"2021-11-21 19:40:16.910618","","","","","","",""
11.0,0.050701335072517395,0.0017025148568564086,"train",11960.0,"2021-11-21 19:40:23.823414","","","","","","",""
11.0,0.07726572453975677,0.001705219616910888,"train",11980.0,"2021-11-21 19:40:31.200461","","","","","","",""
11.0,0.050942312926054,0.001707914256812541,"train",12000.0,"2021-11-21 19:40:38.052987","","","","","","",""
11.0,0.07532905787229538,0.0017105987355671352,"train",12020.0,"2021-11-21 19:40:45.447133","","","","","","",""
11.0,0.05424712598323822,0.0017132730123350227,"train",12040.0,"2021-11-21 19:40:52.265706","","","","","","",""
11.0,0.05008760467171669,0.00171593704643176,"train",12060.0,"2021-11-21 19:40:59.529696","","","","","","",""
11.0,0.06703928112983704,0.0017185907973287285,"train",12080.0,"2021-11-21 19:41:06.252005","","","","","","",""
11.0,0.05749772861599922,0.0017212342246537506,"train",12100.0,"2021-11-21 19:41:13.069559","","","","","","",""
11.0,0.047177571803331375,0.0017238672881917032,"train",12120.0,"2021-11-21 19:41:20.493970","","","","","","",""
11.0,0.040904879570007324,0.001726489947885131,"train",12140.0,"2021-11-21 19:41:27.261424","","","","","","",""
11.0,0.052795540541410446,0.0017291021638348543,"train",12160.0,"2021-11-21 19:41:34.615323","","","","","","",""
11.0,0.05026263743638992,0.0017317038963005765,"train",12180.0,"2021-11-21 19:41:41.403343","","","","","","",""
11.0,0.04880152642726898,0.00173429510570149,"train",12200.0,"2021-11-21 19:41:48.086722","","","","","","",""
11.0,0.04651494696736336,0.0017368757526168759,"train",12220.0,"2021-11-21 19:41:55.379366","","","","","","",""
11.0,0.032045796513557434,0.0017394457977867057,"train",12240.0,"2021-11-21 19:42:02.191168","","","","","","",""
11.0,0.06387416273355484,0.0017420052021122378,"train",12260.0,"2021-11-21 19:42:09.791237","","","","","","",""
11.0,0.048206623643636703,0.0017445539266566128,"train",12280.0,"2021-11-21 19:42:16.583577","","","","","","",""
11.0,0.08175157010555267,0.001747091932645445,"train",12300.0,"2021-11-21 19:42:23.910709","","","","","","",""
11.0,0.028807038441300392,0.0017496191814674125,"train",12320.0,"2021-11-21 19:42:30.677963","","","","","","",""
11.0,0.06233621761202812,0.001752135634674846,"train",12340.0,"2021-11-21 19:42:37.563888","","","","","","",""
11.0,0.042076993733644485,0.0017546412539843118,"train",12360.0,"2021-11-21 19:42:44.941281","","","","","","",""
11.0,0.0422058179974556,0.001757136001277194,"train",12380.0,"2021-11-21 19:42:51.773403","","","","","","",""
11.0,0.044018376618623734,0.001759619838600278,"train",12400.0,"2021-11-21 19:42:59.166455","","","","","","",""
11.0,0.04622627794742584,0.0017620927281663229,"train",12420.0,"2021-11-21 19:43:06.043564","","","","","","",""
11.0,0.038975369185209274,0.0017645546323546398,"train",12440.0,"2021-11-21 19:43:12.908139","","","","","","",""
11.0,0.04756222665309906,0.0017670055137116636,"train",12460.0,"2021-11-21 19:43:20.313602","","","","","","",""
11.0,0.04428205266594887,0.0017694453349515209,"train",12480.0,"2021-11-21 19:43:27.171126","","","","","","",""
11.0,0.06533233076334,0.0017718740589566,"train",12500.0,"2021-11-21 19:43:34.590739","","","","","","",""
11.0,0.043323058634996414,0.0017742916487781134,"train",12520.0,"2021-11-21 19:43:41.387265","","","","","","",""
11.0,0.06992641091346741,0.0017766980676366608,"train",12540.0,"2021-11-21 19:43:48.990122","","","","","","",""
11.0,0.06846680492162704,0.001779093278922789,"train",12560.0,"2021-11-21 19:43:55.917408","","","","","","",""
11.0,0.07393213361501694,0.001781477246197548,"train",12580.0,"2021-11-21 19:44:02.804867","","","","","","",""
11.0,0.055376071482896805,0.0017838499331930462,"train",12600.0,"2021-11-21 19:44:10.176396","","","","","","",""
11.0,0.07176613807678223,0.001786211303813001,"train",12620.0,"2021-11-21 19:44:17.094078","","","","","","",""
11.0,0.07999978959560394,0.0017885613221332894,"train",12640.0,"2021-11-21 19:44:24.478147","","","","","","",""
11.0,0.05662744119763374,0.0017908999524024931,"train",12660.0,"2021-11-21 19:44:31.292568","","","","","","",""
11.0,0.0637146458029747,0.0017932271590424438,"train",12680.0,"2021-11-21 19:44:38.113112","","","","","","",""
11.0,0.04991203173995018,0.0017955429066487635,"train",12700.0,"2021-11-21 19:44:45.477276","","","","","","",""
11.0,0.08592380583286285,0.0017978471599914025,"train",12720.0,"2021-11-21 19:44:52.261976","","","","","","",""
11.0,0.04992341622710228,0.0018001398840151778,"train",12740.0,"2021-11-21 19:44:59.642073","","","","","","",""
11.0,0.0971851646900177,0.0018024210438403031,"train",12760.0,"2021-11-21 19:45:06.350841","","","","","","",""
11.0,0.06254129856824875,0.0018046906047629228,"train",12780.0,"2021-11-21 19:45:13.683430","","","","","","",""
11.0,0.08393563330173492,0.0018069485322556372,"train",12800.0,"2021-11-21 19:45:20.486944","","","","","","",""
11.0,0.05784362182021141,0.001809194791968029,"train",12820.0,"2021-11-21 19:45:27.316620","","","","","","",""
11.0,0.06711436808109283,0.0018114293497271863,"train",12840.0,"2021-11-21 19:45:34.704274","","","","","","",""
11.0,0.05449002608656883,0.0018136521715382218,"train",12860.0,"2021-11-21 19:45:41.572261","","","","","","",""
11.0,0.07343321293592453,0.0018158632235847892,"train",12880.0,"2021-11-21 19:45:48.924444","","","","","","",""
11.0,"","","train",12888.0,"2021-11-21 19:48:03.796620",0.6224550680346358,0.6368296759996779,0.9563761049087897,0.6395700630951884,0.534977142212095,0.5521100323937037,0.3721539643522741
11.0,"","","val",12888.0,"2021-11-21 19:48:40.010217",0.6054737330395454,0.5999660537028946,0.9515206041824731,0.6168726407726648,0.5143338045621335,0.528735456158962,0.3476112846750296
12.0,0.07018530368804932,0.0018180624722295999,"train",12900.0,"2021-11-21 19:48:47.599774","","","","","","",""
12.0,0.05722697079181671,0.001820249884014933,"train",12920.0,"2021-11-21 19:48:54.416165","","","","","","",""
12.0,0.0492510162293911,0.001822425425663144,"train",12940.0,"2021-11-21 19:49:01.872046","","","","","","",""
12.0,0.043185457587242126,0.0018245890640771725,"train",12960.0,"2021-11-21 19:49:08.574600","","","","","","",""
12.0,0.044278401881456375,0.0018267407663410452,"train",12980.0,"2021-11-21 19:49:15.855345","","","","","","",""
12.0,0.04942306503653526,0.0018288804997203755,"train",13000.0,"2021-11-21 19:49:22.521515","","","","","","",""
12.0,0.0395885594189167,0.0018310082316628634,"train",13020.0,"2021-11-21 19:49:29.859664","","","","","","",""
12.0,0.0527891106903553,0.0018331239297987893,"train",13040.0,"2021-11-21 19:49:36.698261","","","","","","",""
12.0,0.04217328503727913,0.0018352275619415066,"train",13060.0,"2021-11-21 19:49:43.523302","","","","","","",""
12.0,0.05079143866896629,0.0018373190960879326,"train",13080.0,"2021-11-21 19:49:50.865437","","","","","","",""
12.0,0.056433964520692825,0.0018393985004190336,"train",13100.0,"2021-11-21 19:49:57.671483","","","","","","",""
12.0,0.04313453659415245,0.00184146574330031,"train",13120.0,"2021-11-21 19:50:05.031306","","","","","","",""
12.0,0.08602654188871384,0.001843520793282278,"train",13140.0,"2021-11-21 19:50:11.821309","","","","","","",""
12.0,0.06445323675870895,0.0018455636191009464,"train",13160.0,"2021-11-21 19:50:18.578834","","","","","","",""
12.0,0.03858347237110138,0.001847594189678294,"train",13180.0,"2021-11-21 19:50:25.899448","","","","","","",""
12.0,0.03495988994836807,0.0018496124741227415,"train",13200.0,"2021-11-21 19:50:32.733325","","","","","","",""
12.0,0.059650667011737823,0.001851618441729622,"train",13220.0,"2021-11-21 19:50:40.024512","","","","","","",""
12.0,0.0427858904004097,0.0018536120619816467,"train",13240.0,"2021-11-21 19:50:46.755462","","","","","","",""
12.0,0.033598653972148895,0.0018555933045493712,"train",13260.0,"2021-11-21 19:50:54.178240","","","","","","",""
12.0,0.07717486470937729,0.0018575621392916554,"train",13280.0,"2021-11-21 19:51:00.903795","","","","","","",""
12.0,0.051651984453201294,0.0018595185362561225,"train",13300.0,"2021-11-21 19:51:07.697480","","","","","","",""
12.0,0.03746765851974487,0.0018614624656796155,"train",13320.0,"2021-11-21 19:51:14.963056","","","","","","",""
12.0,0.042508263140916824,0.0018633938979886484,"train",13340.0,"2021-11-21 19:51:21.673700","","","","","","",""
12.0,0.06169746071100235,0.0018653128037998568,"train",13360.0,"2021-11-21 19:51:28.925208","","","","","","",""
12.0,0.04769385606050491,0.0018672191539204459,"train",13380.0,"2021-11-21 19:51:35.570305","","","","","","",""
12.0,0.07219979166984558,0.0018691129193486335,"train",13400.0,"2021-11-21 19:51:42.322935","","","","","","",""
12.0,0.05327748507261276,0.0018709940712740908,"train",13420.0,"2021-11-21 19:51:49.629642","","","","","","",""
12.0,0.046656250953674316,0.0018728625810783823,"train",13440.0,"2021-11-21 19:51:56.401112","","","","","","",""
12.0,0.06775613129138947,0.0018747184203353996,"train",13460.0,"2021-11-21 19:52:03.737212","","","","","","",""
12.0,0.036157358437776566,0.0018765615608117947,"train",13480.0,"2021-11-21 19:52:10.532700","","","","","","",""
12.0,0.06882091611623764,0.0018783919744674096,"train",13500.0,"2021-11-21 19:52:17.881291","","","","","","",""
12.0,0.06306338310241699,0.0018802096334557027,"train",13520.0,"2021-11-21 19:52:24.605398","","","","","","",""
12.0,0.0881509780883789,0.0018820145101241712,"train",13540.0,"2021-11-21 19:52:31.331509","","","","","","",""
12.0,0.052750155329704285,0.0018838065770147745,"train",13560.0,"2021-11-21 19:52:38.518643","","","","","","",""
12.0,0.054530758410692215,0.0018855858068643496,"train",13580.0,"2021-11-21 19:52:45.270397","","","","","","",""
12.0,0.05996714532375336,0.001887352172605026,"train",13600.0,"2021-11-21 19:52:52.576443","","","","","","",""
12.0,0.04208464175462723,0.0018891056473646398,"train",13620.0,"2021-11-21 19:52:59.318228","","","","","","",""
12.0,0.044582121074199677,0.0018908462044671395,"train",13640.0,"2021-11-21 19:53:06.066172","","","","","","",""
12.0,0.041073039174079895,0.001892573817432993,"train",13660.0,"2021-11-21 19:53:13.391213","","","","","","",""
12.0,0.05194041132926941,0.0018942884599795914,"train",13680.0,"2021-11-21 19:53:20.134750","","","","","","",""
12.0,0.051890138536691666,0.001895990106021648,"train",13700.0,"2021-11-21 19:53:27.535464","","","","","","",""
12.0,0.03715579956769943,0.0018976787296715943,"train",13720.0,"2021-11-21 19:53:34.191645","","","","","","",""
12.0,0.04325595498085022,0.0018993543052399757,"train",13740.0,"2021-11-21 19:53:41.470310","","","","","","",""
12.0,0.0477423220872879,0.0019010168072358413,"train",13760.0,"2021-11-21 19:53:48.250846","","","","","","",""
12.0,0.04981463402509689,0.0019026662103671305,"train",13780.0,"2021-11-21 19:53:55.019435","","","","","","",""
12.0,0.047944437712430954,0.0019043024895410605,"train",13800.0,"2021-11-21 19:54:02.378175","","","","","","",""
12.0,0.039925072342157364,0.001905925619864506,"train",13820.0,"2021-11-21 19:54:09.161026","","","","","","",""
12.0,0.0645669475197792,0.001907535576644378,"train",13840.0,"2021-11-21 19:54:16.602388","","","","","","",""
12.0,0.05829102173447609,0.0019091323353880008,"train",13860.0,"2021-11-21 19:54:23.457002","","","","","","",""
12.0,0.06375441700220108,0.0019107158718034828,"train",13880.0,"2021-11-21 19:54:30.174583","","","","","","",""
12.0,0.047937050461769104,0.001912286161800088,"train",13900.0,"2021-11-21 19:54:37.508591","","","","","","",""
12.0,0.0815991461277008,0.0019138431814886008,"train",13920.0,"2021-11-21 19:54:44.280721","","","","","","",""
12.0,0.03670402988791466,0.0019153869071816896,"train",13940.0,"2021-11-21 19:54:51.654847","","","","","","",""
12.0,0.04795609414577484,0.0019169173153942693,"train",13960.0,"2021-11-21 19:54:58.370887","","","","","","",""
12.0,"","","train",13962.0,"2021-11-21 19:57:12.879903",0.6193262024303282,0.6437394609336933,0.957806808414989,0.6504782411936435,0.5486095619208107,0.568089040253507,0.3754662448194229
12.0,"","","val",13962.0,"2021-11-21 19:57:48.914835",0.602690478951641,0.60429440519044,0.950176174101662,0.6259090702464858,0.5197411721218842,0.538012413225763,0.3453556064520041
13.0,0.055678948760032654,0.0019184343828438557,"train",13980.0,"2021-11-21 19:57:59.134605","","","","","","",""
13.0,0.05479638651013374,0.0019199380864509208,"train",14000.0,"2021-11-21 19:58:05.940801","","","","","","",""
13.0,0.04448241740465164,0.0019214284033392457,"train",14020.0,"2021-11-21 19:58:12.752715","","","","","","",""
13.0,0.05416962131857872,0.0019229053108362649,"train",14040.0,"2021-11-21 19:58:20.155491","","","","","","",""
13.0,0.05386536940932274,0.0019243687864734145,"train",14060.0,"2021-11-21 19:58:26.949900","","","","","","",""
13.0,0.0492345429956913,0.0019258188079864732,"train",14080.0,"2021-11-21 19:58:34.286947","","","","","","",""
13.0,0.0366034097969532,0.0019272553533158999,"train",14100.0,"2021-11-21 19:58:41.042440","","","","","","",""
13.0,0.04454632103443146,0.0019286784006071697,"train",14120.0,"2021-11-21 19:58:47.939901","","","","","","",""
13.0,0.06922367215156555,0.0019300879282111083,"train",14140.0,"2021-11-21 19:58:55.340619","","","","","","",""
13.0,0.0399174802005291,0.0019314839146842185,"train",14160.0,"2021-11-21 19:59:02.065129","","","","","","",""
13.0,0.06474197655916214,0.0019328663387890076,"train",14180.0,"2021-11-21 19:59:09.378635","","","","","","",""
13.0,0.0418517142534256,0.0019342351794943119,"train",14200.0,"2021-11-21 19:59:16.191829","","","","","","",""
13.0,0.0567198321223259,0.0019355904159756138,"train",14220.0,"2021-11-21 19:59:23.494775","","","","","","",""
13.0,0.036045655608177185,0.0019369320276153613,"train",14240.0,"2021-11-21 19:59:30.298476","","","","","","",""
13.0,0.042345013469457626,0.00193825999400328,"train",14260.0,"2021-11-21 19:59:37.073975","","","","","","",""
13.0,0.04988476261496544,0.0019395742949366843,"train",14280.0,"2021-11-21 19:59:44.365152","","","","","","",""
13.0,0.055345404893159866,0.0019408749104207845,"train",14300.0,"2021-11-21 19:59:51.086637","","","","","","",""
13.0,0.046022526919841766,0.0019421618206689913,"train",14320.0,"2021-11-21 19:59:58.440300","","","","","","",""
13.0,0.051503706723451614,0.0019434350061032163,"train",14340.0,"2021-11-21 20:00:05.215567","","","","","","",""
13.0,0.0442953035235405,0.0019446944473541703,"train",14360.0,"2021-11-21 20:00:11.940346","","","","","","",""
13.0,0.03865525871515274,0.0019459401252616573,"train",14380.0,"2021-11-21 20:00:19.286498","","","","","","",""
13.0,0.050969257950782776,0.001947172020874868,"train",14400.0,"2021-11-21 20:00:26.046500","","","","","","",""
13.0,0.047634098678827286,0.0019483901154526647,"train",14420.0,"2021-11-21 20:00:33.359333","","","","","","",""
13.0,0.05884000286459923,0.0019495943904638694,"train",14440.0,"2021-11-21 20:00:40.192920","","","","","","",""
13.0,0.04638144373893738,0.0019507848275875444,"train",14460.0,"2021-11-21 20:00:47.585725","","","","","","",""
13.0,0.052071064710617065,0.0019519614087132712,"train",14480.0,"2021-11-21 20:00:54.492117","","","","","","",""
13.0,0.04940877854824066,0.0019531241159414263,"train",14500.0,"2021-11-21 20:01:01.322763","","","","","","",""
13.0,0.04133220389485359,0.001954272931583453,"train",14520.0,"2021-11-21 20:01:08.753111","","","","","","",""
13.0,0.06852266192436218,0.0019554078381621306,"train",14540.0,"2021-11-21 20:01:15.578578","","","","","","",""
13.0,0.042936697602272034,0.0019565288184118417,"train",14560.0,"2021-11-21 20:01:22.894023","","","","","","",""
13.0,0.052725281566381454,0.0019576358552788314,"train",14580.0,"2021-11-21 20:01:29.658591","","","","","","",""
13.0,0.05238807946443558,0.0019587289319214713,"train",14600.0,"2021-11-21 20:01:36.562442","","","","","","",""
13.0,0.05735026299953461,0.0019598080317105113,"train",14620.0,"2021-11-21 20:01:43.929682","","","","","","",""
13.0,0.054959602653980255,0.001960873138229337,"train",14640.0,"2021-11-21 20:01:50.640020","","","","","","",""
13.0,0.045849233865737915,0.0019619242352742153,"train",14660.0,"2021-11-21 20:01:57.876636","","","","","","",""
13.0,0.057725366204977036,0.001962961306854543,"train",14680.0,"2021-11-21 20:02:04.570191","","","","","","",""
13.0,0.06915334612131119,0.0019639843371930905,"train",14700.0,"2021-11-21 20:02:11.917442","","","","","","",""
13.0,0.0371721051633358,0.001964993310726241,"train",14720.0,"2021-11-21 20:02:18.737554","","","","","","",""
13.0,0.04862634092569351,0.0019659882121042262,"train",14740.0,"2021-11-21 20:02:25.583307","","","","","","",""
13.0,0.05663283169269562,0.001966969026191363,"train",14760.0,"2021-11-21 20:02:32.995287","","","","","","",""
13.0,0.04535675048828125,0.0019679357380662805,"train",14780.0,"2021-11-21 20:02:39.722523","","","","","","",""
13.0,0.05542413890361786,0.001968888333022148,"train",14800.0,"2021-11-21 20:02:47.006796","","","","","","",""
13.0,0.03179863095283508,0.0019698267965669,"train",14820.0,"2021-11-21 20:02:53.689678","","","","","","",""
13.0,0.06926347315311432,0.0019707511144234557,"train",14840.0,"2021-11-21 20:03:00.447376","","","","","","",""
13.0,0.07383592426776886,0.001971661272529935,"train",14860.0,"2021-11-21 20:03:07.810965","","","","","","",""
13.0,0.05024062469601631,0.001972557257039875,"train",14880.0,"2021-11-21 20:03:14.552428","","","","","","",""
13.0,0.04263089597225189,0.0019734390543224385,"train",14900.0,"2021-11-21 20:03:21.956130","","","","","","",""
13.0,0.04225054383277893,0.001974306650962622,"train",14920.0,"2021-11-21 20:03:28.692264","","","","","","",""
13.0,0.033267710357904434,0.0019751600337614608,"train",14940.0,"2021-11-21 20:03:36.014652","","","","","","",""
13.0,0.030223188921809196,0.0019759991897362284,"train",14960.0,"2021-11-21 20:03:42.782634","","","","","","",""
13.0,0.03749537467956543,0.0019768241061206343,"train",14980.0,"2021-11-21 20:03:49.546875","","","","","","",""
13.0,0.060059934854507446,0.0019776347703650186,"train",15000.0,"2021-11-21 20:03:56.946270","","","","","","",""
13.0,0.045100487768650055,0.001978431170136543,"train",15020.0,"2021-11-21 20:04:03.647857","","","","","","",""
13.0,"","","train",15036.0,"2021-11-21 20:06:21.444446",0.6348686604089354,0.654798834362498,0.9612143044818962,0.65696291370879,0.5398677984634614,0.559957201820903,0.3781734787342686
13.0,"","","val",15036.0,"2021-11-21 20:06:56.033012",0.617708454134292,0.6112042010404256,0.9528950185186134,0.6307500177318396,0.5094757780814535,0.5287685099545988,0.3455813464612242
14.0,0.054111041128635406,0.0019792132933193784,"train",15040.0,"2021-11-21 20:07:00.759961","","","","","","",""
14.0,0.038046013563871384,0.001979981128014888,"train",15060.0,"2021-11-21 20:07:07.579274","","","","","","",""
14.0,0.07807733863592148,0.001980734662541811,"train",15080.0,"2021-11-21 20:07:14.353226","","","","","","",""
14.0,0.05062265694141388,0.0019814738854364374,"train",15100.0,"2021-11-21 20:07:21.807627","","","","","","",""
14.0,0.0693204253911972,0.0019821987854527832,"train",15120.0,"2021-11-21 20:07:28.539251","","","","","","",""
14.0,0.07098238170146942,0.0019829093515627634,"train",15140.0,"2021-11-21 20:07:35.851555","","","","","","",""
14.0,0.041417017579078674,0.001983605572956358,"train",15160.0,"2021-11-21 20:07:42.701547","","","","","","",""
14.0,0.049639537930488586,0.001984287439041775,"train",15180.0,"2021-11-21 20:07:50.071179","","","","","","",""
14.0,0.04392266273498535,0.001984954939445616,"train",15200.0,"2021-11-21 20:07:56.871390","","","","","","",""
14.0,0.06018254905939102,0.0019856080640130295,"train",15220.0,"2021-11-21 20:08:03.733727","","","","","","",""
14.0,0.056433405727148056,0.0019862468028078676,"train",15240.0,"2021-11-21 20:08:11.040836","","","","","","",""
14.0,0.03945312276482582,0.001986871146112837,"train",15260.0,"2021-11-21 20:08:17.786716","","","","","","",""
14.0,0.03727640211582184,0.0019874810844296466,"train",15280.0,"2021-11-21 20:08:25.134341","","","","","","",""
14.0,0.07705806940793991,0.0019880766084791517,"train",15300.0,"2021-11-21 20:08:31.889517","","","","","","",""
14.0,0.047627903521060944,0.0019886577092014953,"train",15320.0,"2021-11-21 20:08:38.747489","","","","","","",""
14.0,0.059850823134183884,0.001989224377756247,"train",15340.0,"2021-11-21 20:08:46.165462","","","","","","",""
14.0,0.03539126738905907,0.0019897766055225353,"train",15360.0,"2021-11-21 20:08:53.001834","","","","","","",""
14.0,0.049259115010499954,0.0019903143840991813,"train",15380.0,"2021-11-21 20:09:00.434603","","","","","","",""
14.0,0.07348088175058365,0.0019908377053048246,"train",15400.0,"2021-11-21 20:09:07.235323","","","","","","",""
14.0,0.0511055625975132,0.001991346561178048,"train",15420.0,"2021-11-21 20:09:14.590671","","","","","","",""
14.0,0.07447735220193863,0.0019918409439775003,"train",15440.0,"2021-11-21 20:09:21.389180","","","","","","",""
14.0,0.06218517944216728,0.0019923208461820117,"train",15460.0,"2021-11-21 20:09:28.184730","","","","","","",""
14.0,0.04119660332798958,0.001992786260490709,"train",15480.0,"2021-11-21 20:09:35.619406","","","","","","",""
14.0,0.0741700604557991,0.0019932371798231287,"train",15500.0,"2021-11-21 20:09:42.367674","","","","","","",""
14.0,0.04538853466510773,0.0019936735973193212,"train",15520.0,"2021-11-21 20:09:49.734950","","","","","","",""
14.0,0.0468645840883255,0.001994095506339958,"train",15540.0,"2021-11-21 20:09:56.571456","","","","","","",""
14.0,0.06501729786396027,0.001994502900466431,"train",15560.0,"2021-11-21 20:10:03.477022","","","","","","",""
14.0,0.0722261592745781,0.0019948957735009517,"train",15580.0,"2021-11-21 20:10:10.892249","","","","","","",""
14.0,0.0405791699886322,0.0019952741194666436,"train",15600.0,"2021-11-21 20:10:17.750360","","","","","","",""
14.0,0.03299631550908089,0.0019956379326076354,"train",15620.0,"2021-11-21 20:10:25.227982","","","","","","",""
14.0,0.055632803589105606,0.001995987207389146,"train",15640.0,"2021-11-21 20:10:32.052132","","","","","","",""
14.0,0.05552878975868225,0.0019963219384975706,"train",15660.0,"2021-11-21 20:10:39.418830","","","","","","",""
14.0,0.05241021886467934,0.001996642120840561,"train",15680.0,"2021-11-21 20:10:46.243827","","","","","","",""
14.0,0.050383061170578,0.001996947749547103,"train",15700.0,"2021-11-21 20:10:53.104977","","","","","","",""
14.0,0.03491249680519104,0.0019972388199675905,"train",15720.0,"2021-11-21 20:11:00.471895","","","","","","",""
14.0,0.04443509131669998,0.001997515327673896,"train",15740.0,"2021-11-21 20:11:07.183324","","","","","","",""
14.0,0.039212822914123535,0.0019977772684594388,"train",15760.0,"2021-11-21 20:11:14.507693","","","","","","",""
14.0,0.040256302803754807,0.0019980246383392475,"train",15780.0,"2021-11-21 20:11:21.325766","","","","","","",""
14.0,0.035992931574583054,0.0019982574335500225,"train",15800.0,"2021-11-21 20:11:28.109719","","","","","","",""
14.0,0.07629716396331787,0.001998475650550192,"train",15820.0,"2021-11-21 20:11:35.531747","","","","","","",""
14.0,0.03560943529009819,0.0019986792860199657,"train",15840.0,"2021-11-21 20:11:42.330243","","","","","","",""
14.0,0.05039794370532036,0.001998868336861386,"train",15860.0,"2021-11-21 20:11:49.729239","","","","","","",""
14.0,0.0553680844604969,0.001999042800198376,"train",15880.0,"2021-11-21 20:11:56.566567","","","","","","",""
14.0,0.037519436329603195,0.00199920267337678,"train",15900.0,"2021-11-21 20:12:03.960920","","","","","","",""
14.0,0.046536047011613846,0.0019993479539644077,"train",15920.0,"2021-11-21 20:12:10.778016","","","","","","",""
14.0,0.037233881652355194,0.0019994786397510697,"train",15940.0,"2021-11-21 20:12:17.632267","","","","","","",""
14.0,0.068275086581707,0.0019995947287486096,"train",15960.0,"2021-11-21 20:12:24.957593","","","","","","",""
14.0,0.03661356866359711,0.0019996962191909367,"train",15980.0,"2021-11-21 20:12:31.657951","","","","","","",""
14.0,0.04823707044124603,0.0019997831095340513,"train",16000.0,"2021-11-21 20:12:39.060811","","","","","","",""
14.0,0.04588474705815315,0.001999855398456069,"train",16020.0,"2021-11-21 20:12:45.827493","","","","","","",""
14.0,0.05575692281126976,0.00199991308485724,"train",16040.0,"2021-11-21 20:12:52.626193","","","","","","",""
14.0,0.0460234172642231,0.001999956167859967,"train",16060.0,"2021-11-21 20:12:59.935253","","","","","","",""
14.0,0.050479356199502945,0.0019999846468088172,"train",16080.0,"2021-11-21 20:13:06.680339","","","","","","",""
14.0,0.055359598249197006,0.0019999985212705335,"train",16100.0,"2021-11-21 20:13:14.098144","","","","","","",""
14.0,"","","train",16110.0,"2021-11-21 20:15:30.616399",0.646802008295132,0.6699943526847393,0.9641565862917408,0.6863151558068984,0.5652047801527742,0.5897761320376287,0.39989503491888984
14.0,"","","val",16110.0,"2021-11-21 20:16:05.412284",0.6273338745216283,0.6346741307336027,0.9569297116784998,0.6587607690119783,0.5385925670174848,0.5623506478064302,0.3692588427047638
15.0,0.06928589940071106,0.0019999995774202316,"train",16120.0,"2021-11-21 20:16:12.118354","","","","","","",""
15.0,0.06789297610521317,0.0019999966438102564,"train",16140.0,"2021-11-21 20:16:19.469308","","","","","","",""
15.0,0.033845968544483185,0.0019999909162942875,"train",16160.0,"2021-11-21 20:16:26.181316","","","","","","",""
15.0,0.041949428617954254,0.001999982394888327,"train",16180.0,"2021-11-21 20:16:32.880984","","","","","","",""
15.0,0.04673146456480026,0.0019999710796161823,"train",16200.0,"2021-11-21 20:16:40.202607","","","","","","",""
15.0,0.04538421332836151,0.0019999569705094686,"train",16220.0,"2021-11-21 20:16:46.973367","","","","","","",""
15.0,0.057014238089323044,0.001999940067607605,"train",16240.0,"2021-11-21 20:16:54.297232","","","","","","",""
15.0,0.05494575947523117,0.001999920370957817,"train",16260.0,"2021-11-21 20:17:01.059631","","","","","","",""
15.0,0.03648816794157028,0.0019998978806151355,"train",16280.0,"2021-11-21 20:17:07.806342","","","","","","",""
15.0,0.0525343157351017,0.0019998725966423976,"train",16300.0,"2021-11-21 20:17:15.024748","","","","","","",""
15.0,0.05176658183336258,0.001999844519110244,"train",16320.0,"2021-11-21 20:17:21.694270","","","","","","",""
15.0,0.056866973638534546,0.001999813648097122,"train",16340.0,"2021-11-21 20:17:29.003501","","","","","","",""
15.0,0.04096671938896179,0.001999779983689282,"train",16360.0,"2021-11-21 20:17:35.762882","","","","","","",""
15.0,0.051400043070316315,0.0019997435259807806,"train",16380.0,"2021-11-21 20:17:43.234617","","","","","","",""
15.0,0.03494074568152428,0.001999704275073478,"train",16400.0,"2021-11-21 20:17:50.044048","","","","","","",""
15.0,0.06853090971708298,0.0019996622310770383,"train",16420.0,"2021-11-21 20:17:56.772699","","","","","","",""
15.0,0.06346587091684341,0.0019996173941089286,"train",16440.0,"2021-11-21 20:18:04.020945","","","","","","",""
15.0,0.03288598731160164,0.0019995697642944212,"train",16460.0,"2021-11-21 20:18:10.743982","","","","","","",""
15.0,0.02840658649802208,0.0019995193417665894,"train",16480.0,"2021-11-21 20:18:18.083068","","","","","","",""
15.0,0.06785111129283905,0.0019994661266663108,"train",16500.0,"2021-11-21 20:18:24.887087","","","","","","",""
15.0,0.0641726702451706,0.001999410119142264,"train",16520.0,"2021-11-21 20:18:31.740835","","","","","","",""
15.0,0.03319290280342102,0.0019993513193509297,"train",16540.0,"2021-11-21 20:18:39.157565","","","","","","",""
15.0,0.07865864783525467,0.0019992897274565906,"train",16560.0,"2021-11-21 20:18:45.977220","","","","","","",""
15.0,0.05836312472820282,0.0019992253436313303,"train",16580.0,"2021-11-21 20:18:53.309911","","","","","","",""
15.0,0.0355590395629406,0.0019991581680550313,"train",16600.0,"2021-11-21 20:19:00.050739","","","","","","",""
15.0,0.05611467733979225,0.0019990882009153785,"train",16620.0,"2021-11-21 20:19:07.361046","","","","","","",""
15.0,0.05422152578830719,0.001999015442407854,"train",16640.0,"2021-11-21 20:19:14.118414","","","","","","",""
15.0,0.0470738410949707,0.0019989398927357403,"train",16660.0,"2021-11-21 20:19:20.862885","","","","","","",""
15.0,0.0659266859292984,0.0019988615521101174,"train",16680.0,"2021-11-21 20:19:28.204780","","","","","","",""
15.0,0.04667685180902481,0.0019987804207498637,"train",16700.0,"2021-11-21 20:19:34.943309","","","","","","",""
15.0,0.06960979104042053,0.0019986964988816533,"train",16720.0,"2021-11-21 20:19:42.364667","","","","","","",""
15.0,0.05549195036292076,0.0019986097867399585,"train",16740.0,"2021-11-21 20:19:49.232038","","","","","","",""
15.0,0.04532703757286072,0.0019985202845670463,"train",16760.0,"2021-11-21 20:19:56.102776","","","","","","",""
15.0,0.04247177764773369,0.0019984279926129798,"train",16780.0,"2021-11-21 20:20:03.434749","","","","","","",""
15.0,0.04304210841655731,0.001998332911135615,"train",16800.0,"2021-11-21 20:20:10.096869","","","","","","",""
15.0,0.030610499903559685,0.0019982350404006036,"train",16820.0,"2021-11-21 20:20:17.466922","","","","","","",""
15.0,0.03601430729031563,0.0019981343806813883,"train",16840.0,"2021-11-21 20:20:24.231516","","","","","","",""
15.0,0.04781760647892952,0.001998030932259205,"train",16860.0,"2021-11-21 20:20:31.674896","","","","","","",""
15.0,0.035298459231853485,0.0019979246954230823,"train",16880.0,"2021-11-21 20:20:38.470316","","","","","","",""
15.0,0.037773247808218,0.0019978156704698363,"train",16900.0,"2021-11-21 20:20:45.281746","","","","","","",""
15.0,0.04700928181409836,0.001997703857704076,"train",16920.0,"2021-11-21 20:20:52.647900","","","","","","",""
15.0,0.050208691507577896,0.0019975892574381976,"train",16940.0,"2021-11-21 20:20:59.448764","","","","","","",""
15.0,0.0602639764547348,0.001997471869992386,"train",16960.0,"2021-11-21 20:21:06.721894","","","","","","",""
15.0,0.04281061887741089,0.0019973516956946127,"train",16980.0,"2021-11-21 20:21:13.497726","","","","","","",""
15.0,0.06887097656726837,0.0019972287348806366,"train",17000.0,"2021-11-21 20:21:20.228245","","","","","","",""
15.0,0.07381186634302139,0.0019971029878940003,"train",17020.0,"2021-11-21 20:21:27.556558","","","","","","",""
15.0,0.07113625854253769,0.0019969744550860317,"train",17040.0,"2021-11-21 20:21:34.218296","","","","","","",""
15.0,0.0539604127407074,0.0019968431368158433,"train",17060.0,"2021-11-21 20:21:41.615254","","","","","","",""
15.0,0.04543589800596237,0.001996709033450327,"train",17080.0,"2021-11-21 20:21:48.339851","","","","","","",""
15.0,0.0722775012254715,0.0019965721453641585,"train",17100.0,"2021-11-21 20:21:55.634840","","","","","","",""
15.0,0.06412795931100845,0.0019964324729397935,"train",17120.0,"2021-11-21 20:22:02.376661","","","","","","",""
15.0,0.043825387954711914,0.0019962900165674657,"train",17140.0,"2021-11-21 20:22:09.068359","","","","","","",""
15.0,0.029433246701955795,0.0019961447766451887,"train",17160.0,"2021-11-21 20:22:16.320027","","","","","","",""
15.0,0.03578537702560425,0.001995996753578751,"train",17180.0,"2021-11-21 20:22:23.074542","","","","","","",""
15.0,"","","train",17184.0,"2021-11-21 20:24:36.988733",0.6185403478134323,0.6623345264002111,0.9628157326579315,0.644393180934971,0.5342698107205319,0.569844131372792,0.36885380684044555
15.0,"","","val",17184.0,"2021-11-21 20:25:13.143741",0.5945726545285863,0.615636831400149,0.9530583283313968,0.6148751570603483,0.5026814222370212,0.5390610298293729,0.33706180946069664
16.0,0.07005998492240906,0.001995845947781719,"train",17200.0,"2021-11-21 20:25:22.704238","","","","","","",""
16.0,0.0646209567785263,0.001995692359675433,"train",17220.0,"2021-11-21 20:25:29.440465","","","","","","",""
16.0,0.04716220870614052,0.0019955359896890066,"train",17240.0,"2021-11-21 20:25:36.273543","","","","","","",""
16.0,0.06370821595191956,0.0019953768382593258,"train",17260.0,"2021-11-21 20:25:43.649056","","","","","","",""
16.0,0.05106932669878006,0.0019952149058310486,"train",17280.0,"2021-11-21 20:25:50.396141","","","","","","",""
16.0,0.04424991086125374,0.001995050192856602,"train",17300.0,"2021-11-21 20:25:57.806113","","","","","","",""
16.0,0.04117896035313606,0.001994882699796182,"train",17320.0,"2021-11-21 20:26:04.669460","","","","","","",""
16.0,0.03292126581072807,0.001994712427117752,"train",17340.0,"2021-11-21 20:26:12.065480","","","","","","",""
16.0,0.03679564595222473,0.0019945393752970413,"train",17360.0,"2021-11-21 20:26:18.916450","","","","","","",""
16.0,0.03861599043011665,0.001994363544817544,"train",17380.0,"2021-11-21 20:26:25.648117","","","","","","",""
16.0,0.05812731385231018,0.001994184936170517,"train",17400.0,"2021-11-21 20:26:33.060258","","","","","","",""
16.0,0.040464647114276886,0.0019940035498549804,"train",17420.0,"2021-11-21 20:26:39.899260","","","","","","",""
16.0,0.05827061086893082,0.0019938193863777145,"train",17440.0,"2021-11-21 20:26:47.364521","","","","","","",""
16.0,0.05816558748483658,0.001993632446253258,"train",17460.0,"2021-11-21 20:26:54.151961","","","","","","",""
16.0,0.03478609770536423,0.0019934427300039074,"train",17480.0,"2021-11-21 20:27:00.963931","","","","","","",""
16.0,0.039460375905036926,0.001993250238159717,"train",17500.0,"2021-11-21 20:27:08.309424","","","","","","",""
16.0,0.061004310846328735,0.0019930549712584944,"train",17520.0,"2021-11-21 20:27:15.128222","","","","","","",""
16.0,0.06140931695699692,0.001992856929845801,"train",17540.0,"2021-11-21 20:27:22.669322","","","","","","",""
16.0,0.041487134993076324,0.0019926561144749497,"train",17560.0,"2021-11-21 20:27:29.614582","","","","","","",""
16.0,0.03589500114321709,0.001992452525707004,"train",17580.0,"2021-11-21 20:27:37.052043","","","","","","",""
16.0,0.06253506243228912,0.0019922461641107767,"train",17600.0,"2021-11-21 20:27:43.739348","","","","","","",""
16.0,0.036068033427000046,0.001992037030262826,"train",17620.0,"2021-11-21 20:27:50.444336","","","","","","",""
16.0,0.0333237498998642,0.0019918251247474567,"train",17640.0,"2021-11-21 20:27:57.721193","","","","","","",""
16.0,0.04789041727781296,0.001991610448156718,"train",17660.0,"2021-11-21 20:28:04.399303","","","","","","",""
16.0,0.04133838042616844,0.0019913930010903996,"train",17680.0,"2021-11-21 20:28:11.663512","","","","","","",""
16.0,0.04700952395796776,0.001991172784156033,"train",17700.0,"2021-11-21 20:28:18.425715","","","","","","",""
16.0,0.043475568294525146,0.0019909497979688877,"train",17720.0,"2021-11-21 20:28:25.219354","","","","","","",""
16.0,0.05011430382728577,0.0019907240431519713,"train",17740.0,"2021-11-21 20:28:32.583249","","","","","","",""
16.0,0.06409551948308945,0.001990495520336026,"train",17760.0,"2021-11-21 20:28:39.388536","","","","","","",""
16.0,0.08004722744226456,0.0019902642301595284,"train",17780.0,"2021-11-21 20:28:46.764894","","","","","","",""
16.0,0.03848619759082794,0.001990030173268685,"train",17800.0,"2021-11-21 20:28:53.507585","","","","","","",""
16.0,0.06072279438376427,0.0019897933503174345,"train",17820.0,"2021-11-21 20:29:00.846519","","","","","","",""
16.0,0.04163002222776413,0.0019895537619674425,"train",17840.0,"2021-11-21 20:29:07.687080","","","","","","",""
16.0,0.06038469821214676,0.001989311408888101,"train",17860.0,"2021-11-21 20:29:14.562797","","","","","","",""
16.0,0.04576574265956879,0.001989066291756527,"train",17880.0,"2021-11-21 20:29:21.963767","","","","","","",""
16.0,0.04877547174692154,0.00198881841125756,"train",17900.0,"2021-11-21 20:29:28.739836","","","","","","",""
16.0,0.08053145557641983,0.0019885677680837595,"train",17920.0,"2021-11-21 20:29:36.105629","","","","","","",""
16.0,0.05274094641208649,0.001988314362935404,"train",17940.0,"2021-11-21 20:29:42.789360","","","","","","",""
16.0,0.0397007018327713,0.0019880581965204896,"train",17960.0,"2021-11-21 20:29:49.608360","","","","","","",""
16.0,0.06011013686656952,0.0019877992695547255,"train",17980.0,"2021-11-21 20:29:57.003452","","","","","","",""
16.0,0.0366259403526783,0.0019875375827615354,"train",18000.0,"2021-11-21 20:30:03.760115","","","","","","",""
16.0,0.039313215762376785,0.0019872731368720527,"train",18020.0,"2021-11-21 20:30:11.021414","","","","","","",""
16.0,0.031423766165971756,0.00198700593262512,"train",18040.0,"2021-11-21 20:30:17.742017","","","","","","",""
16.0,0.06480300426483154,0.001986735970767286,"train",18060.0,"2021-11-21 20:30:25.060930","","","","","","",""
16.0,0.05885091423988342,0.001986463252052804,"train",18080.0,"2021-11-21 20:30:31.776239","","","","","","",""
16.0,0.07657330483198166,0.0019861877772436305,"train",18100.0,"2021-11-21 20:30:38.517058","","","","","","",""
16.0,0.04211464151740074,0.001985909547109422,"train",18120.0,"2021-11-21 20:30:45.823587","","","","","","",""
16.0,0.04932435229420662,0.001985628562427533,"train",18140.0,"2021-11-21 20:30:52.652877","","","","","","",""
16.0,0.036053162068128586,0.001985344823983014,"train",18160.0,"2021-11-21 20:30:59.942797","","","","","","",""
16.0,0.07887839525938034,0.001985058332568609,"train",18180.0,"2021-11-21 20:31:06.669497","","","","","","",""
16.0,0.037313707172870636,0.001984769088984755,"train",18200.0,"2021-11-21 20:31:13.459669","","","","","","",""
16.0,0.04818017780780792,0.001984477094039576,"train",18220.0,"2021-11-21 20:31:20.795185","","","","","","",""
16.0,0.04647166281938553,0.001984182348548885,"train",18240.0,"2021-11-21 20:31:27.543100","","","","","","",""
16.0,"","","train",18258.0,"2021-11-21 20:33:48.542083",0.6565233209633996,0.690270213830696,0.9696928340394487,0.6955943775123253,0.5828129895320053,0.6078247047668182,0.41350529459235263
16.0,"","","val",18258.0,"2021-11-21 20:34:24.503749",0.6298272063087093,0.6384766310937385,0.9599542952071557,0.6623941110252848,0.5460622170288633,0.5707102695285314,0.3720292628890575
17.0,0.03903714194893837,0.00198388485333618,"train",18260.0,"2021-11-21 20:34:28.552830","","","","","","",""
17.0,0.05556563287973404,0.0019835846092326396,"train",18280.0,"2021-11-21 20:34:35.414044","","","","","","",""
17.0,0.03419175371527672,0.0019832816170771246,"train",18300.0,"2021-11-21 20:34:42.802440","","","","","","",""
17.0,0.058216627687215805,0.001982975877716172,"train",18320.0,"2021-11-21 20:34:49.520862","","","","","","",""
17.0,0.05621815100312233,0.0019826673920039957,"train",18340.0,"2021-11-21 20:34:56.298044","","","","","","",""
17.0,0.06942011415958405,0.0019823561608024822,"train",18360.0,"2021-11-21 20:35:03.789953","","","","","","",""
17.0,0.06125666946172714,0.0019820421849811886,"train",18380.0,"2021-11-21 20:35:10.527919","","","","","","",""
17.0,0.06636098027229309,0.0019817254654173402,"train",18400.0,"2021-11-21 20:35:17.882619","","","","","","",""
17.0,0.04212825745344162,0.0019814060029958278,"train",18420.0,"2021-11-21 20:35:24.603622","","","","","","",""
17.0,0.0392422191798687,0.001981083798609206,"train",18440.0,"2021-11-21 20:35:31.381342","","","","","","",""
17.0,0.046714361757040024,0.0019807588531576908,"train",18460.0,"2021-11-21 20:35:38.693932","","","","","","",""
17.0,0.05252574756741524,0.0019804311675491555,"train",18480.0,"2021-11-21 20:35:45.413792","","","","","","",""
17.0,0.03808322921395302,0.00198010074269913,"train",18500.0,"2021-11-21 20:35:52.781433","","","","","","",""
17.0,0.06894014030694962,0.0019797675795307965,"train",18520.0,"2021-11-21 20:35:59.546446","","","","","","",""
17.0,0.03951699286699295,0.0019794316789749885,"train",18540.0,"2021-11-21 20:36:06.889161","","","","","","",""
17.0,0.037320103496313095,0.0019790930419701877,"train",18560.0,"2021-11-21 20:36:13.683418","","","","","","",""
17.0,0.03836511820554733,0.0019787516694625214,"train",18580.0,"2021-11-21 20:36:20.496765","","","","","","",""
17.0,0.045819755643606186,0.0019784075624057584,"train",18600.0,"2021-11-21 20:36:28.004968","","","","","","",""
17.0,0.05706937238574028,0.0019780607217613094,"train",18620.0,"2021-11-21 20:36:34.856543","","","","","","",""
17.0,0.028695348650217056,0.001977711148498221,"train",18640.0,"2021-11-21 20:36:42.193228","","","","","","",""
17.0,0.07114480435848236,0.0019773588435931756,"train",18660.0,"2021-11-21 20:36:48.998693","","","","","","",""
17.0,0.058983057737350464,0.0019770038080304873,"train",18680.0,"2021-11-21 20:36:55.776306","","","","","","",""
17.0,0.05694359168410301,0.001976646042802099,"train",18700.0,"2021-11-21 20:37:03.154174","","","","","","",""
17.0,0.03801766410470009,0.0019762855489075808,"train",18720.0,"2021-11-21 20:37:09.946750","","","","","","",""
17.0,0.06253043562173843,0.001975922327354126,"train",18740.0,"2021-11-21 20:37:17.276849","","","","","","",""
17.0,0.036368802189826965,0.001975556379156549,"train",18760.0,"2021-11-21 20:37:24.017733","","","","","","",""
17.0,0.052062567323446274,0.0019751877053372823,"train",18780.0,"2021-11-21 20:37:31.341465","","","","","","",""
17.0,0.07015407085418701,0.001974816306926373,"train",18800.0,"2021-11-21 20:37:38.050876","","","","","","",""
17.0,0.03764711692929268,0.001974442184961482,"train",18820.0,"2021-11-21 20:37:44.769444","","","","","","",""
17.0,0.0378507636487484,0.0019740653404878776,"train",18840.0,"2021-11-21 20:37:52.060350","","","","","","",""
17.0,0.029963497072458267,0.0019736857745584362,"train",18860.0,"2021-11-21 20:37:58.816127","","","","","","",""
17.0,0.033290278166532516,0.0019733034882336367,"train",18880.0,"2021-11-21 20:38:06.202149","","","","","","",""
17.0,0.03413044661283493,0.0019729184825815586,"train",18900.0,"2021-11-21 20:38:13.066932","","","","","","",""
17.0,0.0386832058429718,0.0019725307586778806,"train",18920.0,"2021-11-21 20:38:19.911867","","","","","","",""
17.0,0.03707611560821533,0.001972140317605874,"train",18940.0,"2021-11-21 20:38:27.240411","","","","","","",""
17.0,0.04031169414520264,0.0019717471604564028,"train",18960.0,"2021-11-21 20:38:34.015456","","","","","","",""
17.0,0.03962208703160286,0.0019713512883279185,"train",18980.0,"2021-11-21 20:38:41.405830","","","","","","",""
17.0,0.027781561017036438,0.00197095270232646,"train",19000.0,"2021-11-21 20:38:48.215567","","","","","","",""
17.0,0.03776303678750992,0.001970551403565646,"train",19020.0,"2021-11-21 20:38:55.565042","","","","","","",""
17.0,0.056567803025245667,0.0019701473931666765,"train",19040.0,"2021-11-21 20:39:02.295669","","","","","","",""
17.0,0.03629474714398384,0.001969740672258327,"train",19060.0,"2021-11-21 20:39:09.115681","","","","","","",""
17.0,0.04434320703148842,0.0019693312419769454,"train",19080.0,"2021-11-21 20:39:16.508207","","","","","","",""
17.0,0.06946003437042236,0.0019689191034664498,"train",19100.0,"2021-11-21 20:39:23.211440","","","","","","",""
17.0,0.05854542553424835,0.0019685042578783257,"train",19120.0,"2021-11-21 20:39:30.539727","","","","","","",""
17.0,0.04609241709113121,0.00196808670637162,"train",19140.0,"2021-11-21 20:39:37.382520","","","","","","",""
17.0,0.06671325117349625,0.001967666450112942,"train",19160.0,"2021-11-21 20:39:44.225330","","","","","","",""
17.0,0.032734088599681854,0.001967243490276456,"train",19180.0,"2021-11-21 20:39:51.501641","","","","","","",""
17.0,0.05880909040570259,0.0019668178280438818,"train",19200.0,"2021-11-21 20:39:58.251088","","","","","","",""
17.0,0.03640982136130333,0.0019663894646044875,"train",19220.0,"2021-11-21 20:40:05.546497","","","","","","",""
17.0,0.03718231990933418,0.001965958401155089,"train",19240.0,"2021-11-21 20:40:12.345007","","","","","","",""
17.0,0.03664661571383476,0.0019655246389000463,"train",19260.0,"2021-11-21 20:40:19.758999","","","","","","",""
17.0,0.03917501121759415,0.0019650881790512597,"train",19280.0,"2021-11-21 20:40:26.520172","","","","","","",""
17.0,0.046097803860902786,0.001964649022828165,"train",19300.0,"2021-11-21 20:40:33.284364","","","","","","",""
17.0,0.06082870811223984,0.0019642071714577325,"train",19320.0,"2021-11-21 20:40:40.595949","","","","","","",""
17.0,"","","train",19332.0,"2021-11-21 20:42:56.908257",0.6559412064323655,0.703461303404908,0.9716440339413767,0.7148833847102887,0.6089402547955652,0.6317728852285126,0.4311948974329455
17.0,"","","val",19332.0,"2021-11-21 20:43:31.333610",0.6208975994433492,0.6430343270958746,0.9612359868718522,0.6773836204027092,0.5666140414906159,0.5891676284425652,0.3822109026358663
18.0,0.04569817706942558,0.0019637626261744634,"train",19340.0,"2021-11-21 20:43:37.421928","","","","","","",""
18.0,0.037301454693078995,0.001963315388220384,"train",19360.0,"2021-11-21 20:43:45.083054","","","","","","",""
18.0,0.035727400332689285,0.0019628654588450443,"train",19380.0,"2021-11-21 20:43:51.906783","","","","","","",""
18.0,0.062308844178915024,0.001962412839305514,"train",19400.0,"2021-11-21 20:43:58.765024","","","","","","",""
18.0,0.0457165353000164,0.0019619575308663785,"train",19420.0,"2021-11-21 20:44:06.121379","","","","","","",""
18.0,0.06610430032014847,0.001961499534799737,"train",19440.0,"2021-11-21 20:44:12.991458","","","","","","",""
18.0,0.039180316030979156,0.001961038852385196,"train",19460.0,"2021-11-21 20:44:20.397595","","","","","","",""
18.0,0.03927426412701607,0.0019605754849098683,"train",19480.0,"2021-11-21 20:44:27.214427","","","","","","",""
18.0,0.06138090789318085,0.0019601094336683693,"train",19500.0,"2021-11-21 20:44:34.580152","","","","","","",""
18.0,0.06717997789382935,0.0019596406999628116,"train",19520.0,"2021-11-21 20:44:41.412022","","","","","","",""
18.0,0.04968910664319992,0.0019591692851028022,"train",19540.0,"2021-11-21 20:44:48.266406","","","","","","",""
18.0,0.032905567437410355,0.001958695190405441,"train",19560.0,"2021-11-21 20:44:55.686325","","","","","","",""
18.0,0.032500166445970535,0.001958218417195312,"train",19580.0,"2021-11-21 20:45:02.459298","","","","","","",""
18.0,0.04676402732729912,0.001957738966804486,"train",19600.0,"2021-11-21 20:45:09.839178","","","","","","",""
18.0,0.05463925749063492,0.001957256840572511,"train",19620.0,"2021-11-21 20:45:16.618832","","","","","","",""
18.0,0.06422684341669083,0.0019567720398464133,"train",19640.0,"2021-11-21 20:45:23.435101","","","","","","",""
18.0,0.0304368007928133,0.00195628456598069,"train",19660.0,"2021-11-21 20:45:30.838412","","","","","","",""
18.0,0.0343385748565197,0.001955794420337307,"train",19680.0,"2021-11-21 20:45:37.633479","","","","","","",""
18.0,0.06471912562847137,0.0019553016042856957,"train",19700.0,"2021-11-21 20:45:45.003373","","","","","","",""
18.0,0.060528308153152466,0.001954806119202748,"train",19720.0,"2021-11-21 20:45:51.781447","","","","","","",""
18.0,0.051640585064888,0.001954307966472812,"train",19740.0,"2021-11-21 20:45:59.234726","","","","","","",""
18.0,0.038669075816869736,0.0019538071474876914,"train",19760.0,"2021-11-21 20:46:06.036960","","","","","","",""
18.0,0.06013567000627518,0.001953303663646636,"train",19780.0,"2021-11-21 20:46:12.909396","","","","","","",""
18.0,0.06801845878362656,0.0019527975163563436,"train",19800.0,"2021-11-21 20:46:20.334028","","","","","","",""
18.0,0.053565431386232376,0.0019522887070309524,"train",19820.0,"2021-11-21 20:46:27.177179","","","","","","",""
18.0,0.046678755432367325,0.0019517772370920379,"train",19840.0,"2021-11-21 20:46:34.557951","","","","","","",""
18.0,0.057497043162584305,0.0019512631079686104,"train",19860.0,"2021-11-21 20:46:41.282764","","","","","","",""
18.0,0.037913188338279724,0.001950746321097108,"train",19880.0,"2021-11-21 20:46:48.127028","","","","","","",""
18.0,0.04599640145897865,0.0019502268779213957,"train",19900.0,"2021-11-21 20:46:55.678668","","","","","","",""
18.0,0.041433367878198624,0.0019497047798927598,"train",19920.0,"2021-11-21 20:47:02.498486","","","","","","",""
18.0,0.05454614758491516,0.001949180028469903,"train",19940.0,"2021-11-21 20:47:09.973381","","","","","","",""
18.0,0.05776843801140785,0.0019486526251189435,"train",19960.0,"2021-11-21 20:47:16.770488","","","","","","",""
18.0,0.06001761555671692,0.0019481225713134064,"train",19980.0,"2021-11-21 20:47:24.101365","","","","","","",""
18.0,0.07720240205526352,0.0019475898685342235,"train",20000.0,"2021-11-21 20:47:30.841022","","","","","","",""
18.0,0.04014221951365471,0.0019470545182697272,"train",20020.0,"2021-11-21 20:47:37.641676","","","","","","",""
18.0,0.0517127700150013,0.001946516522015647,"train",20040.0,"2021-11-21 20:47:44.948367","","","","","","",""
18.0,0.043903838843107224,0.0019459758812751047,"train",20060.0,"2021-11-21 20:47:51.702817","","","","","","",""
18.0,0.05820777639746666,0.0019454325975586106,"train",20080.0,"2021-11-21 20:47:59.163770","","","","","","",""
18.0,0.04494715854525566,0.0019448866723840602,"train",20100.0,"2021-11-21 20:48:05.925016","","","","","","",""
18.0,0.06978387385606766,0.001944338107276728,"train",20120.0,"2021-11-21 20:48:12.654597","","","","","","",""
18.0,0.05335415527224541,0.0019437869037692644,"train",20140.0,"2021-11-21 20:48:20.020778","","","","","","",""
18.0,0.034378621727228165,0.0019432330634016912,"train",20160.0,"2021-11-21 20:48:26.783162","","","","","","",""
18.0,0.054034069180488586,0.0019426765877213986,"train",20180.0,"2021-11-21 20:48:34.111982","","","","","","",""
18.0,0.0338912233710289,0.0019421174782831383,"train",20200.0,"2021-11-21 20:48:40.916975","","","","","","",""
18.0,0.05286596715450287,0.0019415557366490208,"train",20220.0,"2021-11-21 20:48:48.340736","","","","","","",""
