"epoch","loss","lr","part","step","time","accuracy","auprc","auroc","challenge_metric","f_beta_measure","f_measure","g_beta_measure"
0.0,0.3634995222091675,8.000730236035311e-05,"train",20.0,"2021-11-22 01:37:22.453226","","","","","","",""
0.0,0.15737581253051758,8.002920933031948e-05,"train",40.0,"2021-11-22 01:37:27.536499","","","","","","",""
0.0,0.14360471069812775,8.006572057662293e-05,"train",60.0,"2021-11-22 01:37:32.656933","","","","","","",""
0.0,0.13857249915599823,8.011683554380914e-05,"train",80.0,"2021-11-22 01:37:37.767396","","","","","","",""
0.0,0.12755173444747925,8.018255345425274e-05,"train",100.0,"2021-11-22 01:37:43.467223","","","","","","",""
0.0,0.10691077262163162,8.026287330817079e-05,"train",120.0,"2021-11-22 01:37:48.477834","","","","","","",""
0.0,0.13702157139778137,8.03577938836373e-05,"train",140.0,"2021-11-22 01:37:53.438355","","","","","","",""
0.0,0.13285858929157257,8.04673137366021e-05,"train",160.0,"2021-11-22 01:37:58.585013","","","","","","",""
0.0,0.13275614380836487,8.059143120091187e-05,"train",180.0,"2021-11-22 01:38:03.615217","","","","","","",""
0.0,0.1311166137456894,8.073014438833613e-05,"train",200.0,"2021-11-22 01:38:09.401298","","","","","","",""
0.0,0.1291840374469757,8.088345118859724e-05,"train",220.0,"2021-11-22 01:38:14.371591","","","","","","",""
0.0,0.10903596132993698,8.10513492693996e-05,"train",240.0,"2021-11-22 01:38:19.334200","","","","","","",""
0.0,0.12446167320013046,8.123383607646804e-05,"train",260.0,"2021-11-22 01:38:24.217262","","","","","","",""
0.0,0.11500678211450577,8.143090883358495e-05,"train",280.0,"2021-11-22 01:38:29.169560","","","","","","",""
0.0,0.10962299257516861,8.164256454263295e-05,"train",300.0,"2021-11-22 01:38:34.726196","","","","","","",""
0.0,0.11083672940731049,8.186879998364088e-05,"train",320.0,"2021-11-22 01:38:39.641824","","","","","","",""
0.0,0.09968056529760361,8.210961171483213e-05,"train",340.0,"2021-11-22 01:38:44.539900","","","","","","",""
0.0,0.09145782887935638,8.236499607267717e-05,"train",360.0,"2021-11-22 01:38:49.490899","","","","","","",""
0.0,0.10058340430259705,8.26349491719505e-05,"train",380.0,"2021-11-22 01:38:54.389624","","","","","","",""
0.0,0.09515181183815002,8.291946690578713e-05,"train",400.0,"2021-11-22 01:39:00.046102","","","","","","",""
0.0,0.11156607419252396,8.321854494574774e-05,"train",420.0,"2021-11-22 01:39:05.002239","","","","","","",""
0.0,0.09239748865365982,8.353217874188293e-05,"train",440.0,"2021-11-22 01:39:09.950236","","","","","","",""
0.0,0.12034887820482254,8.38603635228035e-05,"train",460.0,"2021-11-22 01:39:14.915969","","","","","","",""
0.0,0.08250941336154938,8.420309429575212e-05,"train",480.0,"2021-11-22 01:39:19.915527","","","","","","",""
0.0,0.08596232533454895,8.456036584667914e-05,"train",500.0,"2021-11-22 01:39:25.627978","","","","","","",""
0.0,0.09300978481769562,8.493217274032315e-05,"train",520.0,"2021-11-22 01:39:30.719029","","","","","","",""
0.0,0.10903137177228928,8.531850932029235e-05,"train",540.0,"2021-11-22 01:39:35.960950","","","","","","",""
0.0,0.11779646575450897,8.571936970915212e-05,"train",560.0,"2021-11-22 01:39:41.132950","","","","","","",""
0.0,0.08983459323644638,8.613474780851246e-05,"train",580.0,"2021-11-22 01:39:46.218687","","","","","","",""
0.0,0.09998086839914322,8.656463729912224e-05,"train",600.0,"2021-11-22 01:39:51.815446","","","","","","",""
0.0,0.10112298280000687,8.700903164096468e-05,"train",620.0,"2021-11-22 01:39:56.913675","","","","","","",""
0.0,0.0666150227189064,8.746792407335769e-05,"train",640.0,"2021-11-22 01:40:01.938657","","","","","","",""
0.0,0.09578803926706314,8.794130761505497e-05,"train",660.0,"2021-11-22 01:40:06.971661","","","","","","",""
0.0,0.07960493117570877,8.842917506435462e-05,"train",680.0,"2021-11-22 01:40:11.905890","","","","","","",""
0.0,0.08328918367624283,8.893151899920645e-05,"train",700.0,"2021-11-22 01:40:17.491985","","","","","","",""
0.0,0.10882885754108429,8.944833177732632e-05,"train",720.0,"2021-11-22 01:40:22.543711","","","","","","",""
0.0,0.08643312752246857,8.997960553631186e-05,"train",740.0,"2021-11-22 01:40:27.680078","","","","","","",""
0.0,0.09744996577501297,9.052533219376224e-05,"train",760.0,"2021-11-22 01:40:32.885955","","","","","","",""
0.0,0.0761432871222496,9.108550344740104e-05,"train",780.0,"2021-11-22 01:40:38.455641","","","","","","",""
0.0,0.08583555370569229,9.166011077520208e-05,"train",800.0,"2021-11-22 01:40:43.491929","","","","","","",""
0.0,0.10634642839431763,9.224914543552059e-05,"train",820.0,"2021-11-22 01:40:48.523266","","","","","","",""
0.0,0.06267619132995605,9.285259846722417e-05,"train",840.0,"2021-11-22 01:40:53.606319","","","","","","",""
0.0,0.07825032621622086,9.34704606898307e-05,"train",860.0,"2021-11-22 01:40:58.594396","","","","","","",""
0.0,0.09578263759613037,9.410272270364735e-05,"train",880.0,"2021-11-22 01:41:04.182061","","","","","","",""
0.0,0.08167420327663422,9.474937488991348e-05,"train",900.0,"2021-11-22 01:41:09.113522","","","","","","",""
0.0,0.09373822808265686,9.541040741094719e-05,"train",920.0,"2021-11-22 01:41:14.158535","","","","","","",""
0.0,0.09921514242887497,9.608581021029522e-05,"train",940.0,"2021-11-22 01:41:19.139892","","","","","","",""
0.0,0.07242368906736374,9.677557301288509e-05,"train",960.0,"2021-11-22 01:41:24.244605","","","","","","",""
0.0,0.06651637703180313,9.747968532518238e-05,"train",980.0,"2021-11-22 01:41:29.924079","","","","","","",""
0.0,0.08202821016311646,9.819813643535029e-05,"train",1000.0,"2021-11-22 01:41:34.931405","","","","","","",""
0.0,0.06410260498523712,9.893091541341185e-05,"train",1020.0,"2021-11-22 01:41:39.880562","","","","","","",""
0.0,0.08644384890794754,9.967801111141644e-05,"train",1040.0,"2021-11-22 01:41:44.815988","","","","","","",""
0.0,0.08676633983850479,0.00010043941216361023,"train",1060.0,"2021-11-22 01:41:49.772982","","","","","","",""
0.0,"","","train",1074.0,"2021-11-22 01:43:52.284052",0.428916539329113,0.32626960021844026,0.8666016050244912,0.37901478891973683,0.21789717263231106,0.21507135863339083,0.1411382160562305
0.0,"","","val",1074.0,"2021-11-22 01:44:23.963539",0.42734547141366114,0.32478683530975716,0.8655450773296529,0.37545863577814703,0.21710647897893784,0.21459248702518116,0.1394709789834293
1.0,0.07977460324764252,0.00010121510698660771,"train",1080.0,"2021-11-22 01:44:28.624256","","","","","","",""
1.0,0.07915673404932022,0.00010200508377956928,"train",1100.0,"2021-11-22 01:44:33.575742","","","","","","",""
1.0,0.08298768848180771,0.00010280933052437993,"train",1120.0,"2021-11-22 01:44:38.478939","","","","","","",""
1.0,0.09208215773105621,0.00010362783498583223,"train",1140.0,"2021-11-22 01:44:43.435486","","","","","","",""
1.0,0.0849129855632782,0.0001044605847118124,"train",1160.0,"2021-11-22 01:44:48.389063","","","","","","",""
1.0,0.06889118999242783,0.0001053075670334907,"train",1180.0,"2021-11-22 01:44:53.927631","","","","","","",""
1.0,0.08958959579467773,0.00010616876906551181,"train",1200.0,"2021-11-22 01:44:58.792269","","","","","","",""
1.0,0.06864814460277557,0.0001070441777061941,"train",1220.0,"2021-11-22 01:45:03.664913","","","","","","",""
1.0,0.08812743425369263,0.00010793377963772563,"train",1240.0,"2021-11-22 01:45:08.529243","","","","","","",""
1.0,0.08438287675380707,0.0001088375613263698,"train",1260.0,"2021-11-22 01:45:13.411801","","","","","","",""
1.0,0.09693268686532974,0.00010975550902266908,"train",1280.0,"2021-11-22 01:45:18.897586","","","","","","",""
1.0,0.07590174674987793,0.00011068760876165474,"train",1300.0,"2021-11-22 01:45:23.765717","","","","","","",""
1.0,0.07336051762104034,0.0001116338463630598,"train",1320.0,"2021-11-22 01:45:28.665597","","","","","","",""
1.0,0.0986093059182167,0.00011259420743153455,"train",1340.0,"2021-11-22 01:45:33.523467","","","","","","",""
1.0,0.07123811542987823,0.00011356867735686535,"train",1360.0,"2021-11-22 01:45:38.528643","","","","","","",""
1.0,0.09541187435388565,0.00011455724131419621,"train",1380.0,"2021-11-22 01:45:43.948761","","","","","","",""
1.0,0.08551652729511261,0.00011555988426425654,"train",1400.0,"2021-11-22 01:45:48.815617","","","","","","",""
1.0,0.07984957844018936,0.00011657659095358746,"train",1420.0,"2021-11-22 01:45:53.756330","","","","","","",""
1.0,0.0709153562784195,0.00011760734591477516,"train",1440.0,"2021-11-22 01:45:58.761574","","","","","","",""
1.0,0.08290186524391174,0.00011865213346668618,"train",1460.0,"2021-11-22 01:46:03.839672","","","","","","",""
1.0,0.06987889111042023,0.00011971093771470502,"train",1480.0,"2021-11-22 01:46:09.410448","","","","","","",""
1.0,0.06833170354366302,0.0001207837425509777,"train",1500.0,"2021-11-22 01:46:14.378246","","","","","","",""
1.0,0.08357665687799454,0.00012187053165465503,"train",1520.0,"2021-11-22 01:46:19.506385","","","","","","",""
1.0,0.07062612473964691,0.000122971288492142,"train",1540.0,"2021-11-22 01:46:24.518447","","","","","","",""
1.0,0.08731148391962051,0.00012408599631734863,"train",1560.0,"2021-11-22 01:46:30.097086","","","","","","",""
1.0,0.05239221081137657,0.00012521463817194542,"train",1580.0,"2021-11-22 01:46:35.123406","","","","","","",""
1.0,0.07692012190818787,0.00012635719688562077,"train",1600.0,"2021-11-22 01:46:40.148126","","","","","","",""
1.0,0.06671746075153351,0.00012751365507634267,"train",1620.0,"2021-11-22 01:46:45.290882","","","","","","",""
1.0,0.07297884672880173,0.0001286839951506226,"train",1640.0,"2021-11-22 01:46:50.238770","","","","","","",""
1.0,0.06760726124048233,0.00012986819930378333,"train",1660.0,"2021-11-22 01:46:55.735432","","","","","","",""
1.0,0.06968823820352554,0.00013106624952023064,"train",1680.0,"2021-11-22 01:47:00.629820","","","","","","",""
1.0,0.07366497814655304,0.00013227812757372545,"train",1700.0,"2021-11-22 01:47:05.556152","","","","","","",""
1.0,0.06744474172592163,0.00013350381502766394,"train",1720.0,"2021-11-22 01:47:10.525560","","","","","","",""
1.0,0.09253370016813278,0.00013474329323535494,"train",1740.0,"2021-11-22 01:47:15.424916","","","","","","",""
1.0,0.062481533735990524,0.0001359965433403059,"train",1760.0,"2021-11-22 01:47:20.935048","","","","","","",""
1.0,0.06048085540533066,0.00013726354627650872,"train",1780.0,"2021-11-22 01:47:25.818994","","","","","","",""
1.0,0.07354220747947693,0.00013854428276873052,"train",1800.0,"2021-11-22 01:47:30.665360","","","","","","",""
1.0,0.08926025032997131,0.00013983873333280506,"train",1820.0,"2021-11-22 01:47:35.632921","","","","","","",""
1.0,0.062194716185331345,0.00014114687827593156,"train",1840.0,"2021-11-22 01:47:40.486681","","","","","","",""
1.0,0.10025034099817276,0.00014246869769697352,"train",1860.0,"2021-11-22 01:47:45.934859","","","","","","",""
1.0,0.0766313225030899,0.00014380417148676054,"train",1880.0,"2021-11-22 01:47:50.794904","","","","","","",""
1.0,0.0883524939417839,0.00014515327932839404,"train",1900.0,"2021-11-22 01:47:55.667296","","","","","","",""
1.0,0.06587370485067368,0.0001465160006975598,"train",1920.0,"2021-11-22 01:48:00.549267","","","","","","",""
1.0,0.06859111785888672,0.00014789231486283454,"train",1940.0,"2021-11-22 01:48:05.362804","","","","","","",""
1.0,0.0670524388551712,0.00014928220088600633,"train",1960.0,"2021-11-22 01:48:10.862853","","","","","","",""
1.0,0.06310469657182693,0.00015068563762239045,"train",1980.0,"2021-11-22 01:48:15.719928","","","","","","",""
1.0,0.0795372948050499,0.00015210260372115238,"train",2000.0,"2021-11-22 01:48:20.579161","","","","","","",""
1.0,0.07137350738048553,0.00015353307762563115,"train",2020.0,"2021-11-22 01:48:25.470003","","","","","","",""
1.0,0.07989894598722458,0.00015497703757366872,"train",2040.0,"2021-11-22 01:48:30.351679","","","","","","",""
1.0,0.07978150993585587,0.00015643446159794,"train",2060.0,"2021-11-22 01:48:35.830173","","","","","","",""
1.0,0.08966578543186188,0.0001579053275262887,"train",2080.0,"2021-11-22 01:48:40.664009","","","","","","",""
1.0,0.07921518385410309,0.00015938961298206183,"train",2100.0,"2021-11-22 01:48:45.529748","","","","","","",""
1.0,0.08937197178602219,0.00016088729538445297,"train",2120.0,"2021-11-22 01:48:50.340880","","","","","","",""
1.0,0.06636641174554825,0.000162398351948844,"train",2140.0,"2021-11-22 01:48:55.173646","","","","","","",""
1.0,"","","train",2148.0,"2021-11-22 01:50:58.401110",0.4997162191661209,0.43605419109924765,0.9058802453878216,0.477155288928125,0.3245081676563603,0.32848874200177985,0.21660153948296612
1.0,"","","val",2148.0,"2021-11-22 01:51:28.632480",0.49252000463875684,0.42848545692720447,0.9006906103665864,0.4671467376213379,0.3193694360083225,0.3221534974004144,0.210924040223097
2.0,0.06217557564377785,0.00016392275968715297,"train",2160.0,"2021-11-22 01:51:34.676939","","","","","","",""
2.0,0.054327335208654404,0.00016546049540818223,"train",2180.0,"2021-11-22 01:51:39.544053","","","","","","",""
2.0,0.0840393677353859,0.00016701153571797313,"train",2200.0,"2021-11-22 01:51:44.425014","","","","","","",""
2.0,0.07151886075735092,0.00016857585702016015,"train",2220.0,"2021-11-22 01:51:49.411503","","","","","","",""
2.0,0.07003919035196304,0.00017015343551633126,"train",2240.0,"2021-11-22 01:51:54.945417","","","","","","",""
2.0,0.0705135390162468,0.0001717442472063892,"train",2260.0,"2021-11-22 01:51:59.973824","","","","","","",""
2.0,0.07493866980075836,0.00017334826788891681,"train",2280.0,"2021-11-22 01:52:05.100433","","","","","","",""
2.0,0.05169299244880676,0.00017496547316154555,"train",2300.0,"2021-11-22 01:52:10.039543","","","","","","",""
2.0,0.0682809054851532,0.00017659583842132573,"train",2320.0,"2021-11-22 01:52:14.908083","","","","","","",""
2.0,0.07432159781455994,0.00017823933886510217,"train",2340.0,"2021-11-22 01:52:20.339423","","","","","","",""
2.0,0.06402269005775452,0.00017989594948989015,"train",2360.0,"2021-11-22 01:52:25.219649","","","","","","",""
2.0,0.06729092448949814,0.00018156564509325753,"train",2380.0,"2021-11-22 01:52:30.065535","","","","","","",""
2.0,0.0638045221567154,0.0001832484002737059,"train",2400.0,"2021-11-22 01:52:34.922870","","","","","","",""
2.0,0.0569104328751564,0.00018494418943105877,"train",2420.0,"2021-11-22 01:52:39.781472","","","","","","",""
2.0,0.08344806730747223,0.00018665298676685078,"train",2440.0,"2021-11-22 01:52:45.199615","","","","","","",""
2.0,0.07363271713256836,0.0001883747662847191,"train",2460.0,"2021-11-22 01:52:50.192583","","","","","","",""
2.0,0.05181371420621872,0.00019010950179080112,"train",2480.0,"2021-11-22 01:52:55.274351","","","","","","",""
2.0,0.10226260125637054,0.00019185716689412995,"train",2500.0,"2021-11-22 01:53:00.280259","","","","","","",""
2.0,0.07002206146717072,0.00019361773500703797,"train",2520.0,"2021-11-22 01:53:05.155035","","","","","","",""
2.0,0.06977643817663193,0.00019539117934556168,"train",2540.0,"2021-11-22 01:53:10.565848","","","","","","",""
2.0,0.08320879936218262,0.00019717747292984696,"train",2560.0,"2021-11-22 01:53:15.418212","","","","","","",""
2.0,0.07734048366546631,0.0001989765885845624,"train",2580.0,"2021-11-22 01:53:20.300212","","","","","","",""
2.0,0.05917450413107872,0.00020078849893931014,"train",2600.0,"2021-11-22 01:53:25.183541","","","","","","",""
2.0,0.07548230141401291,0.0002026131764290434,"train",2620.0,"2021-11-22 01:53:30.044793","","","","","","",""
2.0,0.06636586785316467,0.00020445059329448614,"train",2640.0,"2021-11-22 01:53:35.497608","","","","","","",""
2.0,0.055657073855400085,0.00020630072158255497,"train",2660.0,"2021-11-22 01:53:40.421602","","","","","","",""
2.0,0.07654952257871628,0.00020816353314678467,"train",2680.0,"2021-11-22 01:53:45.591742","","","","","","",""
2.0,0.057927798479795456,0.00021003899964775505,"train",2700.0,"2021-11-22 01:53:50.675683","","","","","","",""
2.0,0.07200797647237778,0.00021192709255352473,"train",2720.0,"2021-11-22 01:53:55.663453","","","","","","",""
2.0,0.05680852383375168,0.00021382778314006255,"train",2740.0,"2021-11-22 01:54:01.242108","","","","","","",""
2.0,0.05429409444332123,0.00021574104249168615,"train",2760.0,"2021-11-22 01:54:06.158057","","","","","","",""
2.0,0.08076594024896622,0.00021766684150150133,"train",2780.0,"2021-11-22 01:54:11.209567","","","","","","",""
2.0,0.09307729452848434,0.00021960515087184485,"train",2800.0,"2021-11-22 01:54:16.267671","","","","","","",""
2.0,0.055798906832933426,0.00022155594111472978,"train",2820.0,"2021-11-22 01:54:21.107671","","","","","","",""
2.0,0.06455947458744049,0.0002235191825522959,"train",2840.0,"2021-11-22 01:54:26.633920","","","","","","",""
2.0,0.05530757084488869,0.00022549484531725838,"train",2860.0,"2021-11-22 01:54:31.581754","","","","","","",""
2.0,0.0768699198961258,0.00022748289935336434,"train",2880.0,"2021-11-22 01:54:36.459651","","","","","","",""
2.0,0.07043248414993286,0.00022948331441584964,"train",2900.0,"2021-11-22 01:54:41.370332","","","","","","",""
2.0,0.06756280362606049,0.00023149606007189785,"train",2920.0,"2021-11-22 01:54:46.304076","","","","","","",""
2.0,0.06716065108776093,0.00023352110570110476,"train",2940.0,"2021-11-22 01:54:51.873015","","","","","","",""
2.0,0.0724155604839325,0.00023555842049594305,"train",2960.0,"2021-11-22 01:54:56.788448","","","","","","",""
2.0,0.061077579855918884,0.00023760797346223305,"train",2980.0,"2021-11-22 01:55:01.652999","","","","","","",""
2.0,0.05873802304267883,0.00023966973341961028,"train",3000.0,"2021-11-22 01:55:06.494785","","","","","","",""
2.0,0.07208353281021118,0.0002417436690020044,"train",3020.0,"2021-11-22 01:55:11.913541","","","","","","",""
2.0,0.07652580738067627,0.00024382974865811325,"train",3040.0,"2021-11-22 01:55:16.846746","","","","","","",""
2.0,0.07822702825069427,0.000245927940651884,"train",3060.0,"2021-11-22 01:55:21.748355","","","","","","",""
2.0,0.056987155228853226,0.0002480382130629953,"train",3080.0,"2021-11-22 01:55:26.668915","","","","","","",""
2.0,0.056297119706869125,0.0002501605337873443,"train",3100.0,"2021-11-22 01:55:31.567505","","","","","","",""
2.0,0.057014770805835724,0.0002522948705375337,"train",3120.0,"2021-11-22 01:55:36.970114","","","","","","",""
2.0,0.09034959226846695,0.00025444119084336303,"train",3140.0,"2021-11-22 01:55:41.821259","","","","","","",""
2.0,0.07651911675930023,0.00025659946205232364,"train",3160.0,"2021-11-22 01:55:46.694943","","","","","","",""
2.0,0.07428956031799316,0.0002587696513300941,"train",3180.0,"2021-11-22 01:55:51.510782","","","","","","",""
2.0,0.08397465944290161,0.0002609517256610412,"train",3200.0,"2021-11-22 01:55:56.309984","","","","","","",""
2.0,0.07480821758508682,0.00026314565184872084,"train",3220.0,"2021-11-22 01:56:01.681319","","","","","","",""
2.0,"","","train",3222.0,"2021-11-22 01:57:57.799257",0.5174125009095539,0.48986682302950124,0.9265860185768637,0.5312731190496615,0.379515995360712,0.3827942192661081,0.25386352216090924
2.0,"","","val",3222.0,"2021-11-22 01:58:28.297171",0.5128725501565581,0.47948115668123426,0.9208582149252909,0.522255483207688,0.3755277659456123,0.3751936626464682,0.24788177118093735
3.0,0.056783273816108704,0.0002653513965163838,"train",3240.0,"2021-11-22 01:58:35.787075","","","","","","",""
3.0,0.07261744886636734,0.0002675689261074836,"train",3260.0,"2021-11-22 01:58:40.736376","","","","","","",""
3.0,0.08366987854242325,0.00026979820688618605,"train",3280.0,"2021-11-22 01:58:45.733818","","","","","","",""
3.0,0.0692482739686966,0.00027203920493788433,"train",3300.0,"2021-11-22 01:58:50.730518","","","","","","",""
3.0,0.0655372142791748,0.00027429188616971277,"train",3320.0,"2021-11-22 01:58:56.299142","","","","","","",""
3.0,0.09531906992197037,0.0002765562163110668,"train",3340.0,"2021-11-22 01:59:01.138045","","","","","","",""
3.0,0.0569605752825737,0.00027883216091412503,"train",3360.0,"2021-11-22 01:59:05.950601","","","","","","",""
3.0,0.07975678890943527,0.0002811196853543707,"train",3380.0,"2021-11-22 01:59:10.902944","","","","","","",""
3.0,0.07421392947435379,0.00028341875483112134,"train",3400.0,"2021-11-22 01:59:15.837550","","","","","","",""
3.0,0.06988552212715149,0.00028572933436805644,"train",3420.0,"2021-11-22 01:59:21.415321","","","","","","",""
3.0,0.06841331720352173,0.0002880513888137504,"train",3440.0,"2021-11-22 01:59:26.314904","","","","","","",""
3.0,0.05798354744911194,0.0002903848828422063,"train",3460.0,"2021-11-22 01:59:31.410520","","","","","","",""
3.0,0.06102835014462471,0.00029272978095339465,"train",3480.0,"2021-11-22 01:59:36.435795","","","","","","",""
3.0,0.05201302468776703,0.00029508604747379243,"train",3500.0,"2021-11-22 01:59:41.451658","","","","","","",""
3.0,0.052886027842760086,0.00029745364655692653,"train",3520.0,"2021-11-22 01:59:46.878457","","","","","","",""
3.0,0.06401493400335312,0.0002998325421839181,"train",3540.0,"2021-11-22 01:59:51.812584","","","","","","",""
3.0,0.060818079859018326,0.0003022226981640318,"train",3560.0,"2021-11-22 01:59:56.763178","","","","","","",""
3.0,0.07542454451322556,0.00030462407813522494,"train",3580.0,"2021-11-22 02:00:01.698889","","","","","","",""
3.0,0.05518556013703346,0.0003070366455647027,"train",3600.0,"2021-11-22 02:00:06.551434","","","","","","",""
3.0,0.08267012238502502,0.000309460363749471,"train",3620.0,"2021-11-22 02:00:11.996488","","","","","","",""
3.0,0.07481291890144348,0.0003118951958168978,"train",3640.0,"2021-11-22 02:00:16.918737","","","","","","",""
3.0,0.06270579993724823,0.0003143411047252722,"train",3660.0,"2021-11-22 02:00:21.825831","","","","","","",""
3.0,0.09195458143949509,0.0003167980532643691,"train",3680.0,"2021-11-22 02:00:26.694958","","","","","","",""
3.0,0.060962289571762085,0.0003192660040560141,"train",3700.0,"2021-11-22 02:00:31.581978","","","","","","",""
3.0,0.05817988142371178,0.0003217449195546528,"train",3720.0,"2021-11-22 02:00:36.972882","","","","","","",""
3.0,0.08969248831272125,0.00032423476204792244,"train",3740.0,"2021-11-22 02:00:41.799987","","","","","","",""
3.0,0.05507693067193031,0.0003267354936572248,"train",3760.0,"2021-11-22 02:00:46.661223","","","","","","",""
3.0,0.09466562420129776,0.0003292470763383026,"train",3780.0,"2021-11-22 02:00:51.525347","","","","","","",""
3.0,0.08402767032384872,0.0003317694718818192,"train",3800.0,"2021-11-22 02:00:57.031423","","","","","","",""
3.0,0.07569137215614319,0.00033430264191393853,"train",3820.0,"2021-11-22 02:01:01.934102","","","","","","",""
3.0,0.05554228276014328,0.0003368465478969097,"train",3840.0,"2021-11-22 02:01:06.844308","","","","","","",""
3.0,0.08120181411504745,0.0003394011511296533,"train",3860.0,"2021-11-22 02:01:11.798318","","","","","","",""
3.0,0.056582242250442505,0.0003419664127483496,"train",3880.0,"2021-11-22 02:01:16.724485","","","","","","",""
3.0,0.07682788372039795,0.00034454229372703074,"train",3900.0,"2021-11-22 02:01:22.175322","","","","","","",""
3.0,0.05333685502409935,0.00034712875487817314,"train",3920.0,"2021-11-22 02:01:27.117579","","","","","","",""
3.0,0.0645512267947197,0.00034972575685329526,"train",3940.0,"2021-11-22 02:01:31.987574","","","","","","",""
3.0,0.06564265489578247,0.0003523332601435541,"train",3960.0,"2021-11-22 02:01:36.845609","","","","","","",""
3.0,0.08250966668128967,0.00035495122508034916,"train",3980.0,"2021-11-22 02:01:41.710729","","","","","","",""
3.0,0.06528623402118683,0.0003575796118359231,"train",4000.0,"2021-11-22 02:01:47.187822","","","","","","",""
3.0,0.061668068170547485,0.00036021838042396906,"train",4020.0,"2021-11-22 02:01:52.094640","","","","","","",""
3.0,0.04980003088712692,0.0003628674907002389,"train",4040.0,"2021-11-22 02:01:56.968225","","","","","","",""
3.0,0.04645324870944023,0.00036552690236315395,"train",4060.0,"2021-11-22 02:02:01.849035","","","","","","",""
3.0,0.05701954662799835,0.00036819657495441773,"train",4080.0,"2021-11-22 02:02:06.836005","","","","","","",""
3.0,0.08135098963975906,0.0003708764678596317,"train",4100.0,"2021-11-22 02:02:12.462560","","","","","","",""
3.0,0.09031505137681961,0.00037356654030891293,"train",4120.0,"2021-11-22 02:02:17.408450","","","","","","",""
3.0,0.04735707491636276,0.0003762667513775148,"train",4140.0,"2021-11-22 02:02:22.366949","","","","","","",""
3.0,0.06735062599182129,0.0003789770599864498,"train",4160.0,"2021-11-22 02:02:27.323943","","","","","","",""
3.0,0.05902467668056488,0.000381697424903113,"train",4180.0,"2021-11-22 02:02:32.258227","","","","","","",""
3.0,0.05746472254395485,0.0003844278047419108,"train",4200.0,"2021-11-22 02:02:37.739717","","","","","","",""
3.0,0.06415439397096634,0.0003871681579648903,"train",4220.0,"2021-11-22 02:02:42.652282","","","","","","",""
3.0,0.07640036195516586,0.0003899184428823709,"train",4240.0,"2021-11-22 02:02:47.662592","","","","","","",""
3.0,0.059167832136154175,0.0003926786176535783,"train",4260.0,"2021-11-22 02:02:52.533959","","","","","","",""
3.0,0.052926190197467804,0.0003954486402872818,"train",4280.0,"2021-11-22 02:02:57.448394","","","","","","",""
3.0,"","","train",4296.0,"2021-11-22 02:04:55.305099",0.547478716437459,0.5223048780611861,0.932132898374949,0.5395948972804573,0.38993312125253243,0.40246237910205906,0.26438739243629955
3.0,"","","val",4296.0,"2021-11-22 02:05:27.136553",0.542212686999884,0.5084776210779097,0.9272978660649825,0.5284945345241541,0.38415289143732684,0.3937087053797551,0.2587368822495701
4.0,0.06678251922130585,0.0003982284686424324,"train",4300.0,"2021-11-22 02:05:31.242601","","","","","","",""
4.0,0.06005251035094261,0.0004010180604288045,"train",4320.0,"2021-11-22 02:05:36.242290","","","","","","",""
4.0,0.06125625967979431,0.00040381737320763873,"train",4340.0,"2021-11-22 02:05:41.272464","","","","","","",""
4.0,0.07554489374160767,0.0004066263643922878,"train",4360.0,"2021-11-22 02:05:46.400251","","","","","","",""
4.0,0.052731841802597046,0.0004094449912488646,"train",4380.0,"2021-11-22 02:05:51.648538","","","","","","",""
4.0,0.0677918791770935,0.0004122732108968923,"train",4400.0,"2021-11-22 02:05:57.430600","","","","","","",""
4.0,0.06336712092161179,0.0004151109803099558,"train",4420.0,"2021-11-22 02:06:02.356803","","","","","","",""
4.0,0.07089366763830185,0.00041795825631635764,"train",4440.0,"2021-11-22 02:06:07.254886","","","","","","",""
4.0,0.05138276517391205,0.0004208149955997739,"train",4460.0,"2021-11-22 02:06:12.179094","","","","","","",""
4.0,0.07693326473236084,0.0004236811546999141,"train",4480.0,"2021-11-22 02:06:17.181138","","","","","","",""
4.0,0.058660052716732025,0.0004265566900131805,"train",4500.0,"2021-11-22 02:06:22.737610","","","","","","",""
4.0,0.08749254047870636,0.0004294415577933337,"train",4520.0,"2021-11-22 02:06:27.589576","","","","","","",""
4.0,0.0593830905854702,0.00043233571415215717,"train",4540.0,"2021-11-22 02:06:32.452462","","","","","","",""
4.0,0.060678042471408844,0.0004352391150601242,"train",4560.0,"2021-11-22 02:06:37.298234","","","","","","",""
4.0,0.05645244941115379,0.0004381517163470684,"train",4580.0,"2021-11-22 02:06:42.712613","","","","","","",""
4.0,0.0546841062605381,0.00044107347370285683,"train",4600.0,"2021-11-22 02:06:47.642275","","","","","","",""
4.0,0.05542663484811783,0.00044400434267806194,"train",4620.0,"2021-11-22 02:06:52.730594","","","","","","",""
4.0,0.044942110776901245,0.00044694427868463907,"train",4640.0,"2021-11-22 02:06:57.693491","","","","","","",""
4.0,0.067496158182621,0.00044989323699660467,"train",4660.0,"2021-11-22 02:07:02.568853","","","","","","",""
4.0,0.046115465462207794,0.0004528511727507165,"train",4680.0,"2021-11-22 02:07:08.161566","","","","","","",""
4.0,0.055907782167196274,0.00045581804094715645,"train",4700.0,"2021-11-22 02:07:12.955293","","","","","","",""
4.0,0.07513900846242905,0.00045879379645021425,"train",4720.0,"2021-11-22 02:07:17.747336","","","","","","",""
4.0,0.05464696139097214,0.0004617783939889759,"train",4740.0,"2021-11-22 02:07:22.741874","","","","","","",""
4.0,0.08514056354761124,0.0004647717881580103,"train",4760.0,"2021-11-22 02:07:27.755591","","","","","","",""
4.0,0.055059220641851425,0.0004677739334180617,"train",4780.0,"2021-11-22 02:07:33.321308","","","","","","",""
4.0,0.067386195063591,0.00047078478409674144,"train",4800.0,"2021-11-22 02:07:38.167425","","","","","","",""
4.0,0.0761658102273941,0.00047380429438922305,"train",4820.0,"2021-11-22 02:07:43.001907","","","","","","",""
4.0,0.04443424940109253,0.00047683241835893946,"train",4840.0,"2021-11-22 02:07:47.856243","","","","","","",""
4.0,0.07084021717309952,0.0004798691099382815,"train",4860.0,"2021-11-22 02:07:52.709116","","","","","","",""
4.0,0.08480527251958847,0.0004829143229292986,"train",4880.0,"2021-11-22 02:07:58.155496","","","","","","",""
4.0,0.08736602216959,0.0004859680110044023,"train",4900.0,"2021-11-22 02:08:03.163959","","","","","","",""
4.0,0.07770117372274399,0.0004890301277070699,"train",4920.0,"2021-11-22 02:08:08.028028","","","","","","",""
4.0,0.06989286839962006,0.0004921006264525525,"train",4940.0,"2021-11-22 02:08:12.926456","","","","","","",""
4.0,0.06733392924070358,0.0004951794605285824,"train",4960.0,"2021-11-22 02:08:17.813267","","","","","","",""
4.0,0.06708910316228867,0.0004982665830960853,"train",4980.0,"2021-11-22 02:08:23.281977","","","","","","",""
4.0,0.08352500945329666,0.0005013619471898913,"train",5000.0,"2021-11-22 02:08:28.261834","","","","","","",""
4.0,0.061035607010126114,0.0005044655057194504,"train",5020.0,"2021-11-22 02:08:33.197716","","","","","","",""
4.0,0.06792110204696655,0.0005075772114695486,"train",5040.0,"2021-11-22 02:08:38.235357","","","","","","",""
4.0,0.07152366638183594,0.0005106970171010257,"train",5060.0,"2021-11-22 02:08:43.297971","","","","","","",""
4.0,0.05260193720459938,0.0005138248751514966,"train",5080.0,"2021-11-22 02:08:48.904868","","","","","","",""
4.0,0.08343559503555298,0.0005169607380360731,"train",5100.0,"2021-11-22 02:08:53.866088","","","","","","",""
4.0,0.07592880725860596,0.000520104558048086,"train",5120.0,"2021-11-22 02:08:58.987599","","","","","","",""
4.0,0.044681936502456665,0.0005232562873598136,"train",5140.0,"2021-11-22 02:09:03.873900","","","","","","",""
4.0,0.051635559648275375,0.0005264158780232072,"train",5160.0,"2021-11-22 02:09:08.941099","","","","","","",""
4.0,0.06647904962301254,0.0005295832819706228,"train",5180.0,"2021-11-22 02:09:14.600847","","","","","","",""
4.0,0.09676594287157059,0.0005327584510155488,"train",5200.0,"2021-11-22 02:09:19.606589","","","","","","",""
4.0,0.05352324619889259,0.000535941336853343,"train",5220.0,"2021-11-22 02:09:24.649409","","","","","","",""
4.0,0.05548623949289322,0.0005391318910619655,"train",5240.0,"2021-11-22 02:09:29.726966","","","","","","",""
4.0,0.06217963993549347,0.0005423300651027144,"train",5260.0,"2021-11-22 02:09:34.871560","","","","","","",""
4.0,0.07061904668807983,0.0005455358103209663,"train",5280.0,"2021-11-22 02:09:40.422378","","","","","","",""
4.0,0.06913875043392181,0.0005487490779469157,"train",5300.0,"2021-11-22 02:09:45.450015","","","","","","",""
4.0,0.06985104084014893,0.000551969819096316,"train",5320.0,"2021-11-22 02:09:50.465838","","","","","","",""
4.0,0.06142110377550125,0.0005551979847712252,"train",5340.0,"2021-11-22 02:09:55.361357","","","","","","",""
4.0,0.0480831153690815,0.0005584335258607489,"train",5360.0,"2021-11-22 02:10:00.755921","","","","","","",""
4.0,"","","train",5370.0,"2021-11-22 02:11:57.587414",0.5544058793567634,0.5558435807784611,0.9423799278269231,0.5806309926979475,0.46401776277801887,0.477208838569297,0.30405580075438265
4.0,"","","val",5370.0,"2021-11-22 02:12:28.069178",0.5452858633886118,0.5422802035155444,0.9358543515246526,0.5647419016714336,0.4585845116632259,0.4711125489399307,0.2944634060093283
5.0,0.048129018396139145,0.0005616763931417894,"train",5380.0,"2021-11-22 02:12:33.678887","","","","","","",""
5.0,0.05149329826235771,0.0005649265372797939,"train",5400.0,"2021-11-22 02:12:38.672994","","","","","","",""
5.0,0.04306522384285927,0.0005681839088295046,"train",5420.0,"2021-11-22 02:12:43.601249","","","","","","",""
5.0,0.05126364529132843,0.0005714484582357109,"train",5440.0,"2021-11-22 02:12:48.472359","","","","","","",""
5.0,0.040393490344285965,0.0005747201358340048,"train",5460.0,"2021-11-22 02:12:54.170218","","","","","","",""
5.0,0.07231221348047256,0.0005779988918515344,"train",5480.0,"2021-11-22 02:12:59.169681","","","","","","",""
5.0,0.06241176277399063,0.0005812846764077623,"train",5500.0,"2021-11-22 02:13:04.166738","","","","","","",""
5.0,0.054170697927474976,0.0005845774395152243,"train",5520.0,"2021-11-22 02:13:09.269213","","","","","","",""
5.0,0.06820167601108551,0.0005878771310802895,"train",5540.0,"2021-11-22 02:13:14.377111","","","","","","",""
5.0,0.05482935160398483,0.0005911837009039229,"train",5560.0,"2021-11-22 02:13:20.123208","","","","","","",""
5.0,0.05647328868508339,0.0005944970986824485,"train",5580.0,"2021-11-22 02:13:25.080539","","","","","","",""
5.0,0.05310586467385292,0.000597817274008315,"train",5600.0,"2021-11-22 02:13:30.028586","","","","","","",""
5.0,0.06007710099220276,0.0006011441763708635,"train",5620.0,"2021-11-22 02:13:34.955019","","","","","","",""
5.0,0.04684578999876976,0.0006044777551570929,"train",5640.0,"2021-11-22 02:13:39.958226","","","","","","",""
5.0,0.05155166983604431,0.000607817959652434,"train",5660.0,"2021-11-22 02:13:45.620313","","","","","","",""
5.0,0.0320248156785965,0.0006111647390415189,"train",5680.0,"2021-11-22 02:13:50.528407","","","","","","",""
5.0,0.07113324850797653,0.0006145180424089525,"train",5700.0,"2021-11-22 02:13:55.690323","","","","","","",""
5.0,0.08585745096206665,0.0006178778187400902,"train",5720.0,"2021-11-22 02:14:00.723552","","","","","","",""
5.0,0.04655994847416878,0.0006212440169218129,"train",5740.0,"2021-11-22 02:14:05.736355","","","","","","",""
5.0,0.07101020961999893,0.0006246165857433027,"train",5760.0,"2021-11-22 02:14:11.565284","","","","","","",""
5.0,0.048240646719932556,0.0006279954738968251,"train",5780.0,"2021-11-22 02:14:16.750542","","","","","","",""
5.0,0.0661933571100235,0.0006313806299785075,"train",5800.0,"2021-11-22 02:14:21.834492","","","","","","",""
5.0,0.04194602742791176,0.0006347720024891209,"train",5820.0,"2021-11-22 02:14:26.670850","","","","","","",""
5.0,0.09261259436607361,0.0006381695398348657,"train",5840.0,"2021-11-22 02:14:31.503117","","","","","","",""
5.0,0.04018580913543701,0.0006415731903281542,"train",5860.0,"2021-11-22 02:14:37.147013","","","","","","",""
5.0,0.06589990854263306,0.0006449829021883979,"train",5880.0,"2021-11-22 02:14:42.136748","","","","","","",""
5.0,0.06199993938207626,0.0006483986235427956,"train",5900.0,"2021-11-22 02:14:47.171726","","","","","","",""
5.0,0.07371104508638382,0.0006518203024271213,"train",5920.0,"2021-11-22 02:14:52.067473","","","","","","",""
5.0,0.07011553645133972,0.0006552478867865169,"train",5940.0,"2021-11-22 02:14:57.047901","","","","","","",""
5.0,0.05511988326907158,0.0006586813244762815,"train",5960.0,"2021-11-22 02:15:02.779309","","","","","","",""
5.0,0.051065992563962936,0.0006621205632626672,"train",5980.0,"2021-11-22 02:15:07.837745","","","","","","",""
5.0,0.052804719656705856,0.0006655655508236717,"train",6000.0,"2021-11-22 02:15:12.703491","","","","","","",""
5.0,0.04484742134809494,0.0006690162347498356,"train",6020.0,"2021-11-22 02:15:17.632494","","","","","","",""
5.0,0.04803795740008354,0.0006724725625450389,"train",6040.0,"2021-11-22 02:15:23.309887","","","","","","",""
5.0,0.060176484286785126,0.0006759344816273003,"train",6060.0,"2021-11-22 02:15:28.170014","","","","","","",""
5.0,0.06005430966615677,0.0006794019393295771,"train",6080.0,"2021-11-22 02:15:32.993543","","","","","","",""
5.0,0.05496227368712425,0.0006828748829005654,"train",6100.0,"2021-11-22 02:15:37.867791","","","","","","",""
5.0,0.08615836501121521,0.0006863532595055041,"train",6120.0,"2021-11-22 02:15:42.847522","","","","","","",""
5.0,0.04706834256649017,0.0006898370162269777,"train",6140.0,"2021-11-22 02:15:48.504405","","","","","","",""
5.0,0.03908715024590492,0.0006933261000657217,"train",6160.0,"2021-11-22 02:15:53.500680","","","","","","",""
5.0,0.06518755108118057,0.000696820457941429,"train",6180.0,"2021-11-22 02:15:58.355594","","","","","","",""
5.0,0.03876808285713196,0.000700320036693557,"train",6200.0,"2021-11-22 02:16:03.203144","","","","","","",""
5.0,0.055352937430143356,0.0007038247830821358,"train",6220.0,"2021-11-22 02:16:08.153075","","","","","","",""
5.0,0.06700772792100906,0.0007073346437885815,"train",6240.0,"2021-11-22 02:16:13.810332","","","","","","",""
5.0,0.04317221790552139,0.000710849565416502,"train",6260.0,"2021-11-22 02:16:18.893652","","","","","","",""
5.0,0.05541055276989937,0.0007143694944925134,"train",6280.0,"2021-11-22 02:16:23.926211","","","","","","",""
5.0,0.04872969537973404,0.0007178943774670524,"train",6300.0,"2021-11-22 02:16:28.962619","","","","","","",""
5.0,0.04866085946559906,0.0007214241607151901,"train",6320.0,"2021-11-22 02:16:33.813437","","","","","","",""
5.0,0.06692751497030258,0.000724958790537449,"train",6340.0,"2021-11-22 02:16:39.371718","","","","","","",""
5.0,0.07176030427217484,0.0007284982131606195,"train",6360.0,"2021-11-22 02:16:44.383044","","","","","","",""
5.0,0.047198399901390076,0.0007320423747385781,"train",6380.0,"2021-11-22 02:16:49.381038","","","","","","",""
5.0,0.08890078961849213,0.0007355912213531054,"train",6400.0,"2021-11-22 02:16:54.232517","","","","","","",""
5.0,0.06520357728004456,0.000739144699014708,"train",6420.0,"2021-11-22 02:16:59.069250","","","","","","",""
5.0,0.07926531881093979,0.0007427027536634401,"train",6440.0,"2021-11-22 02:17:04.697278","","","","","","",""
5.0,"","","train",6444.0,"2021-11-22 02:18:58.730184",0.5676926435276141,0.5680405631062736,0.9446581323183094,0.5779359115304032,0.46390813872460335,0.4754994636251367,0.31043358285524353
5.0,"","","val",6444.0,"2021-11-22 02:19:29.005429",0.5607677142525803,0.546581763198662,0.9374058947775299,0.5648499172209691,0.4520595056063191,0.45920417589166296,0.2956473792914606
6.0,0.07259457558393478,0.0007462653311697235,"train",6460.0,"2021-11-22 02:19:36.211125","","","","","","",""
6.0,0.06075737252831459,0.0007498323773351733,"train",6480.0,"2021-11-22 02:19:41.308559","","","","","","",""
6.0,0.04505480080842972,0.0007534038378934223,"train",6500.0,"2021-11-22 02:19:46.544363","","","","","","",""
6.0,0.05276350677013397,0.0007569796585109453,"train",6520.0,"2021-11-22 02:19:51.902120","","","","","","",""
6.0,0.05823889747262001,0.0007605597847878862,"train",6540.0,"2021-11-22 02:19:57.842671","","","","","","",""
6.0,0.05731876567006111,0.0007641441622588871,"train",6560.0,"2021-11-22 02:20:03.174695","","","","","","",""
6.0,0.058632779866456985,0.0007677327363939143,"train",6580.0,"2021-11-22 02:20:08.533575","","","","","","",""
6.0,0.053565073758363724,0.0007713254525990895,"train",6600.0,"2021-11-22 02:20:13.795916","","","","","","",""
6.0,0.05022582784295082,0.0007749222562175211,"train",6620.0,"2021-11-22 02:20:19.051645","","","","","","",""
6.0,0.08828587085008621,0.000778523092530133,"train",6640.0,"2021-11-22 02:20:24.938488","","","","","","",""
6.0,0.06159461662173271,0.0007821279067564996,"train",6660.0,"2021-11-22 02:20:30.229613","","","","","","",""
6.0,0.0673668161034584,0.0007857366440556786,"train",6680.0,"2021-11-22 02:20:35.622030","","","","","","",""
6.0,0.04162725433707237,0.0007893492495270442,"train",6700.0,"2021-11-22 02:20:40.966516","","","","","","",""
6.0,0.056010354310274124,0.0007929656682111239,"train",6720.0,"2021-11-22 02:20:46.353327","","","","","","",""
6.0,0.05513714253902435,0.0007965858450904332,"train",6740.0,"2021-11-22 02:20:52.359957","","","","","","",""
6.0,0.04738602787256241,0.000800209725090314,"train",6760.0,"2021-11-22 02:20:57.731687","","","","","","",""
6.0,0.0751643180847168,0.0008038372530797706,"train",6780.0,"2021-11-22 02:21:03.119525","","","","","","",""
6.0,0.04900746047496796,0.0008074683738723109,"train",6800.0,"2021-11-22 02:21:08.520180","","","","","","",""
6.0,0.07169299572706223,0.0008111030322267832,"train",6820.0,"2021-11-22 02:21:13.902358","","","","","","",""
6.0,0.05493012070655823,0.0008147411728482187,"train",6840.0,"2021-11-22 02:21:19.794682","","","","","","",""
6.0,0.06434426456689835,0.0008183827403886721,"train",6860.0,"2021-11-22 02:21:25.077313","","","","","","",""
6.0,0.0463203564286232,0.0008220276794480633,"train",6880.0,"2021-11-22 02:21:30.381166","","","","","","",""
6.0,0.04425868019461632,0.0008256759345750203,"train",6900.0,"2021-11-22 02:21:35.737155","","","","","","",""
6.0,0.05476812273263931,0.0008293274502677234,"train",6920.0,"2021-11-22 02:21:41.690863","","","","","","",""
6.0,0.07442932575941086,0.0008329821709747486,"train",6940.0,"2021-11-22 02:21:46.985846","","","","","","",""
6.0,0.0515289232134819,0.0008366400410959136,"train",6960.0,"2021-11-22 02:21:52.261957","","","","","","",""
6.0,0.06591822952032089,0.000840301004983123,"train",6980.0,"2021-11-22 02:21:57.562901","","","","","","",""
6.0,0.08555775135755539,0.0008439650069412147,"train",7000.0,"2021-11-22 02:22:02.834762","","","","","","",""
6.0,0.06715548038482666,0.0008476319912288095,"train",7020.0,"2021-11-22 02:22:08.836811","","","","","","",""
6.0,0.07015050947666168,0.0008513019020591544,"train",7040.0,"2021-11-22 02:22:14.099303","","","","","","",""
6.0,0.05497440695762634,0.0008549746836009771,"train",7060.0,"2021-11-22 02:22:19.353283","","","","","","",""
6.0,0.05958666652441025,0.0008586502799793306,"train",7080.0,"2021-11-22 02:22:24.618564","","","","","","",""
6.0,0.05684679374098778,0.0008623286352764453,"train",7100.0,"2021-11-22 02:22:29.865140","","","","","","",""
6.0,0.04175037890672684,0.0008660096935325802,"train",7120.0,"2021-11-22 02:22:35.802159","","","","","","",""
6.0,0.08470546454191208,0.0008696933987468731,"train",7140.0,"2021-11-22 02:22:41.051683","","","","","","",""
6.0,0.04794974625110626,0.0008733796948781924,"train",7160.0,"2021-11-22 02:22:46.290571","","","","","","",""
6.0,0.07587353140115738,0.0008770685258459915,"train",7180.0,"2021-11-22 02:22:51.754953","","","","","","",""
6.0,0.058076731860637665,0.0008807598355311595,"train",7200.0,"2021-11-22 02:22:57.169189","","","","","","",""
6.0,0.048411473631858826,0.0008844535677768764,"train",7220.0,"2021-11-22 02:23:03.013843","","","","","","",""
6.0,0.05325671657919884,0.0008881496663894681,"train",7240.0,"2021-11-22 02:23:08.104497","","","","","","",""
6.0,0.05859420448541641,0.0008918480751392592,"train",7260.0,"2021-11-22 02:23:13.322694","","","","","","",""
6.0,0.04849857836961746,0.00089554873776143,"train",7280.0,"2021-11-22 02:23:18.466451","","","","","","",""
6.0,0.061512541025877,0.0008992515979568724,"train",7300.0,"2021-11-22 02:23:23.660402","","","","","","",""
6.0,0.05137835443019867,0.0009029565993930457,"train",7320.0,"2021-11-22 02:23:29.604777","","","","","","",""
6.0,0.056955981999635696,0.0009066636857048339,"train",7340.0,"2021-11-22 02:23:34.915026","","","","","","",""
6.0,0.04390990361571312,0.0009103728004954039,"train",7360.0,"2021-11-22 02:23:39.992015","","","","","","",""
6.0,0.04986745864152908,0.0009140838873370617,"train",7380.0,"2021-11-22 02:23:45.074637","","","","","","",""
6.0,0.0572633296251297,0.0009177968897721136,"train",7400.0,"2021-11-22 02:23:50.332628","","","","","","",""
6.0,0.04390491917729378,0.0009215117513137218,"train",7420.0,"2021-11-22 02:23:56.109598","","","","","","",""
6.0,0.051220543682575226,0.0009252284154467663,"train",7440.0,"2021-11-22 02:24:01.212988","","","","","","",""
6.0,0.05580703169107437,0.0009289468256287042,"train",7460.0,"2021-11-22 02:24:06.344781","","","","","","",""
6.0,0.07580624520778656,0.0009326669252904287,"train",7480.0,"2021-11-22 02:24:11.622002","","","","","","",""
6.0,0.04577454552054405,0.0009363886578371307,"train",7500.0,"2021-11-22 02:24:16.869285","","","","","","",""
6.0,"","","train",7518.0,"2021-11-22 02:26:15.928958",0.5795095685076038,0.580478572464911,0.9443729494154958,0.6000565727243726,0.46976461327187913,0.49075752440591597,0.31267811415469793
6.0,"","","val",7518.0,"2021-11-22 02:26:47.417637",0.5666821291893772,0.5520376489714374,0.9354739881166082,0.5827920184634829,0.44978014302464964,0.4670531880074095,0.2955423816806089
7.0,0.06555280834436417,0.0009401119666491604,"train",7520.0,"2021-11-22 02:26:51.081846","","","","","","",""
7.0,0.039084870368242264,0.0009438367950828869,"train",7540.0,"2021-11-22 02:26:56.316375","","","","","","",""
7.0,0.08435429632663727,0.000947563086471561,"train",7560.0,"2021-11-22 02:27:01.438376","","","","","","",""
7.0,0.05724078789353371,0.0009512907841261783,"train",7580.0,"2021-11-22 02:27:06.461996","","","","","","",""
7.0,0.041709333658218384,0.0009550198313363391,"train",7600.0,"2021-11-22 02:27:11.541081","","","","","","",""
7.0,0.04377426579594612,0.0009587501713711128,"train",7620.0,"2021-11-22 02:27:17.502368","","","","","","",""
7.0,0.04757145792245865,0.0009624817474799023,"train",7640.0,"2021-11-22 02:27:22.643838","","","","","","",""
7.0,0.06847339868545532,0.0009662145028933038,"train",7660.0,"2021-11-22 02:27:27.668256","","","","","","",""
7.0,0.05558289587497711,0.0009699483808239733,"train",7680.0,"2021-11-22 02:27:32.685890","","","","","","",""
7.0,0.029720637947320938,0.0009736833244674895,"train",7700.0,"2021-11-22 02:27:38.490568","","","","","","",""
7.0,0.05438729003071785,0.0009774192770032192,"train",7720.0,"2021-11-22 02:27:43.476559","","","","","","",""
7.0,0.05588986352086067,0.0009811561815951785,"train",7740.0,"2021-11-22 02:27:48.697221","","","","","","",""
7.0,0.05392085760831833,0.0009848939813929015,"train",7760.0,"2021-11-22 02:27:53.967029","","","","","","",""
7.0,0.054640330374240875,0.0009886326195323026,"train",7780.0,"2021-11-22 02:27:59.245059","","","","","","",""
7.0,0.05200912430882454,0.0009923720391365428,"train",7800.0,"2021-11-22 02:28:05.294521","","","","","","",""
7.0,0.05335843935608864,0.000996112183316893,"train",7820.0,"2021-11-22 02:28:10.555181","","","","","","",""
7.0,0.045078665018081665,0.0009998529951736029,"train",7840.0,"2021-11-22 02:28:15.781643","","","","","","",""
7.0,0.055997107177972794,0.0010035944177967638,"train",7860.0,"2021-11-22 02:28:20.988418","","","","","","",""
7.0,0.04735341668128967,0.0010073363942671744,"train",7880.0,"2021-11-22 02:28:26.210740","","","","","","",""
7.0,0.047714293003082275,0.0010110788676572094,"train",7900.0,"2021-11-22 02:28:32.022913","","","","","","",""
7.0,0.0747457966208458,0.0010148217810316822,"train",7920.0,"2021-11-22 02:28:36.974892","","","","","","",""
7.0,0.07360205799341202,0.0010185650774487127,"train",7940.0,"2021-11-22 02:28:41.934258","","","","","","",""
7.0,0.05059797316789627,0.0010223086999605951,"train",7960.0,"2021-11-22 02:28:46.924378","","","","","","",""
7.0,0.06271559745073318,0.0010260525916146609,"train",7980.0,"2021-11-22 02:28:51.994449","","","","","","",""
7.0,0.035973045974969864,0.0010297966954541469,"train",8000.0,"2021-11-22 02:28:57.879487","","","","","","",""
7.0,0.049800194799900055,0.001033540954519064,"train",8020.0,"2021-11-22 02:29:03.015668","","","","","","",""
7.0,0.06599187105894089,0.0010372853118470592,"train",8040.0,"2021-11-22 02:29:08.129129","","","","","","",""
7.0,0.03473300486803055,0.0010410297104742857,"train",8060.0,"2021-11-22 02:29:13.210585","","","","","","",""
7.0,0.04319614917039871,0.0010447740934362692,"train",8080.0,"2021-11-22 02:29:18.344311","","","","","","",""
7.0,0.07278823852539062,0.0010485184037687715,"train",8100.0,"2021-11-22 02:29:24.320166","","","","","","",""
7.0,0.04174715280532837,0.0010522625845086615,"train",8120.0,"2021-11-22 02:29:29.348687","","","","","","",""
7.0,0.0543474480509758,0.0010560065786947796,"train",8140.0,"2021-11-22 02:29:34.517249","","","","","","",""
7.0,0.06830596923828125,0.0010597503293688013,"train",8160.0,"2021-11-22 02:29:39.600283","","","","","","",""
7.0,0.05156156048178673,0.001063493779576111,"train",8180.0,"2021-11-22 02:29:44.592788","","","","","","",""
7.0,0.035353220999240875,0.0010672368723666614,"train",8200.0,"2021-11-22 02:29:50.488430","","","","","","",""
7.0,0.035829540342092514,0.0010709795507958426,"train",8220.0,"2021-11-22 02:29:55.431930","","","","","","",""
7.0,0.049250081181526184,0.0010747217579253504,"train",8240.0,"2021-11-22 02:30:00.651027","","","","","","",""
7.0,0.04912284016609192,0.0010784634368240487,"train",8260.0,"2021-11-22 02:30:05.889843","","","","","","",""
7.0,0.08096344769001007,0.0010822045305688382,"train",8280.0,"2021-11-22 02:30:11.037611","","","","","","",""
7.0,0.05706091597676277,0.0010859449822455227,"train",8300.0,"2021-11-22 02:30:17.106761","","","","","","",""
7.0,0.05824965983629227,0.001089684734949672,"train",8320.0,"2021-11-22 02:30:22.134665","","","","","","",""
7.0,0.06631876528263092,0.00109342373178749,"train",8340.0,"2021-11-22 02:30:27.147872","","","","","","",""
7.0,0.04760788753628731,0.0010971619158766821,"train",8360.0,"2021-11-22 02:30:32.189653","","","","","","",""
7.0,0.07098281383514404,0.0011008992303473152,"train",8380.0,"2021-11-22 02:30:37.248700","","","","","","",""
7.0,0.06859934329986572,0.001104635618342687,"train",8400.0,"2021-11-22 02:30:43.130531","","","","","","",""
7.0,0.06956607103347778,0.001108371023020191,"train",8420.0,"2021-11-22 02:30:48.208614","","","","","","",""
7.0,0.054726794362068176,0.0011121053875521787,"train",8440.0,"2021-11-22 02:30:53.275275","","","","","","",""
7.0,0.06209144741296768,0.0011158386551268257,"train",8460.0,"2021-11-22 02:30:58.434674","","","","","","",""
7.0,0.08009147644042969,0.0011195707689489972,"train",8480.0,"2021-11-22 02:31:04.375836","","","","","","",""
7.0,0.05393270030617714,0.0011233016722411097,"train",8500.0,"2021-11-22 02:31:09.526350","","","","","","",""
7.0,0.06533696502447128,0.0011270313082439951,"train",8520.0,"2021-11-22 02:31:14.569661","","","","","","",""
7.0,0.07594257593154907,0.001130759620217767,"train",8540.0,"2021-11-22 02:31:19.662963","","","","","","",""
7.0,0.04001430422067642,0.0011344865514426794,"train",8560.0,"2021-11-22 02:31:24.712498","","","","","","",""
7.0,0.05912269279360771,0.0011382120452199938,"train",8580.0,"2021-11-22 02:31:30.579598","","","","","","",""
7.0,"","","train",8592.0,"2021-11-22 02:33:37.023184",0.6013388634213782,0.6028881218809402,0.9528047125709997,0.6087165999453651,0.4857069358658277,0.5093743183960162,0.33015555708229694
7.0,"","","val",8592.0,"2021-11-22 02:34:08.849033",0.5903977733967297,0.5748906627143417,0.9461624738394355,0.5915565324323597,0.4683094722931457,0.4896697955098791,0.31149976852195266
8.0,0.05862244591116905,0.001141936044872839,"train",8600.0,"2021-11-22 02:34:14.071863","","","","","","",""
8.0,0.07783303409814835,0.0011456584937470744,"train",8620.0,"2021-11-22 02:34:19.223629","","","","","","",""
8.0,0.0374012254178524,0.0011493793352121522,"train",8640.0,"2021-11-22 02:34:24.468875","","","","","","",""
8.0,0.04060510918498039,0.0011530985126619784,"train",8660.0,"2021-11-22 02:34:29.602209","","","","","","",""
8.0,0.08376580476760864,0.001156815969515773,"train",8680.0,"2021-11-22 02:34:35.605008","","","","","","",""
8.0,0.05114281550049782,0.001160531649218934,"train",8700.0,"2021-11-22 02:34:40.555700","","","","","","",""
8.0,0.03799799457192421,0.001164245495243894,"train",8720.0,"2021-11-22 02:34:45.540407","","","","","","",""
8.0,0.06772071123123169,0.0011679574510909817,"train",8740.0,"2021-11-22 02:34:50.623774","","","","","","",""
8.0,0.061286356300115585,0.0011716674602892828,"train",8760.0,"2021-11-22 02:34:55.589435","","","","","","",""
8.0,0.03677137568593025,0.0011753754663974968,"train",8780.0,"2021-11-22 02:35:01.212663","","","","","","",""
8.0,0.07307673245668411,0.0011790814130047968,"train",8800.0,"2021-11-22 02:35:06.250718","","","","","","",""
8.0,0.060867276042699814,0.001182785243731688,"train",8820.0,"2021-11-22 02:35:11.311707","","","","","","",""
8.0,0.07841402292251587,0.0011864869022308656,"train",8840.0,"2021-11-22 02:35:16.379890","","","","","","",""
8.0,0.050838083028793335,0.0011901863321880693,"train",8860.0,"2021-11-22 02:35:21.437320","","","","","","",""
8.0,0.05062831565737724,0.001193883477322945,"train",8880.0,"2021-11-22 02:35:26.980608","","","","","","",""
8.0,0.055892232805490494,0.0011975782813898961,"train",8900.0,"2021-11-22 02:35:31.881064","","","","","","",""
8.0,0.07965727895498276,0.0012012706881789417,"train",8920.0,"2021-11-22 02:35:36.803726","","","","","","",""
8.0,0.04417969658970833,0.001204960641516572,"train",8940.0,"2021-11-22 02:35:41.733416","","","","","","",""
8.0,0.07472401857376099,0.0012086480852666014,"train",8960.0,"2021-11-22 02:35:46.650549","","","","","","",""
8.0,0.05410607159137726,0.0012123329633310235,"train",8980.0,"2021-11-22 02:35:52.161364","","","","","","",""
8.0,0.0730782076716423,0.0012160152196508643,"train",9000.0,"2021-11-22 02:35:57.104651","","","","","","",""
8.0,0.07835057377815247,0.0012196947982070355,"train",9020.0,"2021-11-22 02:36:02.110538","","","","","","",""
8.0,0.043323494493961334,0.0012233716430211856,"train",9040.0,"2021-11-22 02:36:07.215503","","","","","","",""
8.0,0.06469438970088959,0.001227045698156553,"train",9060.0,"2021-11-22 02:36:12.229581","","","","","","",""
8.0,0.07268285006284714,0.0012307169077188148,"train",9080.0,"2021-11-22 02:36:17.777621","","","","","","",""
8.0,0.04048992320895195,0.0012343852158569401,"train",9100.0,"2021-11-22 02:36:22.666838","","","","","","",""
8.0,0.06230581924319267,0.0012380505667640377,"train",9120.0,"2021-11-22 02:36:27.569943","","","","","","",""
8.0,0.05608295649290085,0.0012417129046782046,"train",9140.0,"2021-11-22 02:36:32.592331","","","","","","",""
8.0,0.0638146847486496,0.0012453721738833758,"train",9160.0,"2021-11-22 02:36:37.555531","","","","","","",""
8.0,0.04886090010404587,0.001249028318710172,"train",9180.0,"2021-11-22 02:36:42.996348","","","","","","",""
8.0,0.06984467059373856,0.0012526812835367447,"train",9200.0,"2021-11-22 02:36:47.985681","","","","","","",""
8.0,0.04255162179470062,0.0012563310127896242,"train",9220.0,"2021-11-22 02:36:52.923126","","","","","","",""
8.0,0.04623384773731232,0.0012599774509445645,"train",9240.0,"2021-11-22 02:36:57.899471","","","","","","",""
8.0,0.06753668934106827,0.0012636205425273874,"train",9260.0,"2021-11-22 02:37:03.344866","","","","","","",""
8.0,0.045349717140197754,0.0012672602321148268,"train",9280.0,"2021-11-22 02:37:08.276059","","","","","","",""
8.0,0.040047939866781235,0.0012708964643353732,"train",9300.0,"2021-11-22 02:37:13.387038","","","","","","",""
8.0,0.05448659881949425,0.001274529183870114,"train",9320.0,"2021-11-22 02:37:18.454325","","","","","","",""
8.0,0.048386350274086,0.0012781583354535748,"train",9340.0,"2021-11-22 02:37:23.457581","","","","","","",""
8.0,0.06718374788761139,0.0012817838638745646,"train",9360.0,"2021-11-22 02:37:29.042323","","","","","","",""
8.0,0.04501520097255707,0.001285405713977009,"train",9380.0,"2021-11-22 02:37:33.950501","","","","","","",""
8.0,0.08844649791717529,0.0012890238306607947,"train",9400.0,"2021-11-22 02:37:38.868518","","","","","","",""
8.0,0.04927825182676315,0.001292638158882606,"train",9420.0,"2021-11-22 02:37:43.829070","","","","","","",""
8.0,0.0803530365228653,0.0012962486436567603,"train",9440.0,"2021-11-22 02:37:48.779454","","","","","","",""
8.0,0.04465153440833092,0.0012998552300560484,"train",9460.0,"2021-11-22 02:37:54.327792","","","","","","",""
8.0,0.08941775560379028,0.0013034578632125668,"train",9480.0,"2021-11-22 02:37:59.239385","","","","","","",""
8.0,0.03894875571131706,0.0013070564883185534,"train",9500.0,"2021-11-22 02:38:04.153100","","","","","","",""
8.0,0.0442749448120594,0.001310651050627223,"train",9520.0,"2021-11-22 02:38:09.039081","","","","","","",""
8.0,0.04986254870891571,0.001314241495453598,"train",9540.0,"2021-11-22 02:38:13.969726","","","","","","",""
8.0,0.040839023888111115,0.00131782776817534,"train",9560.0,"2021-11-22 02:38:19.671144","","","","","","",""
8.0,0.05663854628801346,0.0013214098142335837,"train",9580.0,"2021-11-22 02:38:24.640730","","","","","","",""
8.0,0.06691501289606094,0.001324987579133764,"train",9600.0,"2021-11-22 02:38:29.604952","","","","","","",""
8.0,0.05088520422577858,0.0013285610084464463,"train",9620.0,"2021-11-22 02:38:34.593510","","","","","","",""
8.0,0.08092156052589417,0.001332130047808155,"train",9640.0,"2021-11-22 02:38:39.543973","","","","","","",""
8.0,0.054445043206214905,0.001335694642922199,"train",9660.0,"2021-11-22 02:38:45.079705","","","","","","",""
8.0,"","","train",9666.0,"2021-11-22 02:40:46.006454",0.6093574910863713,0.6182103049863793,0.9537718812169332,0.6295766600884473,0.5154285506417947,0.5265645497400245,0.35252874276059026
8.0,"","","val",9666.0,"2021-11-22 02:41:17.534220",0.5986315667401136,0.5890520427354512,0.9472034151165862,0.612785891912583,0.4983283562165074,0.5076815850298275,0.3359309987728374
9.0,0.06172137334942818,0.0013392547395594985,"train",9680.0,"2021-11-22 02:41:24.224113","","","","","","",""
9.0,0.05888499319553375,0.001342810283559412,"train",9700.0,"2021-11-22 02:41:29.149734","","","","","","",""
9.0,0.06407095491886139,0.0013463612208305564,"train",9720.0,"2021-11-22 02:41:34.057623","","","","","","",""
9.0,0.049616631120443344,0.0013499074973516321,"train",9740.0,"2021-11-22 02:41:39.030925","","","","","","",""
9.0,0.043667394667863846,0.0013534490591722464,"train",9760.0,"2021-11-22 02:41:44.637782","","","","","","",""
9.0,0.05841052159667015,0.0013569858524137305,"train",9780.0,"2021-11-22 02:41:49.539941","","","","","","",""
9.0,0.06743224710226059,0.001360517823269962,"train",9800.0,"2021-11-22 02:41:54.400227","","","","","","",""
9.0,0.05599183589220047,0.0013640449180081834,"train",9820.0,"2021-11-22 02:41:59.288505","","","","","","",""
9.0,0.07601942867040634,0.0013675670829698173,"train",9840.0,"2021-11-22 02:42:04.176942","","","","","","",""
9.0,0.06926784664392471,0.0013710842645712853,"train",9860.0,"2021-11-22 02:42:09.649417","","","","","","",""
9.0,0.05405480042099953,0.0013745964093048219,"train",9880.0,"2021-11-22 02:42:14.540639","","","","","","",""
9.0,0.07909386605024338,0.0013781034637392886,"train",9900.0,"2021-11-22 02:42:19.502911","","","","","","",""
9.0,0.05352967232465744,0.0013816053745209864,"train",9920.0,"2021-11-22 02:42:24.520753","","","","","","",""
9.0,0.06929806619882584,0.0013851020883744697,"train",9940.0,"2021-11-22 02:42:29.448946","","","","","","",""
9.0,0.07385965436697006,0.001388593552103353,"train",9960.0,"2021-11-22 02:42:34.930806","","","","","","",""
9.0,0.06629901379346848,0.0013920797125911233,"train",9980.0,"2021-11-22 02:42:39.773216","","","","","","",""
9.0,0.07748237997293472,0.001395560516801947,"train",10000.0,"2021-11-22 02:42:44.625836","","","","","","",""
9.0,0.05359954014420509,0.0013990359117814774,"train",10020.0,"2021-11-22 02:42:49.473446","","","","","","",""
9.0,0.0843663364648819,0.0014025058446576583,"train",10040.0,"2021-11-22 02:42:54.925428","","","","","","",""
9.0,0.0815964862704277,0.0014059702626415317,"train",10060.0,"2021-11-22 02:42:59.810834","","","","","","",""
9.0,0.051087573170661926,0.0014094291130280377,"train",10080.0,"2021-11-22 02:43:04.808448","","","","","","",""
9.0,0.042115356773138046,0.0014128823431968183,"train",10100.0,"2021-11-22 02:43:09.696133","","","","","","",""
9.0,0.03628578409552574,0.001416329900613017,"train",10120.0,"2021-11-22 02:43:14.610885","","","","","","",""
9.0,0.06140692159533501,0.0014197717328280782,"train",10140.0,"2021-11-22 02:43:20.141589","","","","","","",""
9.0,0.06781041622161865,0.0014232077874805457,"train",10160.0,"2021-11-22 02:43:25.047872","","","","","","",""
9.0,0.04660937190055847,0.0014266380122968589,"train",10180.0,"2021-11-22 02:43:30.150639","","","","","","",""
9.0,0.04631435498595238,0.0014300623550921468,"train",10200.0,"2021-11-22 02:43:35.252161","","","","","","",""
9.0,0.05472436174750328,0.0014334807637710243,"train",10220.0,"2021-11-22 02:43:40.230958","","","","","","",""
9.0,0.04665519297122955,0.0014368931863283831,"train",10240.0,"2021-11-22 02:43:45.861144","","","","","","",""
9.0,0.05953781679272652,0.0014402995708501826,"train",10260.0,"2021-11-22 02:43:50.931466","","","","","","",""
9.0,0.056088339537382126,0.0014436998655142422,"train",10280.0,"2021-11-22 02:43:55.970257","","","","","","",""
9.0,0.061114102602005005,0.0014470940185910258,"train",10300.0,"2021-11-22 02:44:00.971779","","","","","","",""
9.0,0.051147058606147766,0.001450481978444431,"train",10320.0,"2021-11-22 02:44:05.840692","","","","","","",""
9.0,0.05210353061556816,0.0014538636935325763,"train",10340.0,"2021-11-22 02:44:11.341356","","","","","","",""
9.0,0.045764002948999405,0.0014572391124085817,"train",10360.0,"2021-11-22 02:44:16.202644","","","","","","",""
9.0,0.04687560722231865,0.0014606081837213525,"train",10380.0,"2021-11-22 02:44:21.192806","","","","","","",""
9.0,0.06398013979196548,0.0014639708562163639,"train",10400.0,"2021-11-22 02:44:26.191725","","","","","","",""
9.0,0.04674016311764717,0.001467327078736435,"train",10420.0,"2021-11-22 02:44:31.171478","","","","","","",""
9.0,0.050465699285268784,0.0014706768002225108,"train",10440.0,"2021-11-22 02:44:36.767054","","","","","","",""
9.0,0.058547765016555786,0.0014740199697144392,"train",10460.0,"2021-11-22 02:44:41.816686","","","","","","",""
9.0,0.0635339692234993,0.0014773565363517442,"train",10480.0,"2021-11-22 02:44:46.854834","","","","","","",""
9.0,0.06604063510894775,0.0014806864493744007,"train",10500.0,"2021-11-22 02:44:51.818446","","","","","","",""
9.0,0.044286999851465225,0.0014840096581236072,"train",10520.0,"2021-11-22 02:44:56.818745","","","","","","",""
9.0,0.06095112860202789,0.001487326112042556,"train",10540.0,"2021-11-22 02:45:02.413236","","","","","","",""
9.0,0.07852756232023239,0.0014906357606772013,"train",10560.0,"2021-11-22 02:45:07.347914","","","","","","",""
9.0,0.04495488852262497,0.0014939385536770291,"train",10580.0,"2021-11-22 02:45:12.244471","","","","","","",""
9.0,0.06853511184453964,0.0014972344407958218,"train",10600.0,"2021-11-22 02:45:17.107796","","","","","","",""
9.0,0.07184991240501404,0.0015005233718924213,"train",10620.0,"2021-11-22 02:45:21.969068","","","","","","",""
9.0,0.07558883726596832,0.0015038052969314946,"train",10640.0,"2021-11-22 02:45:27.382210","","","","","","",""
9.0,0.048278987407684326,0.0015070801659842939,"train",10660.0,"2021-11-22 02:45:32.238423","","","","","","",""
9.0,0.06563641130924225,0.001510347929229414,"train",10680.0,"2021-11-22 02:45:37.158888","","","","","","",""
9.0,0.06563065201044083,0.0015136085369535537,"train",10700.0,"2021-11-22 02:45:42.059626","","","","","","",""
9.0,0.03483578935265541,0.0015168619395522708,"train",10720.0,"2021-11-22 02:45:46.986159","","","","","","",""
9.0,0.057248763740062714,0.0015201080875307349,"train",10740.0,"2021-11-22 02:45:52.420644","","","","","","",""
9.0,"","","train",10740.0,"2021-11-22 02:47:50.467004",0.6098377355744743,0.6278854680684296,0.9561456484355001,0.6224174774823545,0.5145136561953735,0.5319978987529799,0.3521813115335056
9.0,"","","val",10740.0,"2021-11-22 02:48:22.065565",0.5965441261741853,0.5952697881444651,0.9476176245954472,0.6034995379201948,0.49276331180497046,0.5086467394807823,0.331393071471776
10.0,0.057555850595235825,0.0015233469315044834,"train",10760.0,"2021-11-22 02:48:30.297252","","","","","","",""
10.0,0.04616125300526619,0.0015265784222001709,"train",10780.0,"2021-11-22 02:48:35.316957","","","","","","",""
10.0,0.05771780386567116,0.0015298025104563185,"train",10800.0,"2021-11-22 02:48:40.218545","","","","","","",""
10.0,0.03348394110798836,0.001533019147224064,"train",10820.0,"2021-11-22 02:48:45.776181","","","","","","",""
10.0,0.04321533441543579,0.0015362282835679054,"train",10840.0,"2021-11-22 02:48:50.684302","","","","","","",""
10.0,0.050360307097435,0.0015394298706664469,"train",10860.0,"2021-11-22 02:48:55.666467","","","","","","",""
10.0,0.04213379696011543,0.001542623859813141,"train",10880.0,"2021-11-22 02:49:00.542344","","","","","","",""
10.0,0.06752880662679672,0.00154581020241703,"train",10900.0,"2021-11-22 02:49:05.478786","","","","","","",""
10.0,0.03923588618636131,0.0015489888500034858,"train",10920.0,"2021-11-22 02:49:10.963728","","","","","","",""
10.0,0.06260953098535538,0.0015521597542149444,"train",10940.0,"2021-11-22 02:49:15.819823","","","","","","",""
10.0,0.07459815591573715,0.0015553228668116455,"train",10960.0,"2021-11-22 02:49:20.779754","","","","","","",""
10.0,0.03619302809238434,0.0015584781396723642,"train",10980.0,"2021-11-22 02:49:25.778268","","","","","","",""
10.0,0.08214030414819717,0.0015616255247951432,"train",11000.0,"2021-11-22 02:49:30.760847","","","","","","",""
10.0,0.07415308058261871,0.0015647649742980233,"train",11020.0,"2021-11-22 02:49:36.220444","","","","","","",""
10.0,0.047464802861213684,0.0015678964404197727,"train",11040.0,"2021-11-22 02:49:41.126490","","","","","","",""
10.0,0.061174239963293076,0.0015710198755206112,"train",11060.0,"2021-11-22 02:49:46.032417","","","","","","",""
10.0,0.059927016496658325,0.0015741352320829379,"train",11080.0,"2021-11-22 02:49:50.937585","","","","","","",""
10.0,0.039866942912340164,0.0015772424627120527,"train",11100.0,"2021-11-22 02:49:55.918066","","","","","","",""
10.0,0.03778144344687462,0.0015803415201368761,"train",11120.0,"2021-11-22 02:50:01.434663","","","","","","",""
10.0,0.06609410047531128,0.001583432357210671,"train",11140.0,"2021-11-22 02:50:06.343249","","","","","","",""
10.0,0.044712718576192856,0.001586514926911758,"train",11160.0,"2021-11-22 02:50:11.325456","","","","","","",""
10.0,0.061906054615974426,0.0015895891823442313,"train",11180.0,"2021-11-22 02:50:16.483496","","","","","","",""
10.0,0.06554897874593735,0.0015926550767386717,"train",11200.0,"2021-11-22 02:50:21.526550","","","","","","",""
10.0,0.04477618634700775,0.0015957125634528599,"train",11220.0,"2021-11-22 02:50:27.041558","","","","","","",""
10.0,0.06786265224218369,0.0015987615959724836,"train",11240.0,"2021-11-22 02:50:31.931177","","","","","","",""
10.0,0.055241819471120834,0.0016018021279118457,"train",11260.0,"2021-11-22 02:50:36.939955","","","","","","",""
10.0,0.056282393634319305,0.0016048341130145728,"train",11280.0,"2021-11-22 02:50:41.935065","","","","","","",""
10.0,0.052943579852581024,0.0016078575051543145,"train",11300.0,"2021-11-22 02:50:46.824817","","","","","","",""
10.0,0.06676018238067627,0.0016108722583354478,"train",11320.0,"2021-11-22 02:50:52.343081","","","","","","",""
10.0,0.0573544055223465,0.0016138783266937777,"train",11340.0,"2021-11-22 02:50:57.302629","","","","","","",""
10.0,0.05334615334868431,0.0016168756644972322,"train",11360.0,"2021-11-22 02:51:02.155512","","","","","","",""
10.0,0.0648806244134903,0.0016198642261465587,"train",11380.0,"2021-11-22 02:51:07.227747","","","","","","",""
10.0,0.07737710326910019,0.0016228439661760208,"train",11400.0,"2021-11-22 02:51:12.271918","","","","","","",""
10.0,0.06626474857330322,0.001625814839254086,"train",11420.0,"2021-11-22 02:51:17.878146","","","","","","",""
10.0,0.04946111887693405,0.0016287768001841164,"train",11440.0,"2021-11-22 02:51:23.036735","","","","","","",""
10.0,0.04414339363574982,0.001631729803905059,"train",11460.0,"2021-11-22 02:51:28.111441","","","","","","",""
10.0,0.04276072233915329,0.0016346738054921273,"train",11480.0,"2021-11-22 02:51:33.193098","","","","","","",""
10.0,0.05787492170929909,0.001637608760157486,"train",11500.0,"2021-11-22 02:51:38.236855","","","","","","",""
10.0,0.0427837111055851,0.0016405346232509356,"train",11520.0,"2021-11-22 02:51:43.929122","","","","","","",""
10.0,0.0761139914393425,0.0016434513502605861,"train",11540.0,"2021-11-22 02:51:48.802765","","","","","","",""
10.0,0.04182645305991173,0.0016463588968135383,"train",11560.0,"2021-11-22 02:51:53.666137","","","","","","",""
10.0,0.052748553454875946,0.0016492572186765577,"train",11580.0,"2021-11-22 02:51:58.557109","","","","","","",""
10.0,0.04590940475463867,0.001652146271756747,"train",11600.0,"2021-11-22 02:52:03.970629","","","","","","",""
10.0,0.05367763340473175,0.0016550260121022172,"train",11620.0,"2021-11-22 02:52:08.887514","","","","","","",""
10.0,0.0489782989025116,0.0016578963959027562,"train",11640.0,"2021-11-22 02:52:13.793951","","","","","","",""
10.0,0.06284776329994202,0.001660757379490496,"train",11660.0,"2021-11-22 02:52:18.832781","","","","","","",""
10.0,0.06026873365044594,0.0016636089193405761,"train",11680.0,"2021-11-22 02:52:23.864892","","","","","","",""
10.0,0.07507041841745377,0.0016664509720718049,"train",11700.0,"2021-11-22 02:52:29.347816","","","","","","",""
10.0,0.05286572873592377,0.0016692834944473224,"train",11720.0,"2021-11-22 02:52:34.221998","","","","","","",""
10.0,0.07298066467046738,0.0016721064433752554,"train",11740.0,"2021-11-22 02:52:39.238357","","","","","","",""
10.0,0.06441787630319595,0.0016749197759093734,"train",11760.0,"2021-11-22 02:52:44.285180","","","","","","",""
10.0,0.056470032781362534,0.0016777234492497436,"train",11780.0,"2021-11-22 02:52:49.234029","","","","","","",""
10.0,0.04672791436314583,0.0016805174207433808,"train",11800.0,"2021-11-22 02:52:54.767635","","","","","","",""
10.0,"","","train",11814.0,"2021-11-22 02:54:56.204055",0.6185257949501565,0.6339922604074505,0.9594045770784548,0.6371631305412392,0.5109033443193286,0.5365738548971752,0.35270274886314523
10.0,"","","val",11814.0,"2021-11-22 02:55:27.779674",0.6039661370752638,0.6049517908292243,0.9532281062648024,0.6162721944895603,0.48897488956873636,0.5104981667853473,0.33086209369725533
11.0,0.061860088258981705,0.0016833016478848956,"train",11820.0,"2021-11-22 02:55:32.415900","","","","","","",""
11.0,0.06857877224683762,0.0016860760883171426,"train",11840.0,"2021-11-22 02:55:37.337794","","","","","","",""
11.0,0.05894651263952255,0.001688840699831864,"train",11860.0,"2021-11-22 02:55:42.230416","","","","","","",""
11.0,0.04357392340898514,0.0016915954403703313,"train",11880.0,"2021-11-22 02:55:47.116668","","","","","","",""
11.0,0.030093161389231682,0.0016943402680239862,"train",11900.0,"2021-11-22 02:55:52.865449","","","","","","",""
11.0,0.055664677172899246,0.0016970751410350774,"train",11920.0,"2021-11-22 02:55:57.860325","","","","","","",""
11.0,0.05032062903046608,0.001699800017797296,"train",11940.0,"2021-11-22 02:56:02.836614","","","","","","",""
11.0,0.04807920753955841,0.0017025148568564086,"train",11960.0,"2021-11-22 02:56:07.790192","","","","","","",""
11.0,0.042476195842027664,0.001705219616910888,"train",11980.0,"2021-11-22 02:56:12.753765","","","","","","",""
11.0,0.04097544774413109,0.001707914256812541,"train",12000.0,"2021-11-22 02:56:18.340217","","","","","","",""
11.0,0.052442241460084915,0.0017105987355671352,"train",12020.0,"2021-11-22 02:56:23.315929","","","","","","",""
11.0,0.04705141484737396,0.0017132730123350227,"train",12040.0,"2021-11-22 02:56:28.254415","","","","","","",""
11.0,0.07986779510974884,0.00171593704643176,"train",12060.0,"2021-11-22 02:56:33.244945","","","","","","",""
11.0,0.07757768779993057,0.0017185907973287285,"train",12080.0,"2021-11-22 02:56:38.257675","","","","","","",""
11.0,0.04581144452095032,0.0017212342246537506,"train",12100.0,"2021-11-22 02:56:43.851647","","","","","","",""
11.0,0.04993702471256256,0.0017238672881917032,"train",12120.0,"2021-11-22 02:56:48.913228","","","","","","",""
11.0,0.08518769592046738,0.001726489947885131,"train",12140.0,"2021-11-22 02:56:53.875574","","","","","","",""
11.0,0.09935665130615234,0.0017291021638348543,"train",12160.0,"2021-11-22 02:56:58.863422","","","","","","",""
11.0,0.06711087375879288,0.0017317038963005765,"train",12180.0,"2021-11-22 02:57:03.830411","","","","","","",""
11.0,0.08039723336696625,0.00173429510570149,"train",12200.0,"2021-11-22 02:57:09.330832","","","","","","",""
11.0,0.06507440656423569,0.0017368757526168759,"train",12220.0,"2021-11-22 02:57:14.275105","","","","","","",""
11.0,0.05170932412147522,0.0017394457977867057,"train",12240.0,"2021-11-22 02:57:19.307076","","","","","","",""
11.0,0.06993948668241501,0.0017420052021122378,"train",12260.0,"2021-11-22 02:57:24.443201","","","","","","",""
11.0,0.07771321386098862,0.0017445539266566128,"train",12280.0,"2021-11-22 02:57:30.211090","","","","","","",""
11.0,0.05628716200590134,0.001747091932645445,"train",12300.0,"2021-11-22 02:57:35.191973","","","","","","",""
11.0,0.0631154403090477,0.0017496191814674125,"train",12320.0,"2021-11-22 02:57:40.100445","","","","","","",""
11.0,0.08740486204624176,0.001752135634674846,"train",12340.0,"2021-11-22 02:57:44.981639","","","","","","",""
11.0,0.043761372566223145,0.0017546412539843118,"train",12360.0,"2021-11-22 02:57:49.848407","","","","","","",""
11.0,0.05114472657442093,0.001757136001277194,"train",12380.0,"2021-11-22 02:57:55.414407","","","","","","",""
11.0,0.05305515602231026,0.001759619838600278,"train",12400.0,"2021-11-22 02:58:00.313205","","","","","","",""
11.0,0.06760422885417938,0.0017620927281663229,"train",12420.0,"2021-11-22 02:58:05.254690","","","","","","",""
11.0,0.0505293644964695,0.0017645546323546398,"train",12440.0,"2021-11-22 02:58:10.186336","","","","","","",""
11.0,0.04214185103774071,0.0017670055137116636,"train",12460.0,"2021-11-22 02:58:15.049675","","","","","","",""
11.0,0.04037977755069733,0.0017694453349515209,"train",12480.0,"2021-11-22 02:58:20.478563","","","","","","",""
11.0,0.08747140318155289,0.0017718740589566,"train",12500.0,"2021-11-22 02:58:25.424167","","","","","","",""
11.0,0.04183700680732727,0.0017742916487781134,"train",12520.0,"2021-11-22 02:58:30.373460","","","","","","",""
11.0,0.060358453541994095,0.0017766980676366608,"train",12540.0,"2021-11-22 02:58:35.283570","","","","","","",""
11.0,0.04885575920343399,0.001779093278922789,"train",12560.0,"2021-11-22 02:58:40.194094","","","","","","",""
11.0,0.07396214455366135,0.001781477246197548,"train",12580.0,"2021-11-22 02:58:45.745965","","","","","","",""
11.0,0.03704475983977318,0.0017838499331930462,"train",12600.0,"2021-11-22 02:58:50.652975","","","","","","",""
11.0,0.027465300634503365,0.001786211303813001,"train",12620.0,"2021-11-22 02:58:55.629725","","","","","","",""
11.0,0.04607265815138817,0.0017885613221332894,"train",12640.0,"2021-11-22 02:59:00.706463","","","","","","",""
11.0,0.0867605060338974,0.0017908999524024931,"train",12660.0,"2021-11-22 02:59:05.745812","","","","","","",""
11.0,0.05446260794997215,0.0017932271590424438,"train",12680.0,"2021-11-22 02:59:11.243506","","","","","","",""
11.0,0.06766632944345474,0.0017955429066487635,"train",12700.0,"2021-11-22 02:59:16.138273","","","","","","",""
11.0,0.06341324746608734,0.0017978471599914025,"train",12720.0,"2021-11-22 02:59:21.104769","","","","","","",""
11.0,0.038536496460437775,0.0018001398840151778,"train",12740.0,"2021-11-22 02:59:26.074710","","","","","","",""
11.0,0.04299048334360123,0.0018024210438403031,"train",12760.0,"2021-11-22 02:59:30.997891","","","","","","",""
11.0,0.049109332263469696,0.0018046906047629228,"train",12780.0,"2021-11-22 02:59:36.421737","","","","","","",""
11.0,0.04173840582370758,0.0018069485322556372,"train",12800.0,"2021-11-22 02:59:41.300960","","","","","","",""
11.0,0.04232729226350784,0.001809194791968029,"train",12820.0,"2021-11-22 02:59:46.113988","","","","","","",""
11.0,0.04133021831512451,0.0018114293497271863,"train",12840.0,"2021-11-22 02:59:50.992404","","","","","","",""
11.0,0.07454787194728851,0.0018136521715382218,"train",12860.0,"2021-11-22 02:59:55.861753","","","","","","",""
11.0,0.05978885293006897,0.0018158632235847892,"train",12880.0,"2021-11-22 03:00:01.401397","","","","","","",""
11.0,"","","train",12888.0,"2021-11-22 03:01:57.037635",0.6252346649203231,0.644687959151353,0.9617853743940785,0.6489200236905235,0.5167174976964248,0.5471771222906376,0.3574500781357282
11.0,"","","val",12888.0,"2021-11-22 03:02:28.669255",0.6033283080134524,0.6064228472356973,0.9533132175704975,0.6229157631642085,0.487666728235553,0.5155984174539227,0.32846194436326825
12.0,0.04063023254275322,0.0018180624722295999,"train",12900.0,"2021-11-22 03:02:34.914444","","","","","","",""
12.0,0.0352172926068306,0.001820249884014933,"train",12920.0,"2021-11-22 03:02:39.978680","","","","","","",""
12.0,0.06805752962827682,0.001822425425663144,"train",12940.0,"2021-11-22 03:02:45.027952","","","","","","",""
12.0,0.042437609285116196,0.0018245890640771725,"train",12960.0,"2021-11-22 03:02:50.006792","","","","","","",""
12.0,0.0561273992061615,0.0018267407663410452,"train",12980.0,"2021-11-22 03:02:55.689200","","","","","","",""
12.0,0.052529025822877884,0.0018288804997203755,"train",13000.0,"2021-11-22 03:03:00.593512","","","","","","",""
12.0,0.07642648369073868,0.0018310082316628634,"train",13020.0,"2021-11-22 03:03:05.731855","","","","","","",""
12.0,0.06247236952185631,0.0018331239297987893,"train",13040.0,"2021-11-22 03:03:10.828839","","","","","","",""
12.0,0.05028574541211128,0.0018352275619415066,"train",13060.0,"2021-11-22 03:03:15.856250","","","","","","",""
12.0,0.044906243681907654,0.0018373190960879326,"train",13080.0,"2021-11-22 03:03:21.488925","","","","","","",""
12.0,0.05767582356929779,0.0018393985004190336,"train",13100.0,"2021-11-22 03:03:26.559120","","","","","","",""
12.0,0.041428785771131516,0.00184146574330031,"train",13120.0,"2021-11-22 03:03:31.574467","","","","","","",""
12.0,0.08388950675725937,0.001843520793282278,"train",13140.0,"2021-11-22 03:03:36.467977","","","","","","",""
12.0,0.06810170412063599,0.0018455636191009464,"train",13160.0,"2021-11-22 03:03:42.007399","","","","","","",""
12.0,0.04995771870017052,0.001847594189678294,"train",13180.0,"2021-11-22 03:03:46.964129","","","","","","",""
12.0,0.05382508784532547,0.0018496124741227415,"train",13200.0,"2021-11-22 03:03:51.893359","","","","","","",""
12.0,0.09570468962192535,0.001851618441729622,"train",13220.0,"2021-11-22 03:03:56.866769","","","","","","",""
12.0,0.06674216687679291,0.0018536120619816467,"train",13240.0,"2021-11-22 03:04:01.823536","","","","","","",""
12.0,0.042657505720853806,0.0018555933045493712,"train",13260.0,"2021-11-22 03:04:07.443344","","","","","","",""
12.0,0.044882189482450485,0.0018575621392916554,"train",13280.0,"2021-11-22 03:04:12.449931","","","","","","",""
12.0,0.03481074795126915,0.0018595185362561225,"train",13300.0,"2021-11-22 03:04:17.456184","","","","","","",""
12.0,0.04169713333249092,0.0018614624656796155,"train",13320.0,"2021-11-22 03:04:22.446652","","","","","","",""
12.0,0.06607361882925034,0.0018633938979886484,"train",13340.0,"2021-11-22 03:04:27.367903","","","","","","",""
12.0,0.05617743358016014,0.0018653128037998568,"train",13360.0,"2021-11-22 03:04:32.906630","","","","","","",""
12.0,0.051423486322164536,0.0018672191539204459,"train",13380.0,"2021-11-22 03:04:37.836779","","","","","","",""
12.0,0.04049922153353691,0.0018691129193486335,"train",13400.0,"2021-11-22 03:04:42.715391","","","","","","",""
12.0,0.0380488745868206,0.0018709940712740908,"train",13420.0,"2021-11-22 03:04:47.738020","","","","","","",""
12.0,0.05252650007605553,0.0018728625810783823,"train",13440.0,"2021-11-22 03:04:52.735188","","","","","","",""
12.0,0.05639057233929634,0.0018747184203353996,"train",13460.0,"2021-11-22 03:04:58.286148","","","","","","",""
12.0,0.039009641855955124,0.0018765615608117947,"train",13480.0,"2021-11-22 03:05:03.205211","","","","","","",""
12.0,0.05227288231253624,0.0018783919744674096,"train",13500.0,"2021-11-22 03:05:08.158193","","","","","","",""
12.0,0.0677483081817627,0.0018802096334557027,"train",13520.0,"2021-11-22 03:05:13.111315","","","","","","",""
12.0,0.06965328752994537,0.0018820145101241712,"train",13540.0,"2021-11-22 03:05:18.142881","","","","","","",""
12.0,0.06789937615394592,0.0018838065770147745,"train",13560.0,"2021-11-22 03:05:23.720622","","","","","","",""
12.0,0.05930067598819733,0.0018855858068643496,"train",13580.0,"2021-11-22 03:05:28.692511","","","","","","",""
12.0,0.07512421160936356,0.001887352172605026,"train",13600.0,"2021-11-22 03:05:33.693297","","","","","","",""
12.0,0.04176813364028931,0.0018891056473646398,"train",13620.0,"2021-11-22 03:05:38.723668","","","","","","",""
12.0,0.05919067934155464,0.0018908462044671395,"train",13640.0,"2021-11-22 03:05:43.809696","","","","","","",""
12.0,0.0800510123372078,0.001892573817432993,"train",13660.0,"2021-11-22 03:05:49.267046","","","","","","",""
12.0,0.05745283514261246,0.0018942884599795914,"train",13680.0,"2021-11-22 03:05:54.150908","","","","","","",""
12.0,0.07996821403503418,0.001895990106021648,"train",13700.0,"2021-11-22 03:05:59.007535","","","","","","",""
12.0,0.055091749876737595,0.0018976787296715943,"train",13720.0,"2021-11-22 03:06:03.858305","","","","","","",""
12.0,0.06802220642566681,0.0018993543052399757,"train",13740.0,"2021-11-22 03:06:08.759383","","","","","","",""
12.0,0.06745461374521255,0.0019010168072358413,"train",13760.0,"2021-11-22 03:06:14.266033","","","","","","",""
12.0,0.04378826171159744,0.0019026662103671305,"train",13780.0,"2021-11-22 03:06:19.207988","","","","","","",""
12.0,0.03953329101204872,0.0019043024895410605,"train",13800.0,"2021-11-22 03:06:24.136481","","","","","","",""
12.0,0.03528580069541931,0.001905925619864506,"train",13820.0,"2021-11-22 03:06:29.168720","","","","","","",""
12.0,0.07093419134616852,0.001907535576644378,"train",13840.0,"2021-11-22 03:06:34.852251","","","","","","",""
12.0,0.04497076943516731,0.0019091323353880008,"train",13860.0,"2021-11-22 03:06:39.913662","","","","","","",""
12.0,0.043025705963373184,0.0019107158718034828,"train",13880.0,"2021-11-22 03:06:44.894355","","","","","","",""
12.0,0.07848677784204483,0.001912286161800088,"train",13900.0,"2021-11-22 03:06:49.860666","","","","","","",""
12.0,0.06154203787446022,0.0019138431814886008,"train",13920.0,"2021-11-22 03:06:54.863160","","","","","","",""
12.0,0.06768805533647537,0.0019153869071816896,"train",13940.0,"2021-11-22 03:07:00.472961","","","","","","",""
12.0,0.06094307079911232,0.0019169173153942693,"train",13960.0,"2021-11-22 03:07:05.420387","","","","","","",""
12.0,"","","train",13962.0,"2021-11-22 03:08:59.736393",0.599810812777414,0.628142299614525,0.956312349019112,0.6063603213352583,0.5190512921658239,0.5341199274454209,0.3462841304356043
12.0,"","","val",13962.0,"2021-11-22 03:09:31.054873",0.5845993273802621,0.5872228703455432,0.9473299604537349,0.5841329108846248,0.489562849530044,0.5023115769749854,0.3193025565209377
13.0,0.04925468936562538,0.0019184343828438557,"train",13980.0,"2021-11-22 03:09:38.767517","","","","","","",""
13.0,0.04650096595287323,0.0019199380864509208,"train",14000.0,"2021-11-22 03:09:43.859456","","","","","","",""
13.0,0.05141020193696022,0.0019214284033392457,"train",14020.0,"2021-11-22 03:09:48.957030","","","","","","",""
13.0,0.05891357362270355,0.0019229053108362649,"train",14040.0,"2021-11-22 03:09:54.686232","","","","","","",""
13.0,0.04048829525709152,0.0019243687864734145,"train",14060.0,"2021-11-22 03:09:59.744657","","","","","","",""
13.0,0.06686508655548096,0.0019258188079864732,"train",14080.0,"2021-11-22 03:10:04.886198","","","","","","",""
13.0,0.061716023832559586,0.0019272553533158999,"train",14100.0,"2021-11-22 03:10:09.997295","","","","","","",""
13.0,0.05160403624176979,0.0019286784006071697,"train",14120.0,"2021-11-22 03:10:14.926008","","","","","","",""
13.0,0.04720550402998924,0.0019300879282111083,"train",14140.0,"2021-11-22 03:10:20.385545","","","","","","",""
13.0,0.049412380903959274,0.0019314839146842185,"train",14160.0,"2021-11-22 03:10:25.270080","","","","","","",""
13.0,0.053015660494565964,0.0019328663387890076,"train",14180.0,"2021-11-22 03:10:30.330667","","","","","","",""
13.0,0.05283671244978905,0.0019342351794943119,"train",14200.0,"2021-11-22 03:10:35.280204","","","","","","",""
13.0,0.07708679884672165,0.0019355904159756138,"train",14220.0,"2021-11-22 03:10:40.210717","","","","","","",""
13.0,0.04821544513106346,0.0019369320276153613,"train",14240.0,"2021-11-22 03:10:45.700647","","","","","","",""
13.0,0.04989026486873627,0.00193825999400328,"train",14260.0,"2021-11-22 03:10:50.768410","","","","","","",""
13.0,0.029792452231049538,0.0019395742949366843,"train",14280.0,"2021-11-22 03:10:55.768213","","","","","","",""
13.0,0.07468964904546738,0.0019408749104207845,"train",14300.0,"2021-11-22 03:11:00.792594","","","","","","",""
13.0,0.03825388103723526,0.0019421618206689913,"train",14320.0,"2021-11-22 03:11:05.727727","","","","","","",""
13.0,0.07688139379024506,0.0019434350061032163,"train",14340.0,"2021-11-22 03:11:11.225082","","","","","","",""
13.0,0.06907033920288086,0.0019446944473541703,"train",14360.0,"2021-11-22 03:11:16.082213","","","","","","",""
13.0,0.039309579879045486,0.0019459401252616573,"train",14380.0,"2021-11-22 03:11:20.947506","","","","","","",""
13.0,0.04398740455508232,0.001947172020874868,"train",14400.0,"2021-11-22 03:11:25.859562","","","","","","",""
13.0,0.07145370543003082,0.0019483901154526647,"train",14420.0,"2021-11-22 03:11:30.787049","","","","","","",""
13.0,0.03545529395341873,0.0019495943904638694,"train",14440.0,"2021-11-22 03:11:36.276302","","","","","","",""
13.0,0.06604722887277603,0.0019507848275875444,"train",14460.0,"2021-11-22 03:11:41.202777","","","","","","",""
13.0,0.03819608688354492,0.0019519614087132712,"train",14480.0,"2021-11-22 03:11:46.233274","","","","","","",""
13.0,0.039265383034944534,0.0019531241159414263,"train",14500.0,"2021-11-22 03:11:51.187838","","","","","","",""
13.0,0.04387952759861946,0.001954272931583453,"train",14520.0,"2021-11-22 03:11:56.117044","","","","","","",""
13.0,0.04224282130599022,0.0019554078381621306,"train",14540.0,"2021-11-22 03:12:01.611450","","","","","","",""
13.0,0.08370427042245865,0.0019565288184118417,"train",14560.0,"2021-11-22 03:12:06.563732","","","","","","",""
13.0,0.06450925767421722,0.0019576358552788314,"train",14580.0,"2021-11-22 03:12:11.458006","","","","","","",""
13.0,0.04191754385828972,0.0019587289319214713,"train",14600.0,"2021-11-22 03:12:16.381220","","","","","","",""
13.0,0.06303533911705017,0.0019598080317105113,"train",14620.0,"2021-11-22 03:12:21.968948","","","","","","",""
13.0,0.05103191360831261,0.001960873138229337,"train",14640.0,"2021-11-22 03:12:26.910804","","","","","","",""
13.0,0.05494168400764465,0.0019619242352742153,"train",14660.0,"2021-11-22 03:12:31.787182","","","","","","",""
13.0,0.0526551753282547,0.001962961306854543,"train",14680.0,"2021-11-22 03:12:36.743551","","","","","","",""
13.0,0.036438219249248505,0.0019639843371930905,"train",14700.0,"2021-11-22 03:12:41.739262","","","","","","",""
13.0,0.03899364545941353,0.001964993310726241,"train",14720.0,"2021-11-22 03:12:47.224304","","","","","","",""
13.0,0.04047597199678421,0.0019659882121042262,"train",14740.0,"2021-11-22 03:12:52.121375","","","","","","",""
13.0,0.0388663187623024,0.001966969026191363,"train",14760.0,"2021-11-22 03:12:56.957975","","","","","","",""
13.0,0.05759008601307869,0.0019679357380662805,"train",14780.0,"2021-11-22 03:13:01.784165","","","","","","",""
13.0,0.059536680579185486,0.001968888333022148,"train",14800.0,"2021-11-22 03:13:06.640361","","","","","","",""
13.0,0.07980702817440033,0.0019698267965669,"train",14820.0,"2021-11-22 03:13:12.104362","","","","","","",""
13.0,0.05805099382996559,0.0019707511144234557,"train",14840.0,"2021-11-22 03:13:17.137524","","","","","","",""
13.0,0.04383781552314758,0.001971661272529935,"train",14860.0,"2021-11-22 03:13:22.142071","","","","","","",""
13.0,0.04398398473858833,0.001972557257039875,"train",14880.0,"2021-11-22 03:13:27.101063","","","","","","",""
13.0,0.09036488085985184,0.0019734390543224385,"train",14900.0,"2021-11-22 03:13:32.061840","","","","","","",""
13.0,0.05424686148762703,0.001974306650962622,"train",14920.0,"2021-11-22 03:13:37.705083","","","","","","",""
13.0,0.052596304565668106,0.0019751600337614608,"train",14940.0,"2021-11-22 03:13:42.798354","","","","","","",""
13.0,0.08734831213951111,0.0019759991897362284,"train",14960.0,"2021-11-22 03:13:47.856693","","","","","","",""
13.0,0.07525834441184998,0.0019768241061206343,"train",14980.0,"2021-11-22 03:13:52.884725","","","","","","",""
13.0,0.04371383786201477,0.0019776347703650186,"train",15000.0,"2021-11-22 03:13:57.902095","","","","","","",""
13.0,0.05089651793241501,0.001978431170136543,"train",15020.0,"2021-11-22 03:14:03.396803","","","","","","",""
13.0,"","","train",15036.0,"2021-11-22 03:16:04.560622",0.6335880084406607,0.6676802536347238,0.9656321626282628,0.6650245348311513,0.5672651669377339,0.5875104340648118,0.39307758685681554
13.0,"","","val",15036.0,"2021-11-22 03:16:34.920066",0.615736982488693,0.624874589181369,0.9594464693070807,0.6376909719001999,0.5345480368705894,0.5552481469678855,0.3599249945310149
14.0,0.05773389711976051,0.0019792132933193784,"train",15040.0,"2021-11-22 03:16:38.972227","","","","","","",""
14.0,0.04796934872865677,0.001979981128014888,"train",15060.0,"2021-11-22 03:16:43.988362","","","","","","",""
14.0,0.06204256787896156,0.001980734662541811,"train",15080.0,"2021-11-22 03:16:48.891039","","","","","","",""
14.0,0.06021663174033165,0.0019814738854364374,"train",15100.0,"2021-11-22 03:16:53.790464","","","","","","",""
14.0,0.059678446501493454,0.0019821987854527832,"train",15120.0,"2021-11-22 03:16:59.411444","","","","","","",""
14.0,0.04249657317996025,0.0019829093515627634,"train",15140.0,"2021-11-22 03:17:04.364551","","","","","","",""
14.0,0.05020781233906746,0.001983605572956358,"train",15160.0,"2021-11-22 03:17:09.394023","","","","","","",""
14.0,0.04415964335203171,0.001984287439041775,"train",15180.0,"2021-11-22 03:17:14.488797","","","","","","",""
14.0,0.061994221061468124,0.001984954939445616,"train",15200.0,"2021-11-22 03:17:19.536569","","","","","","",""
14.0,0.07811130583286285,0.0019856080640130295,"train",15220.0,"2021-11-22 03:17:25.171306","","","","","","",""
14.0,0.02894042246043682,0.0019862468028078676,"train",15240.0,"2021-11-22 03:17:30.144484","","","","","","",""
14.0,0.04486417397856712,0.001986871146112837,"train",15260.0,"2021-11-22 03:17:35.055460","","","","","","",""
14.0,0.04949497804045677,0.0019874810844296466,"train",15280.0,"2021-11-22 03:17:39.982925","","","","","","",""
14.0,0.06440431624650955,0.0019880766084791517,"train",15300.0,"2021-11-22 03:17:44.980914","","","","","","",""
14.0,0.04212065413594246,0.0019886577092014953,"train",15320.0,"2021-11-22 03:17:50.482852","","","","","","",""
14.0,0.03668161481618881,0.001989224377756247,"train",15340.0,"2021-11-22 03:17:55.353364","","","","","","",""
14.0,0.06346416473388672,0.0019897766055225353,"train",15360.0,"2021-11-22 03:18:00.235454","","","","","","",""
14.0,0.044328249990940094,0.0019903143840991813,"train",15380.0,"2021-11-22 03:18:05.147833","","","","","","",""
14.0,0.08814658224582672,0.0019908377053048246,"train",15400.0,"2021-11-22 03:18:10.240773","","","","","","",""
14.0,0.0431780181825161,0.001991346561178048,"train",15420.0,"2021-11-22 03:18:15.726239","","","","","","",""
14.0,0.08157143741846085,0.0019918409439775003,"train",15440.0,"2021-11-22 03:18:20.609470","","","","","","",""
14.0,0.04483923688530922,0.0019923208461820117,"train",15460.0,"2021-11-22 03:18:25.460045","","","","","","",""
14.0,0.0343024842441082,0.001992786260490709,"train",15480.0,"2021-11-22 03:18:30.351106","","","","","","",""
14.0,0.0652516633272171,0.0019932371798231287,"train",15500.0,"2021-11-22 03:18:35.345605","","","","","","",""
14.0,0.0875319167971611,0.0019936735973193212,"train",15520.0,"2021-11-22 03:18:40.972909","","","","","","",""
14.0,0.04098577797412872,0.001994095506339958,"train",15540.0,"2021-11-22 03:18:45.952684","","","","","","",""
14.0,0.062421705573797226,0.001994502900466431,"train",15560.0,"2021-11-22 03:18:50.985401","","","","","","",""
14.0,0.06500385701656342,0.0019948957735009517,"train",15580.0,"2021-11-22 03:18:55.927032","","","","","","",""
14.0,0.06522268056869507,0.0019952741194666436,"train",15600.0,"2021-11-22 03:19:01.605157","","","","","","",""
14.0,0.07412081211805344,0.0019956379326076354,"train",15620.0,"2021-11-22 03:19:06.647408","","","","","","",""
14.0,0.039262864738702774,0.001995987207389146,"train",15640.0,"2021-11-22 03:19:11.668506","","","","","","",""
14.0,0.0320337638258934,0.0019963219384975706,"train",15660.0,"2021-11-22 03:19:16.674473","","","","","","",""
14.0,0.041296202689409256,0.001996642120840561,"train",15680.0,"2021-11-22 03:19:21.582459","","","","","","",""
14.0,0.0611330009996891,0.001996947749547103,"train",15700.0,"2021-11-22 03:19:26.968327","","","","","","",""
14.0,0.07768414914608002,0.0019972388199675905,"train",15720.0,"2021-11-22 03:19:31.847272","","","","","","",""
14.0,0.061186812818050385,0.001997515327673896,"train",15740.0,"2021-11-22 03:19:36.716590","","","","","","",""
14.0,0.06339633464813232,0.0019977772684594388,"train",15760.0,"2021-11-22 03:19:41.652775","","","","","","",""
14.0,0.0569186732172966,0.0019980246383392475,"train",15780.0,"2021-11-22 03:19:46.674796","","","","","","",""
14.0,0.07025203853845596,0.0019982574335500225,"train",15800.0,"2021-11-22 03:19:52.361308","","","","","","",""
14.0,0.04482220113277435,0.001998475650550192,"train",15820.0,"2021-11-22 03:19:57.326314","","","","","","",""
14.0,0.05243132263422012,0.0019986792860199657,"train",15840.0,"2021-11-22 03:20:02.171288","","","","","","",""
14.0,0.031218547374010086,0.001998868336861386,"train",15860.0,"2021-11-22 03:20:07.129151","","","","","","",""
14.0,0.06927218288183212,0.001999042800198376,"train",15880.0,"2021-11-22 03:20:12.205883","","","","","","",""
14.0,0.04919752851128578,0.00199920267337678,"train",15900.0,"2021-11-22 03:20:17.821108","","","","","","",""
14.0,0.04599665477871895,0.0019993479539644077,"train",15920.0,"2021-11-22 03:20:22.867154","","","","","","",""
14.0,0.05529360845685005,0.0019994786397510697,"train",15940.0,"2021-11-22 03:20:27.949567","","","","","","",""
14.0,0.05043819546699524,0.0019995947287486096,"train",15960.0,"2021-11-22 03:20:32.905609","","","","","","",""
14.0,0.04887073114514351,0.0019996962191909367,"train",15980.0,"2021-11-22 03:20:37.811432","","","","","","",""
14.0,0.090573251247406,0.0019997831095340513,"train",16000.0,"2021-11-22 03:20:43.426681","","","","","","",""
14.0,0.04673897102475166,0.001999855398456069,"train",16020.0,"2021-11-22 03:20:48.279432","","","","","","",""
14.0,0.036837100982666016,0.00199991308485724,"train",16040.0,"2021-11-22 03:20:53.182166","","","","","","",""
14.0,0.04355979710817337,0.001999956167859967,"train",16060.0,"2021-11-22 03:20:58.164790","","","","","","",""
14.0,0.046439219266176224,0.0019999846468088172,"train",16080.0,"2021-11-22 03:21:03.078560","","","","","","",""
14.0,0.055492594838142395,0.0019999985212705335,"train",16100.0,"2021-11-22 03:21:08.564810","","","","","","",""
14.0,"","","train",16110.0,"2021-11-22 03:23:05.729202",0.6466710325256494,0.679952645914372,0.9687409825844736,0.6871289402194619,0.578888156413299,0.6017421810548036,0.40764211630249964
14.0,"","","val",16110.0,"2021-11-22 03:23:35.782395",0.6247825582743824,0.6286436156206261,0.9589582872155076,0.6578017795106484,0.5455997528330164,0.5660260959695808,0.3738755827299269
15.0,0.04751091077923775,0.0019999995774202316,"train",16120.0,"2021-11-22 03:23:41.440161","","","","","","",""
15.0,0.050135523080825806,0.0019999966438102564,"train",16140.0,"2021-11-22 03:23:46.475220","","","","","","",""
15.0,0.039010267704725266,0.0019999909162942875,"train",16160.0,"2021-11-22 03:23:51.425547","","","","","","",""
15.0,0.03908194229006767,0.001999982394888327,"train",16180.0,"2021-11-22 03:23:56.397289","","","","","","",""
15.0,0.050518736243247986,0.0019999710796161823,"train",16200.0,"2021-11-22 03:24:02.162341","","","","","","",""
15.0,0.042989786714315414,0.0019999569705094686,"train",16220.0,"2021-11-22 03:24:07.220030","","","","","","",""
15.0,0.06095579266548157,0.001999940067607605,"train",16240.0,"2021-11-22 03:24:12.240357","","","","","","",""
15.0,0.050848521292209625,0.001999920370957817,"train",16260.0,"2021-11-22 03:24:17.186596","","","","","","",""
15.0,0.043795760720968246,0.0019998978806151355,"train",16280.0,"2021-11-22 03:24:22.114290","","","","","","",""
15.0,0.061999909579753876,0.0019998725966423976,"train",16300.0,"2021-11-22 03:24:27.582318","","","","","","",""
15.0,0.04332108050584793,0.001999844519110244,"train",16320.0,"2021-11-22 03:24:32.533168","","","","","","",""
15.0,0.048316072672605515,0.001999813648097122,"train",16340.0,"2021-11-22 03:24:37.488785","","","","","","",""
15.0,0.05475278198719025,0.001999779983689282,"train",16360.0,"2021-11-22 03:24:42.555808","","","","","","",""
15.0,0.030351713299751282,0.0019997435259807806,"train",16380.0,"2021-11-22 03:24:48.320603","","","","","","",""
15.0,0.0541018545627594,0.001999704275073478,"train",16400.0,"2021-11-22 03:24:53.332790","","","","","","",""
15.0,0.054745085537433624,0.0019996622310770383,"train",16420.0,"2021-11-22 03:24:58.406527","","","","","","",""
15.0,0.04914729669690132,0.0019996173941089286,"train",16440.0,"2021-11-22 03:25:03.403625","","","","","","",""
15.0,0.06905858218669891,0.0019995697642944212,"train",16460.0,"2021-11-22 03:25:08.368519","","","","","","",""
15.0,0.0412742905318737,0.0019995193417665894,"train",16480.0,"2021-11-22 03:25:13.885363","","","","","","",""
15.0,0.09225404262542725,0.0019994661266663108,"train",16500.0,"2021-11-22 03:25:18.867955","","","","","","",""
15.0,0.05366991460323334,0.001999410119142264,"train",16520.0,"2021-11-22 03:25:24.071698","","","","","","",""
15.0,0.053955744951963425,0.0019993513193509297,"train",16540.0,"2021-11-22 03:25:29.180148","","","","","","",""
15.0,0.0665963813662529,0.0019992897274565906,"train",16560.0,"2021-11-22 03:25:34.263249","","","","","","",""
15.0,0.03739776089787483,0.0019992253436313303,"train",16580.0,"2021-11-22 03:25:39.958766","","","","","","",""
15.0,0.040704626590013504,0.0019991581680550313,"train",16600.0,"2021-11-22 03:25:44.948028","","","","","","",""
15.0,0.043307993561029434,0.0019990882009153785,"train",16620.0,"2021-11-22 03:25:49.975386","","","","","","",""
15.0,0.0478055477142334,0.001999015442407854,"train",16640.0,"2021-11-22 03:25:54.938351","","","","","","",""
15.0,0.0333564467728138,0.0019989398927357403,"train",16660.0,"2021-11-22 03:25:59.888506","","","","","","",""
15.0,0.05923577398061752,0.0019988615521101174,"train",16680.0,"2021-11-22 03:26:05.351482","","","","","","",""
15.0,0.0747639611363411,0.0019987804207498637,"train",16700.0,"2021-11-22 03:26:10.369784","","","","","","",""
15.0,0.03316766768693924,0.0019986964988816533,"train",16720.0,"2021-11-22 03:26:15.371495","","","","","","",""
15.0,0.060045965015888214,0.0019986097867399585,"train",16740.0,"2021-11-22 03:26:20.279889","","","","","","",""
15.0,0.0322265625,0.0019985202845670463,"train",16760.0,"2021-11-22 03:26:25.184951","","","","","","",""
15.0,0.04677071049809456,0.0019984279926129798,"train",16780.0,"2021-11-22 03:26:30.856492","","","","","","",""
15.0,0.04031568393111229,0.001998332911135615,"train",16800.0,"2021-11-22 03:26:35.849170","","","","","","",""
15.0,0.029420331120491028,0.0019982350404006036,"train",16820.0,"2021-11-22 03:26:40.833735","","","","","","",""
15.0,0.05020682513713837,0.0019981343806813883,"train",16840.0,"2021-11-22 03:26:45.784674","","","","","","",""
15.0,0.08055739849805832,0.001998030932259205,"train",16860.0,"2021-11-22 03:26:50.858711","","","","","","",""
15.0,0.04440857842564583,0.0019979246954230823,"train",16880.0,"2021-11-22 03:26:56.537104","","","","","","",""
15.0,0.053772103041410446,0.0019978156704698363,"train",16900.0,"2021-11-22 03:27:01.678328","","","","","","",""
15.0,0.03276385739445686,0.001997703857704076,"train",16920.0,"2021-11-22 03:27:06.738557","","","","","","",""
15.0,0.038624536246061325,0.0019975892574381976,"train",16940.0,"2021-11-22 03:27:11.598626","","","","","","",""
15.0,0.03696810081601143,0.001997471869992386,"train",16960.0,"2021-11-22 03:27:16.467550","","","","","","",""
15.0,0.039714615792036057,0.0019973516956946127,"train",16980.0,"2021-11-22 03:27:21.982851","","","","","","",""
15.0,0.08590597659349442,0.0019972287348806366,"train",17000.0,"2021-11-22 03:27:26.928603","","","","","","",""
15.0,0.02563324011862278,0.0019971029878940003,"train",17020.0,"2021-11-22 03:27:31.827972","","","","","","",""
15.0,0.05340414494276047,0.0019969744550860317,"train",17040.0,"2021-11-22 03:27:36.681959","","","","","","",""
15.0,0.029704563319683075,0.0019968431368158433,"train",17060.0,"2021-11-22 03:27:41.615533","","","","","","",""
15.0,0.051823463290929794,0.001996709033450327,"train",17080.0,"2021-11-22 03:27:47.072229","","","","","","",""
15.0,0.05691489204764366,0.0019965721453641585,"train",17100.0,"2021-11-22 03:27:52.020385","","","","","","",""
15.0,0.0497775636613369,0.0019964324729397935,"train",17120.0,"2021-11-22 03:27:56.907025","","","","","","",""
15.0,0.03237328678369522,0.0019962900165674657,"train",17140.0,"2021-11-22 03:28:01.805616","","","","","","",""
15.0,0.045562054961919785,0.0019961447766451887,"train",17160.0,"2021-11-22 03:28:07.313652","","","","","","",""
15.0,0.05617200955748558,0.001995996753578751,"train",17180.0,"2021-11-22 03:28:12.200643","","","","","","",""
15.0,"","","train",17184.0,"2021-11-22 03:30:08.285380",0.6348686604089354,0.6823574558215788,0.9691539624780544,0.6789570615488998,0.5696770721218074,0.5843615757912991,0.3985935304030694
15.0,"","","val",17184.0,"2021-11-22 03:30:39.751038",0.6104603966137075,0.6357284743585736,0.9602902800558173,0.6474608345076593,0.5371069745557061,0.5501028583286682,0.36193001739714464
16.0,0.033011239022016525,0.001995845947781719,"train",17200.0,"2021-11-22 03:30:46.950464","","","","","","",""
16.0,0.043364979326725006,0.001995692359675433,"train",17220.0,"2021-11-22 03:30:52.070732","","","","","","",""
16.0,0.04266166687011719,0.0019955359896890066,"train",17240.0,"2021-11-22 03:30:57.077654","","","","","","",""
16.0,0.04177571460604668,0.0019953768382593258,"train",17260.0,"2021-11-22 03:31:02.692951","","","","","","",""
16.0,0.036230094730854034,0.0019952149058310486,"train",17280.0,"2021-11-22 03:31:07.688304","","","","","","",""
16.0,0.038482774049043655,0.001995050192856602,"train",17300.0,"2021-11-22 03:31:12.662158","","","","","","",""
16.0,0.033621564507484436,0.001994882699796182,"train",17320.0,"2021-11-22 03:31:17.626803","","","","","","",""
16.0,0.05026790872216225,0.001994712427117752,"train",17340.0,"2021-11-22 03:31:22.503452","","","","","","",""
16.0,0.04941551759839058,0.0019945393752970413,"train",17360.0,"2021-11-22 03:31:28.026432","","","","","","",""
16.0,0.04013429209589958,0.001994363544817544,"train",17380.0,"2021-11-22 03:31:33.063209","","","","","","",""
16.0,0.045172203332185745,0.001994184936170517,"train",17400.0,"2021-11-22 03:31:38.155668","","","","","","",""
16.0,0.036395639181137085,0.0019940035498549804,"train",17420.0,"2021-11-22 03:31:43.137085","","","","","","",""
16.0,0.05229548364877701,0.0019938193863777145,"train",17440.0,"2021-11-22 03:31:48.066154","","","","","","",""
16.0,0.07167156785726547,0.001993632446253258,"train",17460.0,"2021-11-22 03:31:53.743160","","","","","","",""
16.0,0.03962727263569832,0.0019934427300039074,"train",17480.0,"2021-11-22 03:31:58.692248","","","","","","",""
16.0,0.03863576799631119,0.001993250238159717,"train",17500.0,"2021-11-22 03:32:03.638827","","","","","","",""
16.0,0.06720259040594101,0.0019930549712584944,"train",17520.0,"2021-11-22 03:32:08.714876","","","","","","",""
16.0,0.03946000337600708,0.001992856929845801,"train",17540.0,"2021-11-22 03:32:13.742955","","","","","","",""
16.0,0.06112018600106239,0.0019926561144749497,"train",17560.0,"2021-11-22 03:32:19.329921","","","","","","",""
16.0,0.05356137827038765,0.001992452525707004,"train",17580.0,"2021-11-22 03:32:24.289226","","","","","","",""
16.0,0.048693157732486725,0.0019922461641107767,"train",17600.0,"2021-11-22 03:32:29.274760","","","","","","",""
16.0,0.04580596461892128,0.001992037030262826,"train",17620.0,"2021-11-22 03:32:34.295185","","","","","","",""
16.0,0.06689677387475967,0.0019918251247474567,"train",17640.0,"2021-11-22 03:32:39.308897","","","","","","",""
16.0,0.05707386136054993,0.001991610448156718,"train",17660.0,"2021-11-22 03:32:44.786735","","","","","","",""
16.0,0.050950098782777786,0.0019913930010903996,"train",17680.0,"2021-11-22 03:32:49.731143","","","","","","",""
16.0,0.0546514168381691,0.001991172784156033,"train",17700.0,"2021-11-22 03:32:54.653269","","","","","","",""
16.0,0.04523240774869919,0.0019909497979688877,"train",17720.0,"2021-11-22 03:32:59.560686","","","","","","",""
16.0,0.0561826191842556,0.0019907240431519713,"train",17740.0,"2021-11-22 03:33:04.528366","","","","","","",""
16.0,0.034034598618745804,0.001990495520336026,"train",17760.0,"2021-11-22 03:33:10.022153","","","","","","",""
16.0,0.042245447635650635,0.0019902642301595284,"train",17780.0,"2021-11-22 03:33:14.941818","","","","","","",""
16.0,0.037102993577718735,0.001990030173268685,"train",17800.0,"2021-11-22 03:33:20.014642","","","","","","",""
16.0,0.04258079081773758,0.0019897933503174345,"train",17820.0,"2021-11-22 03:33:25.107952","","","","","","",""
16.0,0.045105963945388794,0.0019895537619674425,"train",17840.0,"2021-11-22 03:33:30.227104","","","","","","",""
16.0,0.049403734505176544,0.001989311408888101,"train",17860.0,"2021-11-22 03:33:35.881356","","","","","","",""
16.0,0.06882394850254059,0.001989066291756527,"train",17880.0,"2021-11-22 03:33:40.909359","","","","","","",""
16.0,0.03359685093164444,0.00198881841125756,"train",17900.0,"2021-11-22 03:33:45.858486","","","","","","",""
16.0,0.03856416419148445,0.0019885677680837595,"train",17920.0,"2021-11-22 03:33:50.848732","","","","","","",""
16.0,0.03303012251853943,0.001988314362935404,"train",17940.0,"2021-11-22 03:33:56.303883","","","","","","",""
16.0,0.04196606203913689,0.0019880581965204896,"train",17960.0,"2021-11-22 03:34:01.256046","","","","","","",""
16.0,0.036292802542448044,0.0019877992695547255,"train",17980.0,"2021-11-22 03:34:06.222138","","","","","","",""
16.0,0.047873105853796005,0.0019875375827615354,"train",18000.0,"2021-11-22 03:34:11.179003","","","","","","",""
16.0,0.06496338546276093,0.0019872731368720527,"train",18020.0,"2021-11-22 03:34:16.039856","","","","","","",""
16.0,0.054759711027145386,0.00198700593262512,"train",18040.0,"2021-11-22 03:34:21.540211","","","","","","",""
16.0,0.04741265997290611,0.001986735970767286,"train",18060.0,"2021-11-22 03:34:26.527486","","","","","","",""
16.0,0.06784568727016449,0.001986463252052804,"train",18080.0,"2021-11-22 03:34:31.421315","","","","","","",""
16.0,0.033455006778240204,0.0019861877772436305,"train",18100.0,"2021-11-22 03:34:36.333021","","","","","","",""
16.0,0.07112138718366623,0.001985909547109422,"train",18120.0,"2021-11-22 03:34:41.212119","","","","","","",""
16.0,0.03325337544083595,0.001985628562427533,"train",18140.0,"2021-11-22 03:34:47.022139","","","","","","",""
16.0,0.0628686174750328,0.001985344823983014,"train",18160.0,"2021-11-22 03:34:52.262433","","","","","","",""
16.0,0.05746528133749962,0.001985058332568609,"train",18180.0,"2021-11-22 03:34:57.325137","","","","","","",""
16.0,0.0643683597445488,0.001984769088984755,"train",18200.0,"2021-11-22 03:35:02.285582","","","","","","",""
16.0,0.042769961059093475,0.001984477094039576,"train",18220.0,"2021-11-22 03:35:07.280862","","","","","","",""
16.0,0.035296838730573654,0.001984182348548885,"train",18240.0,"2021-11-22 03:35:12.748614","","","","","","",""
16.0,"","","train",18258.0,"2021-11-22 03:37:11.907088",0.6483882703921997,0.7002333539310767,0.972718046190522,0.6755698378200238,0.5935652370221178,0.6216438074594772,0.416298170533681
16.0,"","","val",18258.0,"2021-11-22 03:37:42.199677",0.6246086048938885,0.6418729458439056,0.9631498024185873,0.6436737755881788,0.5560428004046242,0.584184223028031,0.377556029866871
17.0,0.04926684498786926,0.00198388485333618,"train",18260.0,"2021-11-22 03:37:45.760450","","","","","","",""
17.0,0.08808664232492447,0.0019835846092326396,"train",18280.0,"2021-11-22 03:37:50.797144","","","","","","",""
17.0,0.042362745851278305,0.0019832816170771246,"train",18300.0,"2021-11-22 03:37:55.735581","","","","","","",""
17.0,0.07415397465229034,0.001982975877716172,"train",18320.0,"2021-11-22 03:38:00.808898","","","","","","",""
17.0,0.03919626772403717,0.0019826673920039957,"train",18340.0,"2021-11-22 03:38:06.565694","","","","","","",""
17.0,0.04866144061088562,0.0019823561608024822,"train",18360.0,"2021-11-22 03:38:11.659896","","","","","","",""
17.0,0.06484703719615936,0.0019820421849811886,"train",18380.0,"2021-11-22 03:38:16.613468","","","","","","",""
17.0,0.04120373725891113,0.0019817254654173402,"train",18400.0,"2021-11-22 03:38:21.555383","","","","","","",""
17.0,0.04588443785905838,0.0019814060029958278,"train",18420.0,"2021-11-22 03:38:26.441090","","","","","","",""
17.0,0.03482700139284134,0.001981083798609206,"train",18440.0,"2021-11-22 03:38:31.932445","","","","","","",""
17.0,0.04152017831802368,0.0019807588531576908,"train",18460.0,"2021-11-22 03:38:36.902947","","","","","","",""
17.0,0.027867620810866356,0.0019804311675491555,"train",18480.0,"2021-11-22 03:38:41.940652","","","","","","",""
17.0,0.0652681291103363,0.00198010074269913,"train",18500.0,"2021-11-22 03:38:46.957954","","","","","","",""
17.0,0.04627115651965141,0.0019797675795307965,"train",18520.0,"2021-11-22 03:38:51.961624","","","","","","",""
17.0,0.04892055690288544,0.0019794316789749885,"train",18540.0,"2021-11-22 03:38:57.591944","","","","","","",""
17.0,0.04939545691013336,0.0019790930419701877,"train",18560.0,"2021-11-22 03:39:02.663950","","","","","","",""
17.0,0.04291210323572159,0.0019787516694625214,"train",18580.0,"2021-11-22 03:39:07.717545","","","","","","",""
17.0,0.055204641073942184,0.0019784075624057584,"train",18600.0,"2021-11-22 03:39:12.736668","","","","","","",""
17.0,0.029294095933437347,0.0019780607217613094,"train",18620.0,"2021-11-22 03:39:17.643527","","","","","","",""
17.0,0.037000931799411774,0.001977711148498221,"train",18640.0,"2021-11-22 03:39:23.106360","","","","","","",""
17.0,0.03362669050693512,0.0019773588435931756,"train",18660.0,"2021-11-22 03:39:27.964023","","","","","","",""
17.0,0.035532135516405106,0.0019770038080304873,"train",18680.0,"2021-11-22 03:39:32.962943","","","","","","",""
17.0,0.033971965312957764,0.001976646042802099,"train",18700.0,"2021-11-22 03:39:37.926281","","","","","","",""
17.0,0.03464598208665848,0.0019762855489075808,"train",18720.0,"2021-11-22 03:39:42.964500","","","","","","",""
17.0,0.040866293013095856,0.001975922327354126,"train",18740.0,"2021-11-22 03:39:48.621092","","","","","","",""
17.0,0.04072071984410286,0.001975556379156549,"train",18760.0,"2021-11-22 03:39:53.699335","","","","","","",""
17.0,0.046440161764621735,0.0019751877053372823,"train",18780.0,"2021-11-22 03:39:58.718242","","","","","","",""
17.0,0.04139857366681099,0.001974816306926373,"train",18800.0,"2021-11-22 03:40:03.790349","","","","","","",""
17.0,0.046224888414144516,0.001974442184961482,"train",18820.0,"2021-11-22 03:40:08.852240","","","","","","",""
17.0,0.039651405066251755,0.0019740653404878776,"train",18840.0,"2021-11-22 03:40:14.497629","","","","","","",""
17.0,0.07135429233312607,0.0019736857745584362,"train",18860.0,"2021-11-22 03:40:19.508943","","","","","","",""
17.0,0.041348397731781006,0.0019733034882336367,"train",18880.0,"2021-11-22 03:40:24.531415","","","","","","",""
17.0,0.043534133583307266,0.0019729184825815586,"train",18900.0,"2021-11-22 03:40:29.594002","","","","","","",""
17.0,0.060308054089546204,0.0019725307586778806,"train",18920.0,"2021-11-22 03:40:35.188882","","","","","","",""
17.0,0.038747429847717285,0.001972140317605874,"train",18940.0,"2021-11-22 03:40:40.249343","","","","","","",""
17.0,0.0577501617372036,0.0019717471604564028,"train",18960.0,"2021-11-22 03:40:45.323877","","","","","","",""
17.0,0.07847269624471664,0.0019713512883279185,"train",18980.0,"2021-11-22 03:40:50.242744","","","","","","",""
17.0,0.03996237739920616,0.00197095270232646,"train",19000.0,"2021-11-22 03:40:55.241662","","","","","","",""
17.0,0.05656348168849945,0.001970551403565646,"train",19020.0,"2021-11-22 03:41:00.896273","","","","","","",""
17.0,0.04777638986706734,0.0019701473931666765,"train",19040.0,"2021-11-22 03:41:05.826724","","","","","","",""
17.0,0.07918737083673477,0.001969740672258327,"train",19060.0,"2021-11-22 03:41:10.731289","","","","","","",""
17.0,0.03968696668744087,0.0019693312419769454,"train",19080.0,"2021-11-22 03:41:15.652830","","","","","","",""
17.0,0.04991692304611206,0.0019689191034664498,"train",19100.0,"2021-11-22 03:41:20.711304","","","","","","",""
17.0,0.05378533527255058,0.0019685042578783257,"train",19120.0,"2021-11-22 03:41:26.224206","","","","","","",""
17.0,0.049239691346883774,0.00196808670637162,"train",19140.0,"2021-11-22 03:41:31.403387","","","","","","",""
17.0,0.04833574220538139,0.001967666450112942,"train",19160.0,"2021-11-22 03:41:36.570124","","","","","","",""
17.0,0.05672223120927811,0.001967243490276456,"train",19180.0,"2021-11-22 03:41:41.492560","","","","","","",""
17.0,0.03398016467690468,0.0019668178280438818,"train",19200.0,"2021-11-22 03:41:46.385982","","","","","","",""
17.0,0.052187230437994,0.0019663894646044875,"train",19220.0,"2021-11-22 03:41:51.863011","","","","","","",""
17.0,0.06905868649482727,0.001965958401155089,"train",19240.0,"2021-11-22 03:41:56.951806","","","","","","",""
17.0,0.03516606613993645,0.0019655246389000463,"train",19260.0,"2021-11-22 03:42:01.967539","","","","","","",""
17.0,0.03339393809437752,0.0019650881790512597,"train",19280.0,"2021-11-22 03:42:06.945069","","","","","","",""
17.0,0.06609225273132324,0.001964649022828165,"train",19300.0,"2021-11-22 03:42:11.832176","","","","","","",""
17.0,0.04491234943270683,0.0019642071714577325,"train",19320.0,"2021-11-22 03:42:17.391150","","","","","","",""
17.0,"","","train",19332.0,"2021-11-22 03:44:19.343899",0.656959906861675,0.7040221839648476,0.972666675170927,0.6907682746967727,0.5906814314013404,0.6252951727301755,0.4152469720691895
17.0,"","","val",19332.0,"2021-11-22 03:44:51.733288",0.6255363562565233,0.6498687345594782,0.9632109839934095,0.6538242484399723,0.5482369193954738,0.5831352405073222,0.36990054165222747
18.0,0.040507722645998,0.0019637626261744634,"train",19340.0,"2021-11-22 03:44:56.886531","","","","","","",""
18.0,0.05427763611078262,0.001963315388220384,"train",19360.0,"2021-11-22 03:45:01.756468","","","","","","",""
18.0,0.042302243411540985,0.0019628654588450443,"train",19380.0,"2021-11-22 03:45:06.610824","","","","","","",""
18.0,0.04693232476711273,0.001962412839305514,"train",19400.0,"2021-11-22 03:45:11.510826","","","","","","",""
18.0,0.03568365424871445,0.0019619575308663785,"train",19420.0,"2021-11-22 03:45:17.047184","","","","","","",""
18.0,0.03429146483540535,0.001961499534799737,"train",19440.0,"2021-11-22 03:45:21.898389","","","","","","",""
18.0,0.042066555470228195,0.001961038852385196,"train",19460.0,"2021-11-22 03:45:26.797277","","","","","","",""
18.0,0.034758638590574265,0.0019605754849098683,"train",19480.0,"2021-11-22 03:45:31.849934","","","","","","",""
18.0,0.053959574550390244,0.0019601094336683693,"train",19500.0,"2021-11-22 03:45:36.777217","","","","","","",""
18.0,0.05437256023287773,0.0019596406999628116,"train",19520.0,"2021-11-22 03:45:42.310998","","","","","","",""
18.0,0.04026458039879799,0.0019591692851028022,"train",19540.0,"2021-11-22 03:45:47.162840","","","","","","",""
18.0,0.06243663653731346,0.001958695190405441,"train",19560.0,"2021-11-22 03:45:52.105931","","","","","","",""
18.0,0.03974340483546257,0.001958218417195312,"train",19580.0,"2021-11-22 03:45:57.065227","","","","","","",""
18.0,0.03830624371767044,0.001957738966804486,"train",19600.0,"2021-11-22 03:46:02.662367","","","","","","",""
18.0,0.04033206030726433,0.001957256840572511,"train",19620.0,"2021-11-22 03:46:07.723940","","","","","","",""
18.0,0.043669626116752625,0.0019567720398464133,"train",19640.0,"2021-11-22 03:46:12.723731","","","","","","",""
18.0,0.049266014248132706,0.00195628456598069,"train",19660.0,"2021-11-22 03:46:17.641509","","","","","","",""
18.0,0.039412472397089005,0.001955794420337307,"train",19680.0,"2021-11-22 03:46:22.532234","","","","","","",""
18.0,0.03732183948159218,0.0019553016042856957,"train",19700.0,"2021-11-22 03:46:27.941653","","","","","","",""
18.0,0.05924030765891075,0.001954806119202748,"train",19720.0,"2021-11-22 03:46:32.836006","","","","","","",""
18.0,0.0332120917737484,0.001954307966472812,"train",19740.0,"2021-11-22 03:46:37.856048","","","","","","",""
18.0,0.032635774463415146,0.0019538071474876914,"train",19760.0,"2021-11-22 03:46:42.763320","","","","","","",""
18.0,0.05188561975955963,0.001953303663646636,"train",19780.0,"2021-11-22 03:46:47.638134","","","","","","",""
18.0,0.07920917123556137,0.0019527975163563436,"train",19800.0,"2021-11-22 03:46:53.217952","","","","","","",""
18.0,0.04280694201588631,0.0019522887070309524,"train",19820.0,"2021-11-22 03:46:58.184828","","","","","","",""
18.0,0.040459513664245605,0.0019517772370920379,"train",19840.0,"2021-11-22 03:47:03.459180","","","","","","",""
18.0,0.03742754086852074,0.0019512631079686104,"train",19860.0,"2021-11-22 03:47:08.381036","","","","","","",""
18.0,0.05243954434990883,0.001950746321097108,"train",19880.0,"2021-11-22 03:47:13.299254","","","","","","",""
18.0,0.03476202115416527,0.0019502268779213957,"train",19900.0,"2021-11-22 03:47:18.868010","","","","","","",""
18.0,0.03506599739193916,0.0019497047798927598,"train",19920.0,"2021-11-22 03:47:23.806129","","","","","","",""
18.0,0.056685879826545715,0.001949180028469903,"train",19940.0,"2021-11-22 03:47:28.698807","","","","","","",""
18.0,0.060829225927591324,0.0019486526251189435,"train",19960.0,"2021-11-22 03:47:33.769658","","","","","","",""
18.0,0.06844307482242584,0.0019481225713134064,"train",19980.0,"2021-11-22 03:47:38.868950","","","","","","",""
18.0,0.04376799985766411,0.0019475898685342235,"train",20000.0,"2021-11-22 03:47:44.418018","","","","","","",""
18.0,0.06345280259847641,0.0019470545182697272,"train",20020.0,"2021-11-22 03:47:49.276254","","","","","","",""
18.0,0.04565756767988205,0.001946516522015647,"train",20040.0,"2021-11-22 03:47:54.187865","","","","","","",""
18.0,0.06468876451253891,0.0019459758812751047,"train",20060.0,"2021-11-22 03:47:59.089935","","","","","","",""
18.0,0.043923720717430115,0.0019454325975586106,"train",20080.0,"2021-11-22 03:48:04.038329","","","","","","",""
18.0,0.06078542023897171,0.0019448866723840602,"train",20100.0,"2021-11-22 03:48:09.655431","","","","","","",""
18.0,0.061061564832925797,0.001944338107276728,"train",20120.0,"2021-11-22 03:48:14.598068","","","","","","",""
18.0,0.03632478043437004,0.0019437869037692644,"train",20140.0,"2021-11-22 03:48:19.500170","","","","","","",""
18.0,0.04659383371472359,0.0019432330634016912,"train",20160.0,"2021-11-22 03:48:24.372142","","","","","","",""
18.0,0.04702933132648468,0.0019426765877213986,"train",20180.0,"2021-11-22 03:48:29.352262","","","","","","",""
18.0,0.07098686695098877,0.0019421174782831383,"train",20200.0,"2021-11-22 03:48:34.917640","","","","","","",""
