"epoch","loss","lr","part","step","time","accuracy","auprc","auroc","challenge_metric","f_beta_measure","f_measure","g_beta_measure"
0.0,0.46369826793670654,8.000730236035311e-05,"train",20.0,"2021-11-25 07:47:58.847720","","","","","","",""
0.0,0.27136674523353577,8.002920933031948e-05,"train",40.0,"2021-11-25 07:48:02.062949","","","","","","",""
0.0,0.12166260182857513,8.006572057662293e-05,"train",60.0,"2021-11-25 07:48:05.764530","","","","","","",""
0.0,0.12245194613933563,8.011683554380914e-05,"train",80.0,"2021-11-25 07:48:08.983933","","","","","","",""
0.0,0.1315556764602661,8.018255345425274e-05,"train",100.0,"2021-11-25 07:48:12.211520","","","","","","",""
0.0,0.14570334553718567,8.026287330817079e-05,"train",120.0,"2021-11-25 07:48:15.465222","","","","","","",""
0.0,0.12089376151561737,8.03577938836373e-05,"train",140.0,"2021-11-25 07:48:19.080494","","","","","","",""
0.0,0.12612579762935638,8.04673137366021e-05,"train",160.0,"2021-11-25 07:48:22.335501","","","","","","",""
0.0,0.13125912845134735,8.059143120091187e-05,"train",180.0,"2021-11-25 07:48:25.591062","","","","","","",""
0.0,0.1322019398212433,8.073014438833613e-05,"train",200.0,"2021-11-25 07:48:28.748273","","","","","","",""
0.0,0.11177856475114822,8.088345118859724e-05,"train",220.0,"2021-11-25 07:48:32.386216","","","","","","",""
0.0,0.12722429633140564,8.10513492693996e-05,"train",240.0,"2021-11-25 07:48:35.639963","","","","","","",""
0.0,0.11774107813835144,8.123383607646804e-05,"train",260.0,"2021-11-25 07:48:38.715793","","","","","","",""
0.0,0.10837001353502274,8.143090883358495e-05,"train",280.0,"2021-11-25 07:48:41.774360","","","","","","",""
0.0,0.1274029165506363,8.164256454263295e-05,"train",300.0,"2021-11-25 07:48:45.244931","","","","","","",""
0.0,0.11417915672063828,8.186879998364088e-05,"train",320.0,"2021-11-25 07:48:48.257717","","","","","","",""
0.0,0.10640403628349304,8.210961171483213e-05,"train",340.0,"2021-11-25 07:48:51.301443","","","","","","",""
0.0,0.12783873081207275,8.236499607267717e-05,"train",360.0,"2021-11-25 07:48:54.502568","","","","","","",""
0.0,0.11555776745080948,8.26349491719505e-05,"train",380.0,"2021-11-25 07:48:58.034733","","","","","","",""
0.0,0.12783949077129364,8.291946690578713e-05,"train",400.0,"2021-11-25 07:49:01.263183","","","","","","",""
0.0,0.12203360348939896,8.321854494574774e-05,"train",420.0,"2021-11-25 07:49:04.562292","","","","","","",""
0.0,0.11623964458703995,8.353217874188293e-05,"train",440.0,"2021-11-25 07:49:07.807648","","","","","","",""
0.0,0.12766477465629578,8.38603635228035e-05,"train",460.0,"2021-11-25 07:49:11.086334","","","","","","",""
0.0,0.1050635427236557,8.420309429575212e-05,"train",480.0,"2021-11-25 07:49:14.713715","","","","","","",""
0.0,0.09723003208637238,8.456036584667914e-05,"train",500.0,"2021-11-25 07:49:17.980188","","","","","","",""
0.0,0.10710914433002472,8.493217274032315e-05,"train",520.0,"2021-11-25 07:49:21.240440","","","","","","",""
0.0,0.10704708844423294,8.531850932029235e-05,"train",540.0,"2021-11-25 07:49:24.497510","","","","","","",""
0.0,0.12018890678882599,8.571936970915212e-05,"train",560.0,"2021-11-25 07:49:28.014911","","","","","","",""
0.0,0.10792272537946701,8.613474780851246e-05,"train",580.0,"2021-11-25 07:49:31.231570","","","","","","",""
0.0,0.11923570185899734,8.656463729912224e-05,"train",600.0,"2021-11-25 07:49:34.511554","","","","","","",""
0.0,0.11024139076471329,8.700903164096468e-05,"train",620.0,"2021-11-25 07:49:37.784070","","","","","","",""
0.0,0.11849873512983322,8.746792407335769e-05,"train",640.0,"2021-11-25 07:49:41.380162","","","","","","",""
0.0,0.09904617816209793,8.794130761505497e-05,"train",660.0,"2021-11-25 07:49:44.626605","","","","","","",""
0.0,0.08668801933526993,8.842917506435462e-05,"train",680.0,"2021-11-25 07:49:47.885745","","","","","","",""
0.0,0.09118135273456573,8.893151899920645e-05,"train",700.0,"2021-11-25 07:49:51.144736","","","","","","",""
0.0,0.09809131175279617,8.944833177732632e-05,"train",720.0,"2021-11-25 07:49:54.794083","","","","","","",""
0.0,0.10642144083976746,8.997960553631186e-05,"train",740.0,"2021-11-25 07:49:58.043340","","","","","","",""
0.0,0.09694068878889084,9.052533219376224e-05,"train",760.0,"2021-11-25 07:50:01.302039","","","","","","",""
0.0,0.10501792281866074,9.108550344740104e-05,"train",780.0,"2021-11-25 07:50:04.561855","","","","","","",""
0.0,0.10829636454582214,9.166011077520208e-05,"train",800.0,"2021-11-25 07:50:08.160642","","","","","","",""
0.0,0.12741388380527496,9.224914543552059e-05,"train",820.0,"2021-11-25 07:50:11.411123","","","","","","",""
0.0,0.08867790549993515,9.285259846722417e-05,"train",840.0,"2021-11-25 07:50:14.656605","","","","","","",""
0.0,0.10285929590463638,9.34704606898307e-05,"train",860.0,"2021-11-25 07:50:17.894196","","","","","","",""
0.0,0.11689905822277069,9.410272270364735e-05,"train",880.0,"2021-11-25 07:50:21.111454","","","","","","",""
0.0,0.09556378424167633,9.474937488991348e-05,"train",900.0,"2021-11-25 07:50:24.640885","","","","","","",""
0.0,0.08944375067949295,9.541040741094719e-05,"train",920.0,"2021-11-25 07:50:27.757127","","","","","","",""
0.0,0.09772005677223206,9.608581021029522e-05,"train",940.0,"2021-11-25 07:50:30.890537","","","","","","",""
0.0,0.09302645921707153,9.677557301288509e-05,"train",960.0,"2021-11-25 07:50:34.082726","","","","","","",""
0.0,0.0825469046831131,9.747968532518238e-05,"train",980.0,"2021-11-25 07:50:37.668596","","","","","","",""
0.0,0.09809014946222305,9.819813643535029e-05,"train",1000.0,"2021-11-25 07:50:40.895545","","","","","","",""
0.0,0.09741043299436569,9.893091541341185e-05,"train",1020.0,"2021-11-25 07:50:44.154432","","","","","","",""
0.0,0.08481588959693909,9.967801111141644e-05,"train",1040.0,"2021-11-25 07:50:47.410838","","","","","","",""
0.0,0.09358946233987808,0.00010043941216361023,"train",1060.0,"2021-11-25 07:50:50.947607","","","","","","",""
0.0,"","","train",1074.0,"2021-11-25 07:52:20.860431",0.40903732809430254,0.2309478467588098,0.7942558775890416,0.30053432032748095,0.149834462321377,0.1416365962725092,0.09933458371718411
0.0,"","","val",1074.0,"2021-11-25 07:52:44.356089",0.4047895164096022,0.22746537043205575,0.798349794328626,0.29754390588687823,0.14963381350563576,0.140984682779591,0.09859217522830417
1.0,0.11682198196649551,0.00010121510698660771,"train",1080.0,"2021-11-25 07:52:47.597302","","","","","","",""
1.0,0.0854995846748352,0.00010200508377956928,"train",1100.0,"2021-11-25 07:52:50.793175","","","","","","",""
1.0,0.08006592094898224,0.00010280933052437993,"train",1120.0,"2021-11-25 07:52:53.874441","","","","","","",""
1.0,0.07462678104639053,0.00010362783498583223,"train",1140.0,"2021-11-25 07:52:57.452799","","","","","","",""
1.0,0.08249900490045547,0.0001044605847118124,"train",1160.0,"2021-11-25 07:53:00.709150","","","","","","",""
1.0,0.09497296810150146,0.0001053075670334907,"train",1180.0,"2021-11-25 07:53:03.995158","","","","","","",""
1.0,0.10511011630296707,0.00010616876906551181,"train",1200.0,"2021-11-25 07:53:07.247302","","","","","","",""
1.0,0.08721210807561874,0.0001070441777061941,"train",1220.0,"2021-11-25 07:53:10.841539","","","","","","",""
1.0,0.09638931602239609,0.00010793377963772563,"train",1240.0,"2021-11-25 07:53:14.102589","","","","","","",""
1.0,0.1144203469157219,0.0001088375613263698,"train",1260.0,"2021-11-25 07:53:17.355759","","","","","","",""
1.0,0.07828618586063385,0.00010975550902266908,"train",1280.0,"2021-11-25 07:53:20.491705","","","","","","",""
1.0,0.08242776989936829,0.00011068760876165474,"train",1300.0,"2021-11-25 07:53:24.007119","","","","","","",""
1.0,0.07549333572387695,0.0001116338463630598,"train",1320.0,"2021-11-25 07:53:27.145786","","","","","","",""
1.0,0.10702203214168549,0.00011259420743153455,"train",1340.0,"2021-11-25 07:53:30.303261","","","","","","",""
1.0,0.09012189507484436,0.00011356867735686535,"train",1360.0,"2021-11-25 07:53:33.453848","","","","","","",""
1.0,0.08865970373153687,0.00011455724131419621,"train",1380.0,"2021-11-25 07:53:36.991371","","","","","","",""
1.0,0.08316155523061752,0.00011555988426425654,"train",1400.0,"2021-11-25 07:53:40.227179","","","","","","",""
1.0,0.09046152979135513,0.00011657659095358746,"train",1420.0,"2021-11-25 07:53:43.522931","","","","","","",""
1.0,0.07526810467243195,0.00011760734591477516,"train",1440.0,"2021-11-25 07:53:46.742262","","","","","","",""
1.0,0.08790881186723709,0.00011865213346668618,"train",1460.0,"2021-11-25 07:53:49.775456","","","","","","",""
1.0,0.07196984440088272,0.00011971093771470502,"train",1480.0,"2021-11-25 07:53:53.191525","","","","","","",""
1.0,0.10503163933753967,0.0001207837425509777,"train",1500.0,"2021-11-25 07:53:56.250754","","","","","","",""
1.0,0.10123472660779953,0.00012187053165465503,"train",1520.0,"2021-11-25 07:53:59.373193","","","","","","",""
1.0,0.06662704050540924,0.000122971288492142,"train",1540.0,"2021-11-25 07:54:02.486978","","","","","","",""
1.0,0.07789872586727142,0.00012408599631734863,"train",1560.0,"2021-11-25 07:54:06.034382","","","","","","",""
1.0,0.07107386738061905,0.00012521463817194542,"train",1580.0,"2021-11-25 07:54:09.160630","","","","","","",""
1.0,0.07850104570388794,0.00012635719688562077,"train",1600.0,"2021-11-25 07:54:12.291487","","","","","","",""
1.0,0.10072576254606247,0.00012751365507634267,"train",1620.0,"2021-11-25 07:54:15.396093","","","","","","",""
1.0,0.06310231983661652,0.0001286839951506226,"train",1640.0,"2021-11-25 07:54:18.827803","","","","","","",""
1.0,0.10305159538984299,0.00012986819930378333,"train",1660.0,"2021-11-25 07:54:22.072639","","","","","","",""
1.0,0.07770686596632004,0.00013106624952023064,"train",1680.0,"2021-11-25 07:54:25.317398","","","","","","",""
1.0,0.0859748125076294,0.00013227812757372545,"train",1700.0,"2021-11-25 07:54:28.465456","","","","","","",""
1.0,0.0879439041018486,0.00013350381502766394,"train",1720.0,"2021-11-25 07:54:31.967136","","","","","","",""
1.0,0.073322594165802,0.00013474329323535494,"train",1740.0,"2021-11-25 07:54:35.087835","","","","","","",""
1.0,0.08154419809579849,0.0001359965433403059,"train",1760.0,"2021-11-25 07:54:38.302233","","","","","","",""
1.0,0.07285739481449127,0.00013726354627650872,"train",1780.0,"2021-11-25 07:54:41.537561","","","","","","",""
1.0,0.07880458980798721,0.00013854428276873052,"train",1800.0,"2021-11-25 07:54:45.124037","","","","","","",""
1.0,0.0811973288655281,0.00013983873333280506,"train",1820.0,"2021-11-25 07:54:48.375029","","","","","","",""
1.0,0.08908139914274216,0.00014114687827593156,"train",1840.0,"2021-11-25 07:54:51.624297","","","","","","",""
1.0,0.07230578362941742,0.00014246869769697352,"train",1860.0,"2021-11-25 07:54:54.890635","","","","","","",""
1.0,0.10083351284265518,0.00014380417148676054,"train",1880.0,"2021-11-25 07:54:58.137449","","","","","","",""
1.0,0.07168976217508316,0.00014515327932839404,"train",1900.0,"2021-11-25 07:55:01.730553","","","","","","",""
1.0,0.08340034633874893,0.0001465160006975598,"train",1920.0,"2021-11-25 07:55:04.984076","","","","","","",""
1.0,0.08724910765886307,0.00014789231486283454,"train",1940.0,"2021-11-25 07:55:08.242180","","","","","","",""
1.0,0.08996035903692245,0.00014928220088600633,"train",1960.0,"2021-11-25 07:55:11.481409","","","","","","",""
1.0,0.06716775894165039,0.00015068563762239045,"train",1980.0,"2021-11-25 07:55:15.010825","","","","","","",""
1.0,0.06008865684270859,0.00015210260372115238,"train",2000.0,"2021-11-25 07:55:18.100998","","","","","","",""
1.0,0.0944078117609024,0.00015353307762563115,"train",2020.0,"2021-11-25 07:55:21.141676","","","","","","",""
1.0,0.09840089082717896,0.00015497703757366872,"train",2040.0,"2021-11-25 07:55:24.185236","","","","","","",""
1.0,0.06633277237415314,0.00015643446159794,"train",2060.0,"2021-11-25 07:55:27.627644","","","","","","",""
1.0,0.10461483895778656,0.0001579053275262887,"train",2080.0,"2021-11-25 07:55:30.810004","","","","","","",""
1.0,0.08626752346754074,0.00015938961298206183,"train",2100.0,"2021-11-25 07:55:34.100424","","","","","","",""
1.0,0.07504190504550934,0.00016088729538445297,"train",2120.0,"2021-11-25 07:55:37.315880","","","","","","",""
1.0,0.07996512949466705,0.000162398351948844,"train",2140.0,"2021-11-25 07:55:40.814369","","","","","","",""
1.0,"","","train",2148.0,"2021-11-25 07:57:08.486282",0.4572800698537437,0.3244954058217935,0.8573575476210844,0.387410111760588,0.20007443430576716,0.19604577565524,0.13870687024972106
1.0,"","","val",2148.0,"2021-11-25 07:57:32.019874",0.4516409602226603,0.3205650180743608,0.8582187480918885,0.38129512683676975,0.19740529873680018,0.1948847084312715,0.135653869219781
2.0,0.07579144090414047,0.00016392275968715297,"train",2160.0,"2021-11-25 07:57:36.234090","","","","","","",""
2.0,0.07743782550096512,0.00016546049540818223,"train",2180.0,"2021-11-25 07:57:39.518970","","","","","","",""
2.0,0.07299666851758957,0.00016701153571797313,"train",2200.0,"2021-11-25 07:57:42.763549","","","","","","",""
2.0,0.08485978841781616,0.00016857585702016015,"train",2220.0,"2021-11-25 07:57:46.485319","","","","","","",""
2.0,0.08731745928525925,0.00017015343551633126,"train",2240.0,"2021-11-25 07:57:49.733043","","","","","","",""
2.0,0.0827222466468811,0.0001717442472063892,"train",2260.0,"2021-11-25 07:57:52.979146","","","","","","",""
2.0,0.06881903111934662,0.00017334826788891681,"train",2280.0,"2021-11-25 07:57:56.174685","","","","","","",""
2.0,0.06013290584087372,0.00017496547316154555,"train",2300.0,"2021-11-25 07:57:59.835843","","","","","","",""
2.0,0.06875738501548767,0.00017659583842132573,"train",2320.0,"2021-11-25 07:58:03.079501","","","","","","",""
2.0,0.05755016952753067,0.00017823933886510217,"train",2340.0,"2021-11-25 07:58:06.308275","","","","","","",""
2.0,0.0851244255900383,0.00017989594948989015,"train",2360.0,"2021-11-25 07:58:09.270547","","","","","","",""
2.0,0.09131370484828949,0.00018156564509325753,"train",2380.0,"2021-11-25 07:58:12.611364","","","","","","",""
2.0,0.07675625383853912,0.0001832484002737059,"train",2400.0,"2021-11-25 07:58:15.575525","","","","","","",""
2.0,0.09353398531675339,0.00018494418943105877,"train",2420.0,"2021-11-25 07:58:18.675711","","","","","","",""
2.0,0.07684098929166794,0.00018665298676685078,"train",2440.0,"2021-11-25 07:58:21.810118","","","","","","",""
2.0,0.09917362034320831,0.0001883747662847191,"train",2460.0,"2021-11-25 07:58:24.977438","","","","","","",""
2.0,0.0862802043557167,0.00019010950179080112,"train",2480.0,"2021-11-25 07:58:28.490442","","","","","","",""
2.0,0.07767835259437561,0.00019185716689412995,"train",2500.0,"2021-11-25 07:58:31.641803","","","","","","",""
2.0,0.09450449794530869,0.00019361773500703797,"train",2520.0,"2021-11-25 07:58:34.861322","","","","","","",""
2.0,0.07958553731441498,0.00019539117934556168,"train",2540.0,"2021-11-25 07:58:38.021302","","","","","","",""
2.0,0.07772548496723175,0.00019717747292984696,"train",2560.0,"2021-11-25 07:58:41.651186","","","","","","",""
2.0,0.09481833875179291,0.0001989765885845624,"train",2580.0,"2021-11-25 07:58:44.907009","","","","","","",""
2.0,0.07155973464250565,0.00020078849893931014,"train",2600.0,"2021-11-25 07:58:48.101192","","","","","","",""
2.0,0.07765506953001022,0.0002026131764290434,"train",2620.0,"2021-11-25 07:58:51.285842","","","","","","",""
2.0,0.06653334945440292,0.00020445059329448614,"train",2640.0,"2021-11-25 07:58:54.814624","","","","","","",""
2.0,0.06757161766290665,0.00020630072158255497,"train",2660.0,"2021-11-25 07:58:57.972911","","","","","","",""
2.0,0.0722946748137474,0.00020816353314678467,"train",2680.0,"2021-11-25 07:59:00.937892","","","","","","",""
2.0,0.07837387174367905,0.00021003899964775505,"train",2700.0,"2021-11-25 07:59:03.892822","","","","","","",""
2.0,0.07531620562076569,0.00021192709255352473,"train",2720.0,"2021-11-25 07:59:07.218730","","","","","","",""
2.0,0.0710253119468689,0.00021382778314006255,"train",2740.0,"2021-11-25 07:59:10.182010","","","","","","",""
2.0,0.06693092733621597,0.00021574104249168615,"train",2760.0,"2021-11-25 07:59:13.288635","","","","","","",""
2.0,0.07264836132526398,0.00021766684150150133,"train",2780.0,"2021-11-25 07:59:16.411638","","","","","","",""
2.0,0.06328628957271576,0.00021960515087184485,"train",2800.0,"2021-11-25 07:59:20.037345","","","","","","",""
2.0,0.0699441060423851,0.00022155594111472978,"train",2820.0,"2021-11-25 07:59:23.345197","","","","","","",""
2.0,0.052352920174598694,0.0002235191825522959,"train",2840.0,"2021-11-25 07:59:26.628070","","","","","","",""
2.0,0.07916253060102463,0.00022549484531725838,"train",2860.0,"2021-11-25 07:59:29.913501","","","","","","",""
2.0,0.08173693716526031,0.00022748289935336434,"train",2880.0,"2021-11-25 07:59:33.195572","","","","","","",""
2.0,0.08464692533016205,0.00022948331441584964,"train",2900.0,"2021-11-25 07:59:36.883997","","","","","","",""
2.0,0.06962593644857407,0.00023149606007189785,"train",2920.0,"2021-11-25 07:59:40.057545","","","","","","",""
2.0,0.08818783611059189,0.00023352110570110476,"train",2940.0,"2021-11-25 07:59:43.337943","","","","","","",""
2.0,0.08971570432186127,0.00023555842049594305,"train",2960.0,"2021-11-25 07:59:46.587889","","","","","","",""
2.0,0.10746961832046509,0.00023760797346223305,"train",2980.0,"2021-11-25 07:59:50.230550","","","","","","",""
2.0,0.06794291734695435,0.00023966973341961028,"train",3000.0,"2021-11-25 07:59:53.498659","","","","","","",""
2.0,0.06874063611030579,0.0002417436690020044,"train",3020.0,"2021-11-25 07:59:56.688635","","","","","","",""
2.0,0.07790766656398773,0.00024382974865811325,"train",3040.0,"2021-11-25 07:59:59.965461","","","","","","",""
2.0,0.07158773392438889,0.000245927940651884,"train",3060.0,"2021-11-25 08:00:03.473513","","","","","","",""
2.0,0.08504556119441986,0.0002480382130629953,"train",3080.0,"2021-11-25 08:00:06.565262","","","","","","",""
2.0,0.07730196416378021,0.0002501605337873443,"train",3100.0,"2021-11-25 08:00:09.798142","","","","","","",""
2.0,0.05492400750517845,0.0002522948705375337,"train",3120.0,"2021-11-25 08:00:12.953099","","","","","","",""
2.0,0.046959567815065384,0.00025444119084336303,"train",3140.0,"2021-11-25 08:00:16.525965","","","","","","",""
2.0,0.09297719597816467,0.00025659946205232364,"train",3160.0,"2021-11-25 08:00:19.805712","","","","","","",""
2.0,0.06984717398881912,0.0002587696513300941,"train",3180.0,"2021-11-25 08:00:23.021982","","","","","","",""
2.0,0.06366673111915588,0.0002609517256610412,"train",3200.0,"2021-11-25 08:00:26.285905","","","","","","",""
2.0,0.10817863792181015,0.00026314565184872084,"train",3220.0,"2021-11-25 08:00:29.871424","","","","","","",""
2.0,"","","train",3222.0,"2021-11-25 08:01:57.377186",0.48634213781561525,0.39662116976282336,0.8819806438059505,0.44390565530708137,0.29973032212227596,0.3027692994959728,0.20094087031335442
2.0,"","","val",3222.0,"2021-11-25 08:02:20.795609",0.48243070857010323,0.39052980759937866,0.8781971043256562,0.4359945678838188,0.2953123343484739,0.29630332324800057,0.19729895719361118
3.0,0.08419618755578995,0.0002653513965163838,"train",3240.0,"2021-11-25 08:02:25.909204","","","","","","",""
3.0,0.06646329164505005,0.0002675689261074836,"train",3260.0,"2021-11-25 08:02:29.061147","","","","","","",""
3.0,0.08798971772193909,0.00026979820688618605,"train",3280.0,"2021-11-25 08:02:32.164111","","","","","","",""
3.0,0.0836072489619255,0.00027203920493788433,"train",3300.0,"2021-11-25 08:02:35.414800","","","","","","",""
3.0,0.07272859662771225,0.00027429188616971277,"train",3320.0,"2021-11-25 08:02:39.112692","","","","","","",""
3.0,0.07361550629138947,0.0002765562163110668,"train",3340.0,"2021-11-25 08:02:42.384622","","","","","","",""
3.0,0.06518425047397614,0.00027883216091412503,"train",3360.0,"2021-11-25 08:02:45.687679","","","","","","",""
3.0,0.08165250718593597,0.0002811196853543707,"train",3380.0,"2021-11-25 08:02:49.006374","","","","","","",""
3.0,0.06860657781362534,0.00028341875483112134,"train",3400.0,"2021-11-25 08:02:52.626469","","","","","","",""
3.0,0.059664852917194366,0.00028572933436805644,"train",3420.0,"2021-11-25 08:02:55.859853","","","","","","",""
3.0,0.06968366354703903,0.0002880513888137504,"train",3440.0,"2021-11-25 08:02:59.072391","","","","","","",""
3.0,0.07810702919960022,0.0002903848828422063,"train",3460.0,"2021-11-25 08:03:02.278945","","","","","","",""
3.0,0.059452544897794724,0.00029272978095339465,"train",3480.0,"2021-11-25 08:03:05.841368","","","","","","",""
3.0,0.06552249193191528,0.00029508604747379243,"train",3500.0,"2021-11-25 08:03:09.024743","","","","","","",""
3.0,0.1005091741681099,0.00029745364655692653,"train",3520.0,"2021-11-25 08:03:12.235193","","","","","","",""
3.0,0.0861499235033989,0.0002998325421839181,"train",3540.0,"2021-11-25 08:03:15.439642","","","","","","",""
3.0,0.08950085937976837,0.0003022226981640318,"train",3560.0,"2021-11-25 08:03:18.997602","","","","","","",""
3.0,0.07749460637569427,0.00030462407813522494,"train",3580.0,"2021-11-25 08:03:22.182821","","","","","","",""
3.0,0.0691598653793335,0.0003070366455647027,"train",3600.0,"2021-11-25 08:03:25.391014","","","","","","",""
3.0,0.0763586238026619,0.000309460363749471,"train",3620.0,"2021-11-25 08:03:28.575063","","","","","","",""
3.0,0.08065509051084518,0.0003118951958168978,"train",3640.0,"2021-11-25 08:03:32.190713","","","","","","",""
3.0,0.10047711431980133,0.0003143411047252722,"train",3660.0,"2021-11-25 08:03:35.329962","","","","","","",""
3.0,0.06858235597610474,0.0003167980532643691,"train",3680.0,"2021-11-25 08:03:38.411506","","","","","","",""
3.0,0.07207746058702469,0.0003192660040560141,"train",3700.0,"2021-11-25 08:03:41.459510","","","","","","",""
3.0,0.06252514570951462,0.0003217449195546528,"train",3720.0,"2021-11-25 08:03:44.865580","","","","","","",""
3.0,0.07856550812721252,0.00032423476204792244,"train",3740.0,"2021-11-25 08:03:48.061047","","","","","","",""
3.0,0.0871572196483612,0.0003267354936572248,"train",3760.0,"2021-11-25 08:03:51.217032","","","","","","",""
3.0,0.09752398729324341,0.0003292470763383026,"train",3780.0,"2021-11-25 08:03:54.425746","","","","","","",""
3.0,0.0738765150308609,0.0003317694718818192,"train",3800.0,"2021-11-25 08:03:57.976652","","","","","","",""
3.0,0.05685414746403694,0.00033430264191393853,"train",3820.0,"2021-11-25 08:04:01.154167","","","","","","",""
3.0,0.06771824508905411,0.0003368465478969097,"train",3840.0,"2021-11-25 08:04:04.284944","","","","","","",""
3.0,0.0969613566994667,0.0003394011511296533,"train",3860.0,"2021-11-25 08:04:07.414671","","","","","","",""
3.0,0.07505594193935394,0.0003419664127483496,"train",3880.0,"2021-11-25 08:04:11.026115","","","","","","",""
3.0,0.05524754151701927,0.00034454229372703074,"train",3900.0,"2021-11-25 08:04:14.322522","","","","","","",""
3.0,0.06803041696548462,0.00034712875487817314,"train",3920.0,"2021-11-25 08:04:17.600113","","","","","","",""
3.0,0.08048746734857559,0.00034972575685329526,"train",3940.0,"2021-11-25 08:04:21.224774","","","","","","",""
3.0,0.07835854589939117,0.0003523332601435541,"train",3960.0,"2021-11-25 08:04:24.481525","","","","","","",""
3.0,0.08541342616081238,0.00035495122508034916,"train",3980.0,"2021-11-25 08:04:27.700915","","","","","","",""
3.0,0.06624826043844223,0.0003575796118359231,"train",4000.0,"2021-11-25 08:04:30.864411","","","","","","",""
3.0,0.08688022941350937,0.00036021838042396906,"train",4020.0,"2021-11-25 08:04:34.412398","","","","","","",""
3.0,0.05490069463849068,0.0003628674907002389,"train",4040.0,"2021-11-25 08:04:37.683098","","","","","","",""
3.0,0.06312886625528336,0.00036552690236315395,"train",4060.0,"2021-11-25 08:04:40.798352","","","","","","",""
3.0,0.09745706617832184,0.00036819657495441773,"train",4080.0,"2021-11-25 08:04:43.966030","","","","","","",""
3.0,0.09518777579069138,0.0003708764678596317,"train",4100.0,"2021-11-25 08:04:47.599766","","","","","","",""
3.0,0.071384958922863,0.00037356654030891293,"train",4120.0,"2021-11-25 08:04:50.806580","","","","","","",""
3.0,0.05322592705488205,0.0003762667513775148,"train",4140.0,"2021-11-25 08:04:54.077534","","","","","","",""
3.0,0.07817938178777695,0.0003789770599864498,"train",4160.0,"2021-11-25 08:04:57.757253","","","","","","",""
3.0,0.08711468428373337,0.000381697424903113,"train",4180.0,"2021-11-25 08:05:01.017181","","","","","","",""
3.0,0.06854542344808578,0.0003844278047419108,"train",4200.0,"2021-11-25 08:05:04.285669","","","","","","",""
3.0,0.07305458188056946,0.0003871681579648903,"train",4220.0,"2021-11-25 08:05:07.970666","","","","","","",""
3.0,0.07307741045951843,0.0003899184428823709,"train",4240.0,"2021-11-25 08:05:11.208896","","","","","","",""
3.0,0.07775145024061203,0.0003926786176535783,"train",4260.0,"2021-11-25 08:05:14.331974","","","","","","",""
3.0,0.07465853542089462,0.0003954486402872818,"train",4280.0,"2021-11-25 08:05:17.386755","","","","","","",""
3.0,"","","train",4296.0,"2021-11-25 08:06:48.334256",0.5136287564578331,0.4397622017184502,0.9015757477293853,0.5083491723712112,0.3432787523767544,0.3509031823744989,0.23183756363005342
3.0,"","","val",4296.0,"2021-11-25 08:07:12.148800",0.5067261973791024,0.42588959021830713,0.8966068318920004,0.4976412109076654,0.3363092420307918,0.34115337403815904,0.22489369305769136
4.0,0.07741135358810425,0.0003982284686424324,"train",4300.0,"2021-11-25 08:07:15.056839","","","","","","",""
4.0,0.08047683537006378,0.0004010180604288045,"train",4320.0,"2021-11-25 08:07:18.279964","","","","","","",""
4.0,0.06806618720293045,0.00040381737320763873,"train",4340.0,"2021-11-25 08:07:21.542693","","","","","","",""
4.0,0.06859206408262253,0.0004066263643922878,"train",4360.0,"2021-11-25 08:07:25.116971","","","","","","",""
4.0,0.06884771585464478,0.0004094449912488646,"train",4380.0,"2021-11-25 08:07:28.311323","","","","","","",""
4.0,0.07281053066253662,0.0004122732108968923,"train",4400.0,"2021-11-25 08:07:31.503411","","","","","","",""
4.0,0.0797605887055397,0.0004151109803099558,"train",4420.0,"2021-11-25 08:07:34.691285","","","","","","",""
4.0,0.07022314518690109,0.00041795825631635764,"train",4440.0,"2021-11-25 08:07:38.216472","","","","","","",""
4.0,0.06879705935716629,0.0004208149955997739,"train",4460.0,"2021-11-25 08:07:41.348735","","","","","","",""
4.0,0.07985487580299377,0.0004236811546999141,"train",4480.0,"2021-11-25 08:07:44.478891","","","","","","",""
4.0,0.05699365213513374,0.0004265566900131805,"train",4500.0,"2021-11-25 08:07:48.000369","","","","","","",""
4.0,0.060759201645851135,0.0004294415577933337,"train",4520.0,"2021-11-25 08:07:51.142966","","","","","","",""
4.0,0.06903394311666489,0.00043233571415215717,"train",4540.0,"2021-11-25 08:07:54.250297","","","","","","",""
4.0,0.07722777873277664,0.0004352391150601242,"train",4560.0,"2021-11-25 08:07:57.389267","","","","","","",""
4.0,0.0720406174659729,0.0004381517163470684,"train",4580.0,"2021-11-25 08:08:00.929923","","","","","","",""
4.0,0.0544632151722908,0.00044107347370285683,"train",4600.0,"2021-11-25 08:08:04.085322","","","","","","",""
4.0,0.05593110993504524,0.00044400434267806194,"train",4620.0,"2021-11-25 08:08:07.244994","","","","","","",""
4.0,0.0822354331612587,0.00044694427868463907,"train",4640.0,"2021-11-25 08:08:10.755195","","","","","","",""
4.0,0.09837048500776291,0.00044989323699660467,"train",4660.0,"2021-11-25 08:08:13.894672","","","","","","",""
4.0,0.06263372302055359,0.0004528511727507165,"train",4680.0,"2021-11-25 08:08:17.069344","","","","","","",""
4.0,0.0662703663110733,0.00045581804094715645,"train",4700.0,"2021-11-25 08:08:20.243509","","","","","","",""
4.0,0.051067840307950974,0.00045879379645021425,"train",4720.0,"2021-11-25 08:08:23.745125","","","","","","",""
4.0,0.0649377629160881,0.0004617783939889759,"train",4740.0,"2021-11-25 08:08:26.875014","","","","","","",""
4.0,0.07704328000545502,0.0004647717881580103,"train",4760.0,"2021-11-25 08:08:30.028178","","","","","","",""
4.0,0.06637347489595413,0.0004677739334180617,"train",4780.0,"2021-11-25 08:08:33.546577","","","","","","",""
4.0,0.06471557915210724,0.00047078478409674144,"train",4800.0,"2021-11-25 08:08:36.673705","","","","","","",""
4.0,0.0656551942229271,0.00047380429438922305,"train",4820.0,"2021-11-25 08:08:39.809965","","","","","","",""
4.0,0.0884469524025917,0.00047683241835893946,"train",4840.0,"2021-11-25 08:08:42.925177","","","","","","",""
4.0,0.041988831013441086,0.0004798691099382815,"train",4860.0,"2021-11-25 08:08:46.324649","","","","","","",""
4.0,0.05495689809322357,0.0004829143229292986,"train",4880.0,"2021-11-25 08:08:49.361635","","","","","","",""
4.0,0.06355103105306625,0.0004859680110044023,"train",4900.0,"2021-11-25 08:08:52.522814","","","","","","",""
4.0,0.06797873973846436,0.0004890301277070699,"train",4920.0,"2021-11-25 08:08:56.124866","","","","","","",""
4.0,0.0583854578435421,0.0004921006264525525,"train",4940.0,"2021-11-25 08:08:59.214782","","","","","","",""
4.0,0.07069080322980881,0.0004951794605285824,"train",4960.0,"2021-11-25 08:09:02.346728","","","","","","",""
4.0,0.07049258798360825,0.0004982665830960853,"train",4980.0,"2021-11-25 08:09:05.459967","","","","","","",""
4.0,0.059992268681526184,0.0005013619471898913,"train",5000.0,"2021-11-25 08:09:08.933467","","","","","","",""
4.0,0.07720441371202469,0.0005044655057194504,"train",5020.0,"2021-11-25 08:09:12.053283","","","","","","",""
4.0,0.07391452044248581,0.0005075772114695486,"train",5040.0,"2021-11-25 08:09:15.209258","","","","","","",""
4.0,0.0558500736951828,0.0005106970171010257,"train",5060.0,"2021-11-25 08:09:18.735477","","","","","","",""
4.0,0.08774621784687042,0.0005138248751514966,"train",5080.0,"2021-11-25 08:09:21.956749","","","","","","",""
4.0,0.05033238232135773,0.0005169607380360731,"train",5100.0,"2021-11-25 08:09:25.241529","","","","","","",""
4.0,0.10790044069290161,0.000520104558048086,"train",5120.0,"2021-11-25 08:09:28.606204","","","","","","",""
4.0,0.09026296436786652,0.0005232562873598136,"train",5140.0,"2021-11-25 08:09:32.214293","","","","","","",""
4.0,0.09398818016052246,0.0005264158780232072,"train",5160.0,"2021-11-25 08:09:35.403644","","","","","","",""
4.0,0.07650889456272125,0.0005295832819706228,"train",5180.0,"2021-11-25 08:09:38.619630","","","","","","",""
4.0,0.07157067209482193,0.0005327584510155488,"train",5200.0,"2021-11-25 08:09:42.187319","","","","","","",""
4.0,0.08004244416952133,0.000535941336853343,"train",5220.0,"2021-11-25 08:09:45.389854","","","","","","",""
4.0,0.07852518558502197,0.0005391318910619655,"train",5240.0,"2021-11-25 08:09:48.603596","","","","","","",""
4.0,0.0965791866183281,0.0005423300651027144,"train",5260.0,"2021-11-25 08:09:51.863132","","","","","","",""
4.0,0.09112314134836197,0.0005455358103209663,"train",5280.0,"2021-11-25 08:09:55.470251","","","","","","",""
4.0,0.05858881026506424,0.0005487490779469157,"train",5300.0,"2021-11-25 08:09:58.741616","","","","","","",""
4.0,0.08238299190998077,0.000551969819096316,"train",5320.0,"2021-11-25 08:10:01.992143","","","","","","",""
4.0,0.0619867667555809,0.0005551979847712252,"train",5340.0,"2021-11-25 08:10:05.610297","","","","","","",""
4.0,0.054286591708660126,0.0005584335258607489,"train",5360.0,"2021-11-25 08:10:08.865760","","","","","","",""
4.0,"","","train",5370.0,"2021-11-25 08:11:38.205526",0.5212399039511024,0.46077448782094277,0.9110122150593225,0.51558579627202,0.3607782237741415,0.3698195755128297,0.24633062298566408
4.0,"","","val",5370.0,"2021-11-25 08:12:01.306498",0.5160616954656152,0.4442392526177041,0.9048370036846615,0.5017518015464838,0.348732487766401,0.3555382102542167,0.23599375406336429
5.0,0.05162593722343445,0.0005616763931417894,"train",5380.0,"2021-11-25 08:12:05.227031","","","","","","",""
5.0,0.07192068547010422,0.0005649265372797939,"train",5400.0,"2021-11-25 08:12:08.509721","","","","","","",""
5.0,0.0692763552069664,0.0005681839088295046,"train",5420.0,"2021-11-25 08:12:12.055791","","","","","","",""
5.0,0.04816839471459389,0.0005714484582357109,"train",5440.0,"2021-11-25 08:12:15.167555","","","","","","",""
5.0,0.08594758808612823,0.0005747201358340048,"train",5460.0,"2021-11-25 08:12:18.233958","","","","","","",""
5.0,0.09770388901233673,0.0005779988918515344,"train",5480.0,"2021-11-25 08:12:21.801875","","","","","","",""
5.0,0.06384721398353577,0.0005812846764077623,"train",5500.0,"2021-11-25 08:12:24.946084","","","","","","",""
5.0,0.060949135571718216,0.0005845774395152243,"train",5520.0,"2021-11-25 08:12:28.121869","","","","","","",""
5.0,0.06306516379117966,0.0005878771310802895,"train",5540.0,"2021-11-25 08:12:31.387741","","","","","","",""
5.0,0.08750388026237488,0.0005911837009039229,"train",5560.0,"2021-11-25 08:12:35.061559","","","","","","",""
5.0,0.07351909577846527,0.0005944970986824485,"train",5580.0,"2021-11-25 08:12:38.344360","","","","","","",""
5.0,0.07136064022779465,0.000597817274008315,"train",5600.0,"2021-11-25 08:12:41.629218","","","","","","",""
5.0,0.06885585933923721,0.0006011441763708635,"train",5620.0,"2021-11-25 08:12:44.771229","","","","","","",""
5.0,0.04441926255822182,0.0006044777551570929,"train",5640.0,"2021-11-25 08:12:48.230713","","","","","","",""
5.0,0.06047018989920616,0.000607817959652434,"train",5660.0,"2021-11-25 08:12:51.365723","","","","","","",""
5.0,0.0765305757522583,0.0006111647390415189,"train",5680.0,"2021-11-25 08:12:54.587522","","","","","","",""
5.0,0.08095516264438629,0.0006145180424089525,"train",5700.0,"2021-11-25 08:12:58.239804","","","","","","",""
5.0,0.08422504365444183,0.0006178778187400902,"train",5720.0,"2021-11-25 08:13:01.437356","","","","","","",""
5.0,0.0691291093826294,0.0006212440169218129,"train",5740.0,"2021-11-25 08:13:04.629960","","","","","","",""
5.0,0.07389334589242935,0.0006246165857433027,"train",5760.0,"2021-11-25 08:13:08.255927","","","","","","",""
5.0,0.07087133824825287,0.0006279954738968251,"train",5780.0,"2021-11-25 08:13:11.539052","","","","","","",""
5.0,0.0846877470612526,0.0006313806299785075,"train",5800.0,"2021-11-25 08:13:14.806419","","","","","","",""
5.0,0.06920840591192245,0.0006347720024891209,"train",5820.0,"2021-11-25 08:13:18.079060","","","","","","",""
5.0,0.05613384395837784,0.0006381695398348657,"train",5840.0,"2021-11-25 08:13:21.723515","","","","","","",""
5.0,0.054904766380786896,0.0006415731903281542,"train",5860.0,"2021-11-25 08:13:25.017417","","","","","","",""
5.0,0.09098495543003082,0.0006449829021883979,"train",5880.0,"2021-11-25 08:13:28.247574","","","","","","",""
5.0,0.0979398787021637,0.0006483986235427956,"train",5900.0,"2021-11-25 08:13:31.843274","","","","","","",""
5.0,0.0627971813082695,0.0006518203024271213,"train",5920.0,"2021-11-25 08:13:35.107774","","","","","","",""
5.0,0.08390109986066818,0.0006552478867865169,"train",5940.0,"2021-11-25 08:13:38.340554","","","","","","",""
5.0,0.0512777678668499,0.0006586813244762815,"train",5960.0,"2021-11-25 08:13:41.621078","","","","","","",""
5.0,0.05332569032907486,0.0006621205632626672,"train",5980.0,"2021-11-25 08:13:45.187249","","","","","","",""
5.0,0.0716533437371254,0.0006655655508236717,"train",6000.0,"2021-11-25 08:13:48.486185","","","","","","",""
5.0,0.06628264486789703,0.0006690162347498356,"train",6020.0,"2021-11-25 08:13:51.828602","","","","","","",""
5.0,0.08072107285261154,0.0006724725625450389,"train",6040.0,"2021-11-25 08:13:55.115209","","","","","","",""
5.0,0.06023179739713669,0.0006759344816273003,"train",6060.0,"2021-11-25 08:13:58.772469","","","","","","",""
5.0,0.06701373308897018,0.0006794019393295771,"train",6080.0,"2021-11-25 08:14:01.944741","","","","","","",""
5.0,0.07806463539600372,0.0006828748829005654,"train",6100.0,"2021-11-25 08:14:05.028143","","","","","","",""
5.0,0.054645635187625885,0.0006863532595055041,"train",6120.0,"2021-11-25 08:14:08.470315","","","","","","",""
5.0,0.08614851534366608,0.0006898370162269777,"train",6140.0,"2021-11-25 08:14:11.628233","","","","","","",""
5.0,0.07490750402212143,0.0006933261000657217,"train",6160.0,"2021-11-25 08:14:14.890512","","","","","","",""
5.0,0.05851861089468002,0.000696820457941429,"train",6180.0,"2021-11-25 08:14:18.566923","","","","","","",""
5.0,0.08590289950370789,0.000700320036693557,"train",6200.0,"2021-11-25 08:14:21.840065","","","","","","",""
5.0,0.08157344907522202,0.0007038247830821358,"train",6220.0,"2021-11-25 08:14:24.956527","","","","","","",""
5.0,0.06283773481845856,0.0007073346437885815,"train",6240.0,"2021-11-25 08:14:28.043305","","","","","","",""
5.0,0.07295922189950943,0.000710849565416502,"train",6260.0,"2021-11-25 08:14:31.520394","","","","","","",""
5.0,0.05651172623038292,0.0007143694944925134,"train",6280.0,"2021-11-25 08:14:34.613682","","","","","","",""
5.0,0.03249898925423622,0.0007178943774670524,"train",6300.0,"2021-11-25 08:14:37.736285","","","","","","",""
5.0,0.059880346059799194,0.0007214241607151901,"train",6320.0,"2021-11-25 08:14:41.196428","","","","","","",""
5.0,0.06008797511458397,0.000724958790537449,"train",6340.0,"2021-11-25 08:14:44.429801","","","","","","",""
5.0,0.05903458222746849,0.0007284982131606195,"train",6360.0,"2021-11-25 08:14:47.774820","","","","","","",""
5.0,0.05121369659900665,0.0007320423747385781,"train",6380.0,"2021-11-25 08:14:51.021940","","","","","","",""
5.0,0.10136496275663376,0.0007355912213531054,"train",6400.0,"2021-11-25 08:14:54.516058","","","","","","",""
5.0,0.06164414808154106,0.000739144699014708,"train",6420.0,"2021-11-25 08:14:57.660868","","","","","","",""
5.0,0.06498191505670547,0.0007427027536634401,"train",6440.0,"2021-11-25 08:15:00.757486","","","","","","",""
5.0,"","","train",6444.0,"2021-11-25 08:16:28.220081",0.545936112930219,0.498697809825436,0.9198351593775888,0.541055284639829,0.38656479410921496,0.3945255074121521,0.2647771367754831
5.0,"","","val",6444.0,"2021-11-25 08:16:51.775153",0.5376898991070393,0.4756725247701439,0.9106808069689805,0.5240414107223678,0.3724953570371827,0.37895526748334935,0.24912340371960306
6.0,0.07721272855997086,0.0007462653311697235,"train",6460.0,"2021-11-25 08:16:56.563685","","","","","","",""
6.0,0.04966786876320839,0.0007498323773351733,"train",6480.0,"2021-11-25 08:17:00.189553","","","","","","",""
6.0,0.06644365936517715,0.0007534038378934223,"train",6500.0,"2021-11-25 08:17:03.311068","","","","","","",""
6.0,0.07113166898488998,0.0007569796585109453,"train",6520.0,"2021-11-25 08:17:06.474560","","","","","","",""
6.0,0.04695412144064903,0.0007605597847878862,"train",6540.0,"2021-11-25 08:17:09.903730","","","","","","",""
6.0,0.08463148027658463,0.0007641441622588871,"train",6560.0,"2021-11-25 08:17:12.915408","","","","","","",""
6.0,0.05273732542991638,0.0007677327363939143,"train",6580.0,"2021-11-25 08:17:16.075738","","","","","","",""
6.0,0.05489256978034973,0.0007713254525990895,"train",6600.0,"2021-11-25 08:17:19.568091","","","","","","",""
6.0,0.05654871091246605,0.0007749222562175211,"train",6620.0,"2021-11-25 08:17:22.759868","","","","","","",""
6.0,0.06338649243116379,0.000778523092530133,"train",6640.0,"2021-11-25 08:17:25.983238","","","","","","",""
6.0,0.06781387329101562,0.0007821279067564996,"train",6660.0,"2021-11-25 08:17:29.201625","","","","","","",""
6.0,0.07295689731836319,0.0007857366440556786,"train",6680.0,"2021-11-25 08:17:32.774731","","","","","","",""
6.0,0.06489384174346924,0.0007893492495270442,"train",6700.0,"2021-11-25 08:17:35.996005","","","","","","",""
6.0,0.07192540168762207,0.0007929656682111239,"train",6720.0,"2021-11-25 08:17:39.187107","","","","","","",""
6.0,0.05601130425930023,0.0007965858450904332,"train",6740.0,"2021-11-25 08:17:42.424669","","","","","","",""
6.0,0.0774369090795517,0.000800209725090314,"train",6760.0,"2021-11-25 08:17:46.073144","","","","","","",""
6.0,0.0786425918340683,0.0008038372530797706,"train",6780.0,"2021-11-25 08:17:49.269126","","","","","","",""
6.0,0.07553589344024658,0.0008074683738723109,"train",6800.0,"2021-11-25 08:17:52.403903","","","","","","",""
6.0,0.07089360803365707,0.0008111030322267832,"train",6820.0,"2021-11-25 08:17:56.020231","","","","","","",""
6.0,0.08452025800943375,0.0008147411728482187,"train",6840.0,"2021-11-25 08:17:59.178000","","","","","","",""
6.0,0.08121786266565323,0.0008183827403886721,"train",6860.0,"2021-11-25 08:18:02.473490","","","","","","",""
6.0,0.059490855783224106,0.0008220276794480633,"train",6880.0,"2021-11-25 08:18:05.760411","","","","","","",""
6.0,0.059846650809049606,0.0008256759345750203,"train",6900.0,"2021-11-25 08:18:09.395658","","","","","","",""
6.0,0.07642818242311478,0.0008293274502677234,"train",6920.0,"2021-11-25 08:18:12.559459","","","","","","",""
6.0,0.07118292897939682,0.0008329821709747486,"train",6940.0,"2021-11-25 08:18:15.729727","","","","","","",""
6.0,0.04599248245358467,0.0008366400410959136,"train",6960.0,"2021-11-25 08:18:19.292539","","","","","","",""
6.0,0.08033312857151031,0.000840301004983123,"train",6980.0,"2021-11-25 08:18:22.427742","","","","","","",""
6.0,0.08526971936225891,0.0008439650069412147,"train",7000.0,"2021-11-25 08:18:25.565516","","","","","","",""
6.0,0.04580845311284065,0.0008476319912288095,"train",7020.0,"2021-11-25 08:18:29.041520","","","","","","",""
6.0,0.08006083220243454,0.0008513019020591544,"train",7040.0,"2021-11-25 08:18:32.283150","","","","","","",""
6.0,0.08230084925889969,0.0008549746836009771,"train",7060.0,"2021-11-25 08:18:35.567132","","","","","","",""
6.0,0.08947479724884033,0.0008586502799793306,"train",7080.0,"2021-11-25 08:18:38.851014","","","","","","",""
6.0,0.07577259093523026,0.0008623286352764453,"train",7100.0,"2021-11-25 08:18:42.402980","","","","","","",""
6.0,0.07835528999567032,0.0008660096935325802,"train",7120.0,"2021-11-25 08:18:45.664627","","","","","","",""
6.0,0.05539894476532936,0.0008696933987468731,"train",7140.0,"2021-11-25 08:18:48.857599","","","","","","",""
6.0,0.041947413235902786,0.0008733796948781924,"train",7160.0,"2021-11-25 08:18:52.000362","","","","","","",""
6.0,0.09200719743967056,0.0008770685258459915,"train",7180.0,"2021-11-25 08:18:55.574559","","","","","","",""
6.0,0.05413021147251129,0.0008807598355311595,"train",7200.0,"2021-11-25 08:18:58.754230","","","","","","",""
6.0,0.06536330282688141,0.0008844535677768764,"train",7220.0,"2021-11-25 08:19:01.919887","","","","","","",""
6.0,0.05032246559858322,0.0008881496663894681,"train",7240.0,"2021-11-25 08:19:05.453973","","","","","","",""
6.0,0.07199840992689133,0.0008918480751392592,"train",7260.0,"2021-11-25 08:19:08.632211","","","","","","",""
6.0,0.07548601925373077,0.00089554873776143,"train",7280.0,"2021-11-25 08:19:11.834722","","","","","","",""
6.0,0.05944181606173515,0.0008992515979568724,"train",7300.0,"2021-11-25 08:19:15.030064","","","","","","",""
6.0,0.05836489424109459,0.0009029565993930457,"train",7320.0,"2021-11-25 08:19:18.588905","","","","","","",""
6.0,0.05112726241350174,0.0009066636857048339,"train",7340.0,"2021-11-25 08:19:21.779956","","","","","","",""
6.0,0.07770285755395889,0.0009103728004954039,"train",7360.0,"2021-11-25 08:19:24.895814","","","","","","",""
6.0,0.06671959906816483,0.0009140838873370617,"train",7380.0,"2021-11-25 08:19:28.341381","","","","","","",""
6.0,0.0587027445435524,0.0009177968897721136,"train",7400.0,"2021-11-25 08:19:31.419868","","","","","","",""
6.0,0.05669287592172623,0.0009215117513137218,"train",7420.0,"2021-11-25 08:19:34.400833","","","","","","",""
6.0,0.05711378529667854,0.0009252284154467663,"train",7440.0,"2021-11-25 08:19:37.756293","","","","","","",""
6.0,0.05010409653186798,0.0009289468256287042,"train",7460.0,"2021-11-25 08:19:40.902010","","","","","","",""
6.0,0.062117163091897964,0.0009326669252904287,"train",7480.0,"2021-11-25 08:19:44.122441","","","","","","",""
6.0,0.07772882282733917,0.0009363886578371307,"train",7500.0,"2021-11-25 08:19:47.320356","","","","","","",""
6.0,"","","train",7518.0,"2021-11-25 08:21:17.598482",0.5571709233791748,0.5125321548654959,0.9218930593418304,0.5540913240356858,0.396553802312353,0.40556492811303396,0.2722705083183397
6.0,"","","val",7518.0,"2021-11-25 08:21:40.773493",0.5431984228226835,0.48812812881029877,0.9084541268793246,0.5339845774808818,0.3825488081035314,0.3899812527799801,0.25729723538654
7.0,0.056396812200546265,0.0009401119666491604,"train",7520.0,"2021-11-25 08:21:43.334379","","","","","","",""
7.0,0.06104406714439392,0.0009438367950828869,"train",7540.0,"2021-11-25 08:21:46.586517","","","","","","",""
7.0,0.05763277783989906,0.000947563086471561,"train",7560.0,"2021-11-25 08:21:49.747692","","","","","","",""
7.0,0.05736376345157623,0.0009512907841261783,"train",7580.0,"2021-11-25 08:21:53.437493","","","","","","",""
7.0,0.07696039974689484,0.0009550198313363391,"train",7600.0,"2021-11-25 08:21:56.621226","","","","","","",""
7.0,0.03985914960503578,0.0009587501713711128,"train",7620.0,"2021-11-25 08:21:59.768091","","","","","","",""
7.0,0.07376336306333542,0.0009624817474799023,"train",7640.0,"2021-11-25 08:22:02.932991","","","","","","",""
7.0,0.05986488237977028,0.0009662145028933038,"train",7660.0,"2021-11-25 08:22:06.503850","","","","","","",""
7.0,0.09852336347103119,0.0009699483808239733,"train",7680.0,"2021-11-25 08:22:09.706458","","","","","","",""
7.0,0.0522480271756649,0.0009736833244674895,"train",7700.0,"2021-11-25 08:22:12.910314","","","","","","",""
7.0,0.06727094203233719,0.0009774192770032192,"train",7720.0,"2021-11-25 08:22:16.492788","","","","","","",""
7.0,0.05000840872526169,0.0009811561815951785,"train",7740.0,"2021-11-25 08:22:19.732804","","","","","","",""
7.0,0.05259709432721138,0.0009848939813929015,"train",7760.0,"2021-11-25 08:22:22.983549","","","","","","",""
7.0,0.044825032353401184,0.0009886326195323026,"train",7780.0,"2021-11-25 08:22:26.227387","","","","","","",""
7.0,0.05128123238682747,0.0009923720391365428,"train",7800.0,"2021-11-25 08:22:29.892566","","","","","","",""
7.0,0.06254492700099945,0.000996112183316893,"train",7820.0,"2021-11-25 08:22:33.109306","","","","","","",""
7.0,0.059800948947668076,0.0009998529951736029,"train",7840.0,"2021-11-25 08:22:36.335950","","","","","","",""
7.0,0.0657452940940857,0.0010035944177967638,"train",7860.0,"2021-11-25 08:22:39.925554","","","","","","",""
7.0,0.07663125544786453,0.0010073363942671744,"train",7880.0,"2021-11-25 08:22:43.145495","","","","","","",""
7.0,0.09248121082782745,0.0010110788676572094,"train",7900.0,"2021-11-25 08:22:46.347321","","","","","","",""
7.0,0.05559641867876053,0.0010148217810316822,"train",7920.0,"2021-11-25 08:22:49.557928","","","","","","",""
7.0,0.04611113294959068,0.0010185650774487127,"train",7940.0,"2021-11-25 08:22:53.128077","","","","","","",""
7.0,0.0636623352766037,0.0010223086999605951,"train",7960.0,"2021-11-25 08:22:56.355472","","","","","","",""
7.0,0.07805963605642319,0.0010260525916146609,"train",7980.0,"2021-11-25 08:22:59.649180","","","","","","",""
7.0,0.07676228135824203,0.0010297966954541469,"train",8000.0,"2021-11-25 08:23:02.942436","","","","","","",""
7.0,0.05020809546113014,0.001033540954519064,"train",8020.0,"2021-11-25 08:23:06.572722","","","","","","",""
7.0,0.049849748611450195,0.0010372853118470592,"train",8040.0,"2021-11-25 08:23:09.823680","","","","","","",""
7.0,0.07142046838998795,0.0010410297104742857,"train",8060.0,"2021-11-25 08:23:13.102800","","","","","","",""
7.0,0.04641945660114288,0.0010447740934362692,"train",8080.0,"2021-11-25 08:23:16.737533","","","","","","",""
7.0,0.054450277239084244,0.0010485184037687715,"train",8100.0,"2021-11-25 08:23:19.850562","","","","","","",""
7.0,0.05885640159249306,0.0010522625845086615,"train",8120.0,"2021-11-25 08:23:22.986775","","","","","","",""
7.0,0.06470713019371033,0.0010560065786947796,"train",8140.0,"2021-11-25 08:23:26.571272","","","","","","",""
7.0,0.06545549631118774,0.0010597503293688013,"train",8160.0,"2021-11-25 08:23:29.681346","","","","","","",""
7.0,0.12041772902011871,0.001063493779576111,"train",8180.0,"2021-11-25 08:23:32.793820","","","","","","",""
7.0,0.049316372722387314,0.0010672368723666614,"train",8200.0,"2021-11-25 08:23:35.919314","","","","","","",""
7.0,0.06832032650709152,0.0010709795507958426,"train",8220.0,"2021-11-25 08:23:39.372956","","","","","","",""
7.0,0.05018234625458717,0.0010747217579253504,"train",8240.0,"2021-11-25 08:23:42.430430","","","","","","",""
7.0,0.08232579380273819,0.0010784634368240487,"train",8260.0,"2021-11-25 08:23:45.491081","","","","","","",""
7.0,0.06574328988790512,0.0010822045305688382,"train",8280.0,"2021-11-25 08:23:48.937072","","","","","","",""
7.0,0.05141282454133034,0.0010859449822455227,"train",8300.0,"2021-11-25 08:23:51.991849","","","","","","",""
7.0,0.05443102866411209,0.001089684734949672,"train",8320.0,"2021-11-25 08:23:55.055187","","","","","","",""
7.0,0.04497692361474037,0.00109342373178749,"train",8340.0,"2021-11-25 08:23:58.108808","","","","","","",""
7.0,0.05751736834645271,0.0010971619158766821,"train",8360.0,"2021-11-25 08:24:01.533602","","","","","","",""
7.0,0.04645199328660965,0.0011008992303473152,"train",8380.0,"2021-11-25 08:24:04.753146","","","","","","",""
7.0,0.052904386073350906,0.001104635618342687,"train",8400.0,"2021-11-25 08:24:08.005990","","","","","","",""
7.0,0.06826883554458618,0.001108371023020191,"train",8420.0,"2021-11-25 08:24:11.259389","","","","","","",""
7.0,0.06693030893802643,0.0011121053875521787,"train",8440.0,"2021-11-25 08:24:14.747748","","","","","","",""
7.0,0.07059388607740402,0.0011158386551268257,"train",8460.0,"2021-11-25 08:24:17.820802","","","","","","",""
7.0,0.04760892316699028,0.0011195707689489972,"train",8480.0,"2021-11-25 08:24:21.052857","","","","","","",""
7.0,0.06366344541311264,0.0011233016722411097,"train",8500.0,"2021-11-25 08:24:24.764745","","","","","","",""
7.0,0.04501985013484955,0.0011270313082439951,"train",8520.0,"2021-11-25 08:24:27.987000","","","","","","",""
7.0,0.05396376550197601,0.001130759620217767,"train",8540.0,"2021-11-25 08:24:31.183009","","","","","","",""
7.0,0.05790628120303154,0.0011344865514426794,"train",8560.0,"2021-11-25 08:24:34.739686","","","","","","",""
7.0,0.07181953638792038,0.0011382120452199938,"train",8580.0,"2021-11-25 08:24:38.023637","","","","","","",""
7.0,"","","train",8592.0,"2021-11-25 08:26:08.481046",0.5651604453176162,0.5487459808247305,0.9361879161679801,0.585193593994042,0.4353192463231206,0.45478575964167667,0.2974839393849472
7.0,"","","val",8592.0,"2021-11-25 08:26:32.295809",0.5503305114229387,0.5170383563584902,0.9244008230125712,0.5642475020255278,0.41417124733162713,0.4297893697424179,0.2773235517016469
8.0,0.09122803807258606,0.001141936044872839,"train",8600.0,"2021-11-25 08:26:35.920506","","","","","","",""
8.0,0.062283702194690704,0.0011456584937470744,"train",8620.0,"2021-11-25 08:26:39.221946","","","","","","",""
8.0,0.053137440234422684,0.0011493793352121522,"train",8640.0,"2021-11-25 08:26:42.949091","","","","","","",""
8.0,0.05817307159304619,0.0011530985126619784,"train",8660.0,"2021-11-25 08:26:46.212263","","","","","","",""
8.0,0.08104094117879868,0.001156815969515773,"train",8680.0,"2021-11-25 08:26:49.455802","","","","","","",""
8.0,0.0661093145608902,0.001160531649218934,"train",8700.0,"2021-11-25 08:26:53.050903","","","","","","",""
8.0,0.07180370390415192,0.001164245495243894,"train",8720.0,"2021-11-25 08:26:56.222215","","","","","","",""
8.0,0.08999617397785187,0.0011679574510909817,"train",8740.0,"2021-11-25 08:26:59.382199","","","","","","",""
8.0,0.063276007771492,0.0011716674602892828,"train",8760.0,"2021-11-25 08:27:02.596594","","","","","","",""
8.0,0.06903314590454102,0.0011753754663974968,"train",8780.0,"2021-11-25 08:27:06.179842","","","","","","",""
8.0,0.05035395920276642,0.0011790814130047968,"train",8800.0,"2021-11-25 08:27:09.373334","","","","","","",""
8.0,0.05503476411104202,0.001182785243731688,"train",8820.0,"2021-11-25 08:27:12.548781","","","","","","",""
8.0,0.07932406663894653,0.0011864869022308656,"train",8840.0,"2021-11-25 08:27:16.106469","","","","","","",""
8.0,0.052091822028160095,0.0011901863321880693,"train",8860.0,"2021-11-25 08:27:19.339253","","","","","","",""
8.0,0.04644790291786194,0.001193883477322945,"train",8880.0,"2021-11-25 08:27:22.555270","","","","","","",""
8.0,0.06338222324848175,0.0011975782813898961,"train",8900.0,"2021-11-25 08:27:25.766573","","","","","","",""
8.0,0.052819110453128815,0.0012012706881789417,"train",8920.0,"2021-11-25 08:27:29.398093","","","","","","",""
8.0,0.08794435858726501,0.001204960641516572,"train",8940.0,"2021-11-25 08:27:32.547960","","","","","","",""
8.0,0.04083522781729698,0.0012086480852666014,"train",8960.0,"2021-11-25 08:27:35.826539","","","","","","",""
8.0,0.09691772609949112,0.0012123329633310235,"train",8980.0,"2021-11-25 08:27:39.422523","","","","","","",""
8.0,0.05298539623618126,0.0012160152196508643,"train",9000.0,"2021-11-25 08:27:42.610675","","","","","","",""
8.0,0.0653124749660492,0.0012196947982070355,"train",9020.0,"2021-11-25 08:27:45.872979","","","","","","",""
8.0,0.09878077358007431,0.0012233716430211856,"train",9040.0,"2021-11-25 08:27:49.107367","","","","","","",""
8.0,0.0642336830496788,0.001227045698156553,"train",9060.0,"2021-11-25 08:27:52.773763","","","","","","",""
8.0,0.07220032066106796,0.0012307169077188148,"train",9080.0,"2021-11-25 08:27:56.055982","","","","","","",""
8.0,0.06560885906219482,0.0012343852158569401,"train",9100.0,"2021-11-25 08:27:59.351686","","","","","","",""
8.0,0.04352589324116707,0.0012380505667640377,"train",9120.0,"2021-11-25 08:28:02.987402","","","","","","",""
8.0,0.09565016627311707,0.0012417129046782046,"train",9140.0,"2021-11-25 08:28:06.298251","","","","","","",""
8.0,0.05230153724551201,0.0012453721738833758,"train",9160.0,"2021-11-25 08:28:09.476399","","","","","","",""
8.0,0.05657406523823738,0.001249028318710172,"train",9180.0,"2021-11-25 08:28:12.584966","","","","","","",""
8.0,0.0576704666018486,0.0012526812835367447,"train",9200.0,"2021-11-25 08:28:16.064398","","","","","","",""
8.0,0.04370550066232681,0.0012563310127896242,"train",9220.0,"2021-11-25 08:28:19.108132","","","","","","",""
8.0,0.07229918241500854,0.0012599774509445645,"train",9240.0,"2021-11-25 08:28:22.215926","","","","","","",""
8.0,0.06938769668340683,0.0012636205425273874,"train",9260.0,"2021-11-25 08:28:25.741311","","","","","","",""
8.0,0.09275858849287033,0.0012672602321148268,"train",9280.0,"2021-11-25 08:28:28.858833","","","","","","",""
8.0,0.062192246317863464,0.0012708964643353732,"train",9300.0,"2021-11-25 08:28:32.098663","","","","","","",""
8.0,0.05402776226401329,0.001274529183870114,"train",9320.0,"2021-11-25 08:28:35.260065","","","","","","",""
8.0,0.0688253715634346,0.0012781583354535748,"train",9340.0,"2021-11-25 08:28:38.785304","","","","","","",""
8.0,0.060681454837322235,0.0012817838638745646,"train",9360.0,"2021-11-25 08:28:41.921560","","","","","","",""
8.0,0.08444368094205856,0.001285405713977009,"train",9380.0,"2021-11-25 08:28:45.055964","","","","","","",""
8.0,0.05093378573656082,0.0012890238306607947,"train",9400.0,"2021-11-25 08:28:48.676550","","","","","","",""
8.0,0.06240762397646904,0.001292638158882606,"train",9420.0,"2021-11-25 08:28:51.937125","","","","","","",""
8.0,0.05505320057272911,0.0012962486436567603,"train",9440.0,"2021-11-25 08:28:55.073721","","","","","","",""
8.0,0.08120734989643097,0.0012998552300560484,"train",9460.0,"2021-11-25 08:28:58.219057","","","","","","",""
8.0,0.05490035563707352,0.0013034578632125668,"train",9480.0,"2021-11-25 08:29:01.787526","","","","","","",""
8.0,0.0821472555398941,0.0013070564883185534,"train",9500.0,"2021-11-25 08:29:04.916286","","","","","","",""
8.0,0.05625364929437637,0.001310651050627223,"train",9520.0,"2021-11-25 08:29:08.036094","","","","","","",""
8.0,0.044793255627155304,0.001314241495453598,"train",9540.0,"2021-11-25 08:29:11.477949","","","","","","",""
8.0,0.04703762009739876,0.00131782776817534,"train",9560.0,"2021-11-25 08:29:14.473866","","","","","","",""
8.0,0.06984976679086685,0.0013214098142335837,"train",9580.0,"2021-11-25 08:29:17.475250","","","","","","",""
8.0,0.04668085649609566,0.001324987579133764,"train",9600.0,"2021-11-25 08:29:20.652321","","","","","","",""
8.0,0.06286925822496414,0.0013285610084464463,"train",9620.0,"2021-11-25 08:29:24.224500","","","","","","",""
8.0,0.07396893203258514,0.001332130047808155,"train",9640.0,"2021-11-25 08:29:27.427944","","","","","","",""
8.0,0.07197236269712448,0.001335694642922199,"train",9660.0,"2021-11-25 08:29:30.621623","","","","","","",""
8.0,"","","train",9666.0,"2021-11-25 08:30:59.424779",0.5709961434912318,0.5615108942557806,0.9364155242517023,0.5704655224932528,0.44749195604822617,0.4670701009579625,0.303259490830263
8.0,"","","val",9666.0,"2021-11-25 08:31:22.579624",0.5531137655108431,0.5318120829451168,0.9244938234877759,0.5440265707931135,0.42254189283733595,0.4383732551479511,0.27987544907691525
9.0,0.0781112015247345,0.0013392547395594985,"train",9680.0,"2021-11-25 08:31:27.564744","","","","","","",""
9.0,0.07746189087629318,0.001342810283559412,"train",9700.0,"2021-11-25 08:31:30.775146","","","","","","",""
9.0,0.05044330283999443,0.0013463612208305564,"train",9720.0,"2021-11-25 08:31:33.998326","","","","","","",""
9.0,0.054153431206941605,0.0013499074973516321,"train",9740.0,"2021-11-25 08:31:37.223096","","","","","","",""
9.0,0.0565950982272625,0.0013534490591722464,"train",9760.0,"2021-11-25 08:31:40.810163","","","","","","",""
9.0,0.04976344108581543,0.0013569858524137305,"train",9780.0,"2021-11-25 08:31:44.065257","","","","","","",""
9.0,0.058453354984521866,0.001360517823269962,"train",9800.0,"2021-11-25 08:31:47.354650","","","","","","",""
9.0,0.05436244606971741,0.0013640449180081834,"train",9820.0,"2021-11-25 08:31:51.049982","","","","","","",""
9.0,0.06380268186330795,0.0013675670829698173,"train",9840.0,"2021-11-25 08:31:54.348368","","","","","","",""
9.0,0.07328110933303833,0.0013710842645712853,"train",9860.0,"2021-11-25 08:31:57.675430","","","","","","",""
9.0,0.05177360028028488,0.0013745964093048219,"train",9880.0,"2021-11-25 08:32:00.979623","","","","","","",""
9.0,0.0865468680858612,0.0013781034637392886,"train",9900.0,"2021-11-25 08:32:04.538549","","","","","","",""
9.0,0.06325775384902954,0.0013816053745209864,"train",9920.0,"2021-11-25 08:32:07.670118","","","","","","",""
9.0,0.0725082978606224,0.0013851020883744697,"train",9940.0,"2021-11-25 08:32:10.776185","","","","","","",""
9.0,0.06452032923698425,0.001388593552103353,"train",9960.0,"2021-11-25 08:32:14.238964","","","","","","",""
9.0,0.06877253204584122,0.0013920797125911233,"train",9980.0,"2021-11-25 08:32:17.393276","","","","","","",""
9.0,0.06033273786306381,0.001395560516801947,"train",10000.0,"2021-11-25 08:32:20.482854","","","","","","",""
9.0,0.054495472460985184,0.0013990359117814774,"train",10020.0,"2021-11-25 08:32:23.757826","","","","","","",""
9.0,0.06041426584124565,0.0014025058446576583,"train",10040.0,"2021-11-25 08:32:27.408456","","","","","","",""
9.0,0.04870717599987984,0.0014059702626415317,"train",10060.0,"2021-11-25 08:32:30.691820","","","","","","",""
9.0,0.06546054035425186,0.0014094291130280377,"train",10080.0,"2021-11-25 08:32:33.992326","","","","","","",""
9.0,0.04921238496899605,0.0014128823431968183,"train",10100.0,"2021-11-25 08:32:37.616676","","","","","","",""
9.0,0.061726540327072144,0.001416329900613017,"train",10120.0,"2021-11-25 08:32:40.814205","","","","","","",""
9.0,0.0553346611559391,0.0014197717328280782,"train",10140.0,"2021-11-25 08:32:43.857763","","","","","","",""
9.0,0.046081800013780594,0.0014232077874805457,"train",10160.0,"2021-11-25 08:32:46.923449","","","","","","",""
9.0,0.05869324132800102,0.0014266380122968589,"train",10180.0,"2021-11-25 08:32:50.401087","","","","","","",""
9.0,0.06313533335924149,0.0014300623550921468,"train",10200.0,"2021-11-25 08:32:53.541639","","","","","","",""
9.0,0.05222409591078758,0.0014334807637710243,"train",10220.0,"2021-11-25 08:32:56.678891","","","","","","",""
9.0,0.07328429073095322,0.0014368931863283831,"train",10240.0,"2021-11-25 08:33:00.233404","","","","","","",""
9.0,0.0348811075091362,0.0014402995708501826,"train",10260.0,"2021-11-25 08:33:03.385272","","","","","","",""
9.0,0.051102567464113235,0.0014436998655142422,"train",10280.0,"2021-11-25 08:33:06.530595","","","","","","",""
9.0,0.05044275149703026,0.0014470940185910258,"train",10300.0,"2021-11-25 08:33:09.671371","","","","","","",""
9.0,0.038032181560993195,0.001450481978444431,"train",10320.0,"2021-11-25 08:33:13.177324","","","","","","",""
9.0,0.04696209356188774,0.0014538636935325763,"train",10340.0,"2021-11-25 08:33:16.326962","","","","","","",""
9.0,0.05191164091229439,0.0014572391124085817,"train",10360.0,"2021-11-25 08:33:19.468623","","","","","","",""
9.0,0.05721333250403404,0.0014606081837213525,"train",10380.0,"2021-11-25 08:33:22.974984","","","","","","",""
9.0,0.07217966020107269,0.0014639708562163639,"train",10400.0,"2021-11-25 08:33:26.111945","","","","","","",""
9.0,0.07323714345693588,0.001467327078736435,"train",10420.0,"2021-11-25 08:33:29.335972","","","","","","",""
9.0,0.05203506723046303,0.0014706768002225108,"train",10440.0,"2021-11-25 08:33:32.660855","","","","","","",""
9.0,0.04354853928089142,0.0014740199697144392,"train",10460.0,"2021-11-25 08:33:36.283016","","","","","","",""
9.0,0.047476161271333694,0.0014773565363517442,"train",10480.0,"2021-11-25 08:33:39.448925","","","","","","",""
9.0,0.05617358162999153,0.0014806864493744007,"train",10500.0,"2021-11-25 08:33:42.674004","","","","","","",""
9.0,0.07874570041894913,0.0014840096581236072,"train",10520.0,"2021-11-25 08:33:46.285567","","","","","","",""
9.0,0.036951642483472824,0.001487326112042556,"train",10540.0,"2021-11-25 08:33:49.456685","","","","","","",""
9.0,0.04649223014712334,0.0014906357606772013,"train",10560.0,"2021-11-25 08:33:52.624237","","","","","","",""
9.0,0.07063581049442291,0.0014939385536770291,"train",10580.0,"2021-11-25 08:33:55.877178","","","","","","",""
9.0,0.04260587692260742,0.0014972344407958218,"train",10600.0,"2021-11-25 08:33:59.517337","","","","","","",""
9.0,0.04468941688537598,0.0015005233718924213,"train",10620.0,"2021-11-25 08:34:02.778886","","","","","","",""
9.0,0.059186097234487534,0.0015038052969314946,"train",10640.0,"2021-11-25 08:34:06.043125","","","","","","",""
9.0,0.045992303639650345,0.0015070801659842939,"train",10660.0,"2021-11-25 08:34:09.680409","","","","","","",""
9.0,0.06423468142747879,0.001510347929229414,"train",10680.0,"2021-11-25 08:34:12.950161","","","","","","",""
9.0,0.05905180051922798,0.0015136085369535537,"train",10700.0,"2021-11-25 08:34:16.174192","","","","","","",""
9.0,0.07786828279495239,0.0015168619395522708,"train",10720.0,"2021-11-25 08:34:19.313974","","","","","","",""
9.0,0.05091864988207817,0.0015201080875307349,"train",10740.0,"2021-11-25 08:34:22.759406","","","","","","",""
9.0,"","","train",10740.0,"2021-11-25 08:35:50.636085",0.5737757403769191,0.5807454667425045,0.9426101491461475,0.5888374655790879,0.48558592613968127,0.49304230597965465,0.32436200731053894
9.0,"","","val",10740.0,"2021-11-25 08:36:14.055041",0.5505044648034326,0.5390765725254714,0.9287126380691672,0.5589672475271835,0.4605121616035859,0.4660578355995168,0.29756888345373017
10.0,0.05866345763206482,0.0015233469315044834,"train",10760.0,"2021-11-25 08:36:19.486308","","","","","","",""
10.0,0.06111970916390419,0.0015265784222001709,"train",10780.0,"2021-11-25 08:36:22.644941","","","","","","",""
10.0,0.05324831232428551,0.0015298025104563185,"train",10800.0,"2021-11-25 08:36:26.263784","","","","","","",""
10.0,0.07572221010923386,0.001533019147224064,"train",10820.0,"2021-11-25 08:36:29.516664","","","","","","",""
10.0,0.028484562411904335,0.0015362282835679054,"train",10840.0,"2021-11-25 08:36:32.762094","","","","","","",""
10.0,0.06520267575979233,0.0015394298706664469,"train",10860.0,"2021-11-25 08:36:35.904253","","","","","","",""
10.0,0.04897313937544823,0.001542623859813141,"train",10880.0,"2021-11-25 08:36:39.436948","","","","","","",""
10.0,0.04765348508954048,0.00154581020241703,"train",10900.0,"2021-11-25 08:36:42.525918","","","","","","",""
10.0,0.05102621391415596,0.0015489888500034858,"train",10920.0,"2021-11-25 08:36:45.745761","","","","","","",""
10.0,0.038177307695150375,0.0015521597542149444,"train",10940.0,"2021-11-25 08:36:49.313723","","","","","","",""
10.0,0.08221551030874252,0.0015553228668116455,"train",10960.0,"2021-11-25 08:36:52.555296","","","","","","",""
10.0,0.03849189728498459,0.0015584781396723642,"train",10980.0,"2021-11-25 08:36:55.798464","","","","","","",""
10.0,0.06750638782978058,0.0015616255247951432,"train",11000.0,"2021-11-25 08:36:59.041764","","","","","","",""
10.0,0.05223068222403526,0.0015647649742980233,"train",11020.0,"2021-11-25 08:37:02.666029","","","","","","",""
10.0,0.053632088005542755,0.0015678964404197727,"train",11040.0,"2021-11-25 08:37:05.902261","","","","","","",""
10.0,0.05755044147372246,0.0015710198755206112,"train",11060.0,"2021-11-25 08:37:09.125368","","","","","","",""
10.0,0.05415428802371025,0.0015741352320829379,"train",11080.0,"2021-11-25 08:37:12.674547","","","","","","",""
10.0,0.06804675608873367,0.0015772424627120527,"train",11100.0,"2021-11-25 08:37:15.801810","","","","","","",""
10.0,0.055935829877853394,0.0015803415201368761,"train",11120.0,"2021-11-25 08:37:18.929315","","","","","","",""
10.0,0.06963276863098145,0.001583432357210671,"train",11140.0,"2021-11-25 08:37:22.190653","","","","","","",""
10.0,0.05048961192369461,0.001586514926911758,"train",11160.0,"2021-11-25 08:37:25.834559","","","","","","",""
10.0,0.09899448603391647,0.0015895891823442313,"train",11180.0,"2021-11-25 08:37:29.132094","","","","","","",""
10.0,0.04747964069247246,0.0015926550767386717,"train",11200.0,"2021-11-25 08:37:32.303210","","","","","","",""
10.0,0.08367669582366943,0.0015957125634528599,"train",11220.0,"2021-11-25 08:37:35.768931","","","","","","",""
10.0,0.07157140225172043,0.0015987615959724836,"train",11240.0,"2021-11-25 08:37:38.881196","","","","","","",""
10.0,0.08542490005493164,0.0016018021279118457,"train",11260.0,"2021-11-25 08:37:41.999869","","","","","","",""
10.0,0.043088044971227646,0.0016048341130145728,"train",11280.0,"2021-11-25 08:37:45.126550","","","","","","",""
10.0,0.035698190331459045,0.0016078575051543145,"train",11300.0,"2021-11-25 08:37:48.662007","","","","","","",""
10.0,0.06260309368371964,0.0016108722583354478,"train",11320.0,"2021-11-25 08:37:51.783807","","","","","","",""
10.0,0.0499424934387207,0.0016138783266937777,"train",11340.0,"2021-11-25 08:37:54.903991","","","","","","",""
10.0,0.07182726263999939,0.0016168756644972322,"train",11360.0,"2021-11-25 08:37:58.410230","","","","","","",""
10.0,0.041260868310928345,0.0016198642261465587,"train",11380.0,"2021-11-25 08:38:01.534608","","","","","","",""
10.0,0.04481127858161926,0.0016228439661760208,"train",11400.0,"2021-11-25 08:38:04.638605","","","","","","",""
10.0,0.07367302477359772,0.001625814839254086,"train",11420.0,"2021-11-25 08:38:07.730396","","","","","","",""
10.0,0.04599293693900108,0.0016287768001841164,"train",11440.0,"2021-11-25 08:38:11.203194","","","","","","",""
10.0,0.07998670637607574,0.001631729803905059,"train",11460.0,"2021-11-25 08:38:14.314927","","","","","","",""
10.0,0.06051020324230194,0.0016346738054921273,"train",11480.0,"2021-11-25 08:38:17.431470","","","","","","",""
10.0,0.047895848751068115,0.001637608760157486,"train",11500.0,"2021-11-25 08:38:21.068557","","","","","","",""
10.0,0.08357741683721542,0.0016405346232509356,"train",11520.0,"2021-11-25 08:38:24.349062","","","","","","",""
10.0,0.05835890397429466,0.0016434513502605861,"train",11540.0,"2021-11-25 08:38:27.658230","","","","","","",""
10.0,0.04177955910563469,0.0016463588968135383,"train",11560.0,"2021-11-25 08:38:30.947763","","","","","","",""
10.0,0.054380349814891815,0.0016492572186765577,"train",11580.0,"2021-11-25 08:38:34.610647","","","","","","",""
10.0,0.07168563455343246,0.001652146271756747,"train",11600.0,"2021-11-25 08:38:37.913713","","","","","","",""
10.0,0.04734768345952034,0.0016550260121022172,"train",11620.0,"2021-11-25 08:38:41.206132","","","","","","",""
10.0,0.07730889320373535,0.0016578963959027562,"train",11640.0,"2021-11-25 08:38:44.788430","","","","","","",""
10.0,0.06389611959457397,0.001660757379490496,"train",11660.0,"2021-11-25 08:38:48.003398","","","","","","",""
10.0,0.07650234550237656,0.0016636089193405761,"train",11680.0,"2021-11-25 08:38:51.067934","","","","","","",""
10.0,0.04868092015385628,0.0016664509720718049,"train",11700.0,"2021-11-25 08:38:54.134582","","","","","","",""
10.0,0.05340011417865753,0.0016692834944473224,"train",11720.0,"2021-11-25 08:38:57.676476","","","","","","",""
10.0,0.05268608033657074,0.0016721064433752554,"train",11740.0,"2021-11-25 08:39:00.916003","","","","","","",""
10.0,0.04843797907233238,0.0016749197759093734,"train",11760.0,"2021-11-25 08:39:04.171207","","","","","","",""
10.0,0.06130783632397652,0.0016777234492497436,"train",11780.0,"2021-11-25 08:39:07.720541","","","","","","",""
10.0,0.08396299183368683,0.0016805174207433808,"train",11800.0,"2021-11-25 08:39:10.861463","","","","","","",""
10.0,"","","train",11814.0,"2021-11-25 08:40:40.028895",0.5968856872589682,0.593280935464758,0.940422533147916,0.5889925030305915,0.46532239729310826,0.4874801099673238,0.3216579788585411
10.0,"","","val",11814.0,"2021-11-25 08:41:03.306150",0.5734083265684796,0.5507706373430966,0.9245952950318898,0.5578029935625175,0.43539746537346774,0.4547676652937519,0.2928280052759046
11.0,0.08230946958065033,0.0016833016478848956,"train",11820.0,"2021-11-25 08:41:06.603230","","","","","","",""
11.0,0.050405353307724,0.0016860760883171426,"train",11840.0,"2021-11-25 08:41:09.846673","","","","","","",""
11.0,0.049997735768556595,0.001688840699831864,"train",11860.0,"2021-11-25 08:41:13.487237","","","","","","",""
11.0,0.07834361493587494,0.0016915954403703313,"train",11880.0,"2021-11-25 08:41:16.660355","","","","","","",""
11.0,0.06711111962795258,0.0016943402680239862,"train",11900.0,"2021-11-25 08:41:19.882702","","","","","","",""
11.0,0.0378747433423996,0.0016970751410350774,"train",11920.0,"2021-11-25 08:41:23.524953","","","","","","",""
11.0,0.08042986690998077,0.001699800017797296,"train",11940.0,"2021-11-25 08:41:26.716008","","","","","","",""
11.0,0.06883474439382553,0.0017025148568564086,"train",11960.0,"2021-11-25 08:41:29.869241","","","","","","",""
11.0,0.050184424966573715,0.001705219616910888,"train",11980.0,"2021-11-25 08:41:33.112198","","","","","","",""
11.0,0.05173918977379799,0.001707914256812541,"train",12000.0,"2021-11-25 08:41:36.783241","","","","","","",""
11.0,0.04713612422347069,0.0017105987355671352,"train",12020.0,"2021-11-25 08:41:39.964898","","","","","","",""
11.0,0.04698152095079422,0.0017132730123350227,"train",12040.0,"2021-11-25 08:41:43.080450","","","","","","",""
11.0,0.055199529975652695,0.00171593704643176,"train",12060.0,"2021-11-25 08:41:46.570784","","","","","","",""
11.0,0.03914361074566841,0.0017185907973287285,"train",12080.0,"2021-11-25 08:41:49.693000","","","","","","",""
11.0,0.04340111464262009,0.0017212342246537506,"train",12100.0,"2021-11-25 08:41:52.962519","","","","","","",""
11.0,0.07047339528799057,0.0017238672881917032,"train",12120.0,"2021-11-25 08:41:56.260406","","","","","","",""
11.0,0.08285912126302719,0.001726489947885131,"train",12140.0,"2021-11-25 08:41:59.918344","","","","","","",""
11.0,0.04736886918544769,0.0017291021638348543,"train",12160.0,"2021-11-25 08:42:03.142169","","","","","","",""
11.0,0.08651581406593323,0.0017317038963005765,"train",12180.0,"2021-11-25 08:42:06.415571","","","","","","",""
11.0,0.0552242286503315,0.00173429510570149,"train",12200.0,"2021-11-25 08:42:10.094434","","","","","","",""
11.0,0.06804434955120087,0.0017368757526168759,"train",12220.0,"2021-11-25 08:42:13.372881","","","","","","",""
11.0,0.07035402953624725,0.0017394457977867057,"train",12240.0,"2021-11-25 08:42:16.543440","","","","","","",""
11.0,0.06632812321186066,0.0017420052021122378,"train",12260.0,"2021-11-25 08:42:19.742157","","","","","","",""
11.0,0.05609229952096939,0.0017445539266566128,"train",12280.0,"2021-11-25 08:42:23.458611","","","","","","",""
11.0,0.07275661081075668,0.001747091932645445,"train",12300.0,"2021-11-25 08:42:26.730962","","","","","","",""
11.0,0.06790302693843842,0.0017496191814674125,"train",12320.0,"2021-11-25 08:42:30.002095","","","","","","",""
11.0,0.0484531968832016,0.001752135634674846,"train",12340.0,"2021-11-25 08:42:33.633539","","","","","","",""
11.0,0.06986149400472641,0.0017546412539843118,"train",12360.0,"2021-11-25 08:42:36.923351","","","","","","",""
11.0,0.04803134500980377,0.001757136001277194,"train",12380.0,"2021-11-25 08:42:40.227772","","","","","","",""
11.0,0.048196837306022644,0.001759619838600278,"train",12400.0,"2021-11-25 08:42:43.547512","","","","","","",""
11.0,0.0936272069811821,0.0017620927281663229,"train",12420.0,"2021-11-25 08:42:47.188537","","","","","","",""
11.0,0.042131297290325165,0.0017645546323546398,"train",12440.0,"2021-11-25 08:42:50.401876","","","","","","",""
11.0,0.04587136209011078,0.0017670055137116636,"train",12460.0,"2021-11-25 08:42:53.545681","","","","","","",""
11.0,0.07150889933109283,0.0017694453349515209,"train",12480.0,"2021-11-25 08:42:57.061461","","","","","","",""
11.0,0.04542301967740059,0.0017718740589566,"train",12500.0,"2021-11-25 08:43:00.240541","","","","","","",""
11.0,0.0409918837249279,0.0017742916487781134,"train",12520.0,"2021-11-25 08:43:03.484317","","","","","","",""
11.0,0.08925643563270569,0.0017766980676366608,"train",12540.0,"2021-11-25 08:43:06.693689","","","","","","",""
11.0,0.04883086681365967,0.001779093278922789,"train",12560.0,"2021-11-25 08:43:10.239350","","","","","","",""
11.0,0.07491075247526169,0.001781477246197548,"train",12580.0,"2021-11-25 08:43:13.419321","","","","","","",""
11.0,0.07502597570419312,0.0017838499331930462,"train",12600.0,"2021-11-25 08:43:16.630606","","","","","","",""
11.0,0.05303884297609329,0.001786211303813001,"train",12620.0,"2021-11-25 08:43:20.190159","","","","","","",""
11.0,0.04514884203672409,0.0017885613221332894,"train",12640.0,"2021-11-25 08:43:23.437540","","","","","","",""
11.0,0.05154137685894966,0.0017908999524024931,"train",12660.0,"2021-11-25 08:43:26.701668","","","","","","",""
11.0,0.06613057851791382,0.0017932271590424438,"train",12680.0,"2021-11-25 08:43:29.900337","","","","","","",""
11.0,0.051761236041784286,0.0017955429066487635,"train",12700.0,"2021-11-25 08:43:33.621138","","","","","","",""
11.0,0.04392620921134949,0.0017978471599914025,"train",12720.0,"2021-11-25 08:43:36.904352","","","","","","",""
11.0,0.04721495136618614,0.0018001398840151778,"train",12740.0,"2021-11-25 08:43:40.265527","","","","","","",""
11.0,0.05435868725180626,0.0018024210438403031,"train",12760.0,"2021-11-25 08:43:43.758523","","","","","","",""
11.0,0.058427389711141586,0.0018046906047629228,"train",12780.0,"2021-11-25 08:43:46.813085","","","","","","",""
11.0,0.04510730504989624,0.0018069485322556372,"train",12800.0,"2021-11-25 08:43:49.886961","","","","","","",""
11.0,0.08955119550228119,0.001809194791968029,"train",12820.0,"2021-11-25 08:43:53.020454","","","","","","",""
11.0,0.049465153366327286,0.0018114293497271863,"train",12840.0,"2021-11-25 08:43:56.578485","","","","","","",""
11.0,0.08831319957971573,0.0018136521715382218,"train",12860.0,"2021-11-25 08:43:59.798590","","","","","","",""
11.0,0.08828192204236984,0.0018158632235847892,"train",12880.0,"2021-11-25 08:44:03.015721","","","","","","",""
11.0,"","","train",12888.0,"2021-11-25 08:45:31.270996",0.6128356254092993,0.6164880375678276,0.9485704257123597,0.6205327597169108,0.49008225276241846,0.5068628831117306,0.3442563326341713
11.0,"","","val",12888.0,"2021-11-25 08:45:54.505643",0.5855270787428969,0.5589324526201271,0.9332518880826329,0.5829775410185917,0.45077110838894285,0.4625636014895793,0.30065794851813055
12.0,0.05848768353462219,0.0018180624722295999,"train",12900.0,"2021-11-25 08:45:59.065847","","","","","","",""
12.0,0.058979205787181854,0.001820249884014933,"train",12920.0,"2021-11-25 08:46:02.139568","","","","","","",""
12.0,0.0673859566450119,0.001822425425663144,"train",12940.0,"2021-11-25 08:46:05.193751","","","","","","",""
12.0,0.042191702872514725,0.0018245890640771725,"train",12960.0,"2021-11-25 08:46:08.250874","","","","","","",""
12.0,0.05194341391324997,0.0018267407663410452,"train",12980.0,"2021-11-25 08:46:11.726402","","","","","","",""
12.0,0.049637384712696075,0.0018288804997203755,"train",13000.0,"2021-11-25 08:46:14.781877","","","","","","",""
12.0,0.06814740598201752,0.0018310082316628634,"train",13020.0,"2021-11-25 08:46:17.891512","","","","","","",""
12.0,0.05071241408586502,0.0018331239297987893,"train",13040.0,"2021-11-25 08:46:21.477812","","","","","","",""
12.0,0.08171459287405014,0.0018352275619415066,"train",13060.0,"2021-11-25 08:46:24.774426","","","","","","",""
12.0,0.051068563014268875,0.0018373190960879326,"train",13080.0,"2021-11-25 08:46:28.034995","","","","","","",""
12.0,0.07253128290176392,0.0018393985004190336,"train",13100.0,"2021-11-25 08:46:31.309000","","","","","","",""
12.0,0.07347914576530457,0.00184146574330031,"train",13120.0,"2021-11-25 08:46:34.959428","","","","","","",""
12.0,0.051327768713235855,0.001843520793282278,"train",13140.0,"2021-11-25 08:46:38.262271","","","","","","",""
12.0,0.06128786504268646,0.0018455636191009464,"train",13160.0,"2021-11-25 08:46:41.563286","","","","","","",""
12.0,0.05975202098488808,0.001847594189678294,"train",13180.0,"2021-11-25 08:46:45.206512","","","","","","",""
12.0,0.042504165321588516,0.0018496124741227415,"train",13200.0,"2021-11-25 08:46:48.468506","","","","","","",""
12.0,0.047571465373039246,0.001851618441729622,"train",13220.0,"2021-11-25 08:46:51.703109","","","","","","",""
12.0,0.059770725667476654,0.0018536120619816467,"train",13240.0,"2021-11-25 08:46:54.994789","","","","","","",""
12.0,0.05619131773710251,0.0018555933045493712,"train",13260.0,"2021-11-25 08:46:58.720594","","","","","","",""
12.0,0.04347080737352371,0.0018575621392916554,"train",13280.0,"2021-11-25 08:47:02.015431","","","","","","",""
12.0,0.059125736355781555,0.0018595185362561225,"train",13300.0,"2021-11-25 08:47:05.306183","","","","","","",""
12.0,0.07559417933225632,0.0018614624656796155,"train",13320.0,"2021-11-25 08:47:08.876841","","","","","","",""
12.0,0.082860067486763,0.0018633938979886484,"train",13340.0,"2021-11-25 08:47:12.209530","","","","","","",""
12.0,0.059224002063274384,0.0018653128037998568,"train",13360.0,"2021-11-25 08:47:15.388079","","","","","","",""
12.0,0.053159330040216446,0.0018672191539204459,"train",13380.0,"2021-11-25 08:47:18.615637","","","","","","",""
12.0,0.056224025785923004,0.0018691129193486335,"train",13400.0,"2021-11-25 08:47:22.207663","","","","","","",""
12.0,0.04859214648604393,0.0018709940712740908,"train",13420.0,"2021-11-25 08:47:25.441912","","","","","","",""
12.0,0.04965895041823387,0.0018728625810783823,"train",13440.0,"2021-11-25 08:47:28.674974","","","","","","",""
12.0,0.040908172726631165,0.0018747184203353996,"train",13460.0,"2021-11-25 08:47:32.261093","","","","","","",""
12.0,0.04634978994727135,0.0018765615608117947,"train",13480.0,"2021-11-25 08:47:35.489339","","","","","","",""
12.0,0.05738352611660957,0.0018783919744674096,"train",13500.0,"2021-11-25 08:47:38.778807","","","","","","",""
12.0,0.05354512855410576,0.0018802096334557027,"train",13520.0,"2021-11-25 08:47:42.057303","","","","","","",""
12.0,0.07205421477556229,0.0018820145101241712,"train",13540.0,"2021-11-25 08:47:45.753714","","","","","","",""
12.0,0.07761095464229584,0.0018838065770147745,"train",13560.0,"2021-11-25 08:47:49.021806","","","","","","",""
12.0,0.08235599100589752,0.0018855858068643496,"train",13580.0,"2021-11-25 08:47:52.295939","","","","","","",""
12.0,0.07653596997261047,0.001887352172605026,"train",13600.0,"2021-11-25 08:47:55.883302","","","","","","",""
12.0,0.04476339742541313,0.0018891056473646398,"train",13620.0,"2021-11-25 08:47:59.116484","","","","","","",""
12.0,0.03594769909977913,0.0018908462044671395,"train",13640.0,"2021-11-25 08:48:02.384934","","","","","","",""
12.0,0.02832440286874771,0.001892573817432993,"train",13660.0,"2021-11-25 08:48:05.674267","","","","","","",""
12.0,0.04897025600075722,0.0018942884599795914,"train",13680.0,"2021-11-25 08:48:09.279498","","","","","","",""
12.0,0.056465718895196915,0.001895990106021648,"train",13700.0,"2021-11-25 08:48:12.502454","","","","","","",""
12.0,0.06727582216262817,0.0018976787296715943,"train",13720.0,"2021-11-25 08:48:15.725987","","","","","","",""
12.0,0.051877688616514206,0.0018993543052399757,"train",13740.0,"2021-11-25 08:48:19.364528","","","","","","",""
12.0,0.04956381395459175,0.0019010168072358413,"train",13760.0,"2021-11-25 08:48:22.597497","","","","","","",""
12.0,0.08599545806646347,0.0019026662103671305,"train",13780.0,"2021-11-25 08:48:25.756299","","","","","","",""
12.0,0.057075027376413345,0.0019043024895410605,"train",13800.0,"2021-11-25 08:48:28.921027","","","","","","",""
12.0,0.05465208739042282,0.001905925619864506,"train",13820.0,"2021-11-25 08:48:32.471820","","","","","","",""
12.0,0.05046109855175018,0.001907535576644378,"train",13840.0,"2021-11-25 08:48:35.724241","","","","","","",""
12.0,0.06745205819606781,0.0019091323353880008,"train",13860.0,"2021-11-25 08:48:38.908614","","","","","","",""
12.0,0.043254293501377106,0.0019107158718034828,"train",13880.0,"2021-11-25 08:48:42.532198","","","","","","",""
12.0,0.0432276651263237,0.001912286161800088,"train",13900.0,"2021-11-25 08:48:45.795322","","","","","","",""
12.0,0.04240147024393082,0.0019138431814886008,"train",13920.0,"2021-11-25 08:48:49.014252","","","","","","",""
12.0,0.05225934460759163,0.0019153869071816896,"train",13940.0,"2021-11-25 08:48:52.238232","","","","","","",""
12.0,0.07286635041236877,0.0019169173153942693,"train",13960.0,"2021-11-25 08:48:55.814652","","","","","","",""
12.0,"","","train",13962.0,"2021-11-25 08:50:24.177196",0.6090955395474059,0.6204528704601654,0.9494226938801618,0.6227735955788445,0.5088352990907274,0.5292758079921016,0.3520608360158454
12.0,"","","val",13962.0,"2021-11-25 08:50:47.715379",0.5757277049750666,0.557067089691867,0.931519567427573,0.5817095862056112,0.4669264818372903,0.4846679241175647,0.31026797243850596
13.0,0.05313735827803612,0.0019184343828438557,"train",13980.0,"2021-11-25 08:50:52.987520","","","","","","",""
13.0,0.06099846959114075,0.0019199380864509208,"train",14000.0,"2021-11-25 08:50:56.198311","","","","","","",""
13.0,0.05455144867300987,0.0019214284033392457,"train",14020.0,"2021-11-25 08:50:59.959801","","","","","","",""
13.0,0.07409508526325226,0.0019229053108362649,"train",14040.0,"2021-11-25 08:51:03.267824","","","","","","",""
13.0,0.040828265249729156,0.0019243687864734145,"train",14060.0,"2021-11-25 08:51:06.451455","","","","","","",""
13.0,0.057537805289030075,0.0019258188079864732,"train",14080.0,"2021-11-25 08:51:09.588417","","","","","","",""
13.0,0.04719933494925499,0.0019272553533158999,"train",14100.0,"2021-11-25 08:51:13.115829","","","","","","",""
13.0,0.06941837817430496,0.0019286784006071697,"train",14120.0,"2021-11-25 08:51:16.257200","","","","","","",""
13.0,0.07330639660358429,0.0019300879282111083,"train",14140.0,"2021-11-25 08:51:19.513020","","","","","","",""
13.0,0.0726403146982193,0.0019314839146842185,"train",14160.0,"2021-11-25 08:51:23.181949","","","","","","",""
13.0,0.053962934762239456,0.0019328663387890076,"train",14180.0,"2021-11-25 08:51:26.501721","","","","","","",""
13.0,0.048752374947071075,0.0019342351794943119,"train",14200.0,"2021-11-25 08:51:29.819189","","","","","","",""
13.0,0.047406986355781555,0.0019355904159756138,"train",14220.0,"2021-11-25 08:51:33.096064","","","","","","",""
13.0,0.04699794948101044,0.0019369320276153613,"train",14240.0,"2021-11-25 08:51:36.761405","","","","","","",""
13.0,0.03942745923995972,0.00193825999400328,"train",14260.0,"2021-11-25 08:51:40.054281","","","","","","",""
13.0,0.05335430055856705,0.0019395742949366843,"train",14280.0,"2021-11-25 08:51:43.384522","","","","","","",""
13.0,0.03873049467802048,0.0019408749104207845,"train",14300.0,"2021-11-25 08:51:47.049374","","","","","","",""
13.0,0.038933511823415756,0.0019421618206689913,"train",14320.0,"2021-11-25 08:51:50.360728","","","","","","",""
13.0,0.07266268879175186,0.0019434350061032163,"train",14340.0,"2021-11-25 08:51:53.648265","","","","","","",""
13.0,0.05740886554121971,0.0019446944473541703,"train",14360.0,"2021-11-25 08:51:56.940253","","","","","","",""
13.0,0.06417322158813477,0.0019459401252616573,"train",14380.0,"2021-11-25 08:52:00.491331","","","","","","",""
13.0,0.0481828972697258,0.001947172020874868,"train",14400.0,"2021-11-25 08:52:03.621146","","","","","","",""
13.0,0.05022216588258743,0.0019483901154526647,"train",14420.0,"2021-11-25 08:52:06.902620","","","","","","",""
13.0,0.06486847251653671,0.0019495943904638694,"train",14440.0,"2021-11-25 08:52:10.556557","","","","","","",""
13.0,0.07444930076599121,0.0019507848275875444,"train",14460.0,"2021-11-25 08:52:13.728701","","","","","","",""
13.0,0.05689409375190735,0.0019519614087132712,"train",14480.0,"2021-11-25 08:52:16.871031","","","","","","",""
13.0,0.03822265937924385,0.0019531241159414263,"train",14500.0,"2021-11-25 08:52:19.940642","","","","","","",""
13.0,0.04476691782474518,0.001954272931583453,"train",14520.0,"2021-11-25 08:52:23.364370","","","","","","",""
13.0,0.0785207748413086,0.0019554078381621306,"train",14540.0,"2021-11-25 08:52:26.386785","","","","","","",""
13.0,0.05771941319108009,0.0019565288184118417,"train",14560.0,"2021-11-25 08:52:29.542258","","","","","","",""
13.0,0.04659360274672508,0.0019576358552788314,"train",14580.0,"2021-11-25 08:52:33.138373","","","","","","",""
13.0,0.06978503614664078,0.0019587289319214713,"train",14600.0,"2021-11-25 08:52:36.366953","","","","","","",""
13.0,0.05365941300988197,0.0019598080317105113,"train",14620.0,"2021-11-25 08:52:39.544999","","","","","","",""
13.0,0.061969395726919174,0.001960873138229337,"train",14640.0,"2021-11-25 08:52:42.817655","","","","","","",""
13.0,0.07279009371995926,0.0019619242352742153,"train",14660.0,"2021-11-25 08:52:46.453942","","","","","","",""
13.0,0.08043590933084488,0.001962961306854543,"train",14680.0,"2021-11-25 08:52:49.737613","","","","","","",""
13.0,0.07794840633869171,0.0019639843371930905,"train",14700.0,"2021-11-25 08:52:53.063389","","","","","","",""
13.0,0.04955943301320076,0.001964993310726241,"train",14720.0,"2021-11-25 08:52:56.725357","","","","","","",""
13.0,0.033915746957063675,0.0019659882121042262,"train",14740.0,"2021-11-25 08:52:59.959424","","","","","","",""
13.0,0.04497569426894188,0.001966969026191363,"train",14760.0,"2021-11-25 08:53:03.236852","","","","","","",""
13.0,0.04725755751132965,0.0019679357380662805,"train",14780.0,"2021-11-25 08:53:06.548960","","","","","","",""
13.0,0.04350067302584648,0.001968888333022148,"train",14800.0,"2021-11-25 08:53:10.168183","","","","","","",""
13.0,0.04151612147688866,0.0019698267965669,"train",14820.0,"2021-11-25 08:53:13.455777","","","","","","",""
13.0,0.047086700797080994,0.0019707511144234557,"train",14840.0,"2021-11-25 08:53:16.590642","","","","","","",""
13.0,0.05938637629151344,0.001971661272529935,"train",14860.0,"2021-11-25 08:53:20.015507","","","","","","",""
13.0,0.06359586119651794,0.001972557257039875,"train",14880.0,"2021-11-25 08:53:23.175816","","","","","","",""
13.0,0.06571035087108612,0.0019734390543224385,"train",14900.0,"2021-11-25 08:53:26.323951","","","","","","",""
13.0,0.0480363555252552,0.001974306650962622,"train",14920.0,"2021-11-25 08:53:29.538372","","","","","","",""
13.0,0.05675268545746803,0.0019751600337614608,"train",14940.0,"2021-11-25 08:53:33.120894","","","","","","",""
13.0,0.07039716839790344,0.0019759991897362284,"train",14960.0,"2021-11-25 08:53:36.352638","","","","","","",""
13.0,0.06496698409318924,0.0019768241061206343,"train",14980.0,"2021-11-25 08:53:39.581453","","","","","","",""
13.0,0.06663477420806885,0.0019776347703650186,"train",15000.0,"2021-11-25 08:53:43.168633","","","","","","",""
13.0,0.05863504484295845,0.001978431170136543,"train",15020.0,"2021-11-25 08:53:46.492809","","","","","","",""
13.0,"","","train",15036.0,"2021-11-25 08:55:16.787051",0.6261660481699775,0.6411475121821615,0.9526918620605167,0.649430980856135,0.5422670175052776,0.5564095593051118,0.3777897377841467
13.0,"","","val",15036.0,"2021-11-25 08:55:40.346197",0.5854690942827322,0.5681790198730207,0.9357890263830592,0.5981014657600016,0.4945319467375165,0.5016641931042282,0.32793398131137685
14.0,0.03917888551950455,0.0019792132933193784,"train",15040.0,"2021-11-25 08:55:43.376419","","","","","","",""
14.0,0.049288563430309296,0.001979981128014888,"train",15060.0,"2021-11-25 08:55:46.701115","","","","","","",""
14.0,0.05706513300538063,0.001980734662541811,"train",15080.0,"2021-11-25 08:55:50.461102","","","","","","",""
14.0,0.04413703456521034,0.0019814738854364374,"train",15100.0,"2021-11-25 08:55:53.759956","","","","","","",""
14.0,0.0687733143568039,0.0019821987854527832,"train",15120.0,"2021-11-25 08:55:57.081332","","","","","","",""
14.0,0.05674305930733681,0.0019829093515627634,"train",15140.0,"2021-11-25 08:56:00.652982","","","","","","",""
14.0,0.07257217168807983,0.001983605572956358,"train",15160.0,"2021-11-25 08:56:03.812819","","","","","","",""
14.0,0.048468250781297684,0.001984287439041775,"train",15180.0,"2021-11-25 08:56:07.019156","","","","","","",""
14.0,0.05511575564742088,0.001984954939445616,"train",15200.0,"2021-11-25 08:56:10.189185","","","","","","",""
14.0,0.04623116925358772,0.0019856080640130295,"train",15220.0,"2021-11-25 08:56:13.840256","","","","","","",""
14.0,0.04784861207008362,0.0019862468028078676,"train",15240.0,"2021-11-25 08:56:17.112565","","","","","","",""
14.0,0.0829601138830185,0.001986871146112837,"train",15260.0,"2021-11-25 08:56:20.402369","","","","","","",""
14.0,0.051597900688648224,0.0019874810844296466,"train",15280.0,"2021-11-25 08:56:24.036667","","","","","","",""
14.0,0.061137087643146515,0.0019880766084791517,"train",15300.0,"2021-11-25 08:56:27.326878","","","","","","",""
14.0,0.041496504098176956,0.0019886577092014953,"train",15320.0,"2021-11-25 08:56:30.648694","","","","","","",""
14.0,0.06455499678850174,0.001989224377756247,"train",15340.0,"2021-11-25 08:56:33.932181","","","","","","",""
14.0,0.046675968915224075,0.0019897766055225353,"train",15360.0,"2021-11-25 08:56:37.613940","","","","","","",""
14.0,0.034086357802152634,0.0019903143840991813,"train",15380.0,"2021-11-25 08:56:40.909442","","","","","","",""
14.0,0.07082461565732956,0.0019908377053048246,"train",15400.0,"2021-11-25 08:56:44.206310","","","","","","",""
14.0,0.05120164901018143,0.001991346561178048,"train",15420.0,"2021-11-25 08:56:47.797752","","","","","","",""
14.0,0.07306337356567383,0.0019918409439775003,"train",15440.0,"2021-11-25 08:56:51.022713","","","","","","",""
14.0,0.03752880170941353,0.0019923208461820117,"train",15460.0,"2021-11-25 08:56:54.284034","","","","","","",""
14.0,0.05152687057852745,0.001992786260490709,"train",15480.0,"2021-11-25 08:56:57.553341","","","","","","",""
14.0,0.06353024393320084,0.0019932371798231287,"train",15500.0,"2021-11-25 08:57:01.155064","","","","","","",""
14.0,0.02665966935455799,0.0019936735973193212,"train",15520.0,"2021-11-25 08:57:04.219253","","","","","","",""
14.0,0.059018105268478394,0.001994095506339958,"train",15540.0,"2021-11-25 08:57:07.354362","","","","","","",""
14.0,0.056077588349580765,0.001994502900466431,"train",15560.0,"2021-11-25 08:57:10.944000","","","","","","",""
14.0,0.053589630872011185,0.0019948957735009517,"train",15580.0,"2021-11-25 08:57:14.147572","","","","","","",""
14.0,0.09592564404010773,0.0019952741194666436,"train",15600.0,"2021-11-25 08:57:17.224241","","","","","","",""
14.0,0.03977292403578758,0.0019956379326076354,"train",15620.0,"2021-11-25 08:57:20.308240","","","","","","",""
14.0,0.07236547768115997,0.001995987207389146,"train",15640.0,"2021-11-25 08:57:23.927120","","","","","","",""
14.0,0.050277262926101685,0.0019963219384975706,"train",15660.0,"2021-11-25 08:57:27.203917","","","","","","",""
14.0,0.03494733199477196,0.001996642120840561,"train",15680.0,"2021-11-25 08:57:30.491764","","","","","","",""
14.0,0.07707270234823227,0.001996947749547103,"train",15700.0,"2021-11-25 08:57:34.077823","","","","","","",""
14.0,0.055131275206804276,0.0019972388199675905,"train",15720.0,"2021-11-25 08:57:37.150276","","","","","","",""
14.0,0.05827396735548973,0.001997515327673896,"train",15740.0,"2021-11-25 08:57:40.172497","","","","","","",""
14.0,0.03931175917387009,0.0019977772684594388,"train",15760.0,"2021-11-25 08:57:43.292207","","","","","","",""
14.0,0.046201396733522415,0.0019980246383392475,"train",15780.0,"2021-11-25 08:57:46.928595","","","","","","",""
14.0,0.0452868677675724,0.0019982574335500225,"train",15800.0,"2021-11-25 08:57:50.206861","","","","","","",""
14.0,0.038759179413318634,0.001998475650550192,"train",15820.0,"2021-11-25 08:57:53.452014","","","","","","",""
14.0,0.05844840407371521,0.0019986792860199657,"train",15840.0,"2021-11-25 08:57:56.895329","","","","","","",""
14.0,0.05403609201312065,0.001998868336861386,"train",15860.0,"2021-11-25 08:57:59.988356","","","","","","",""
14.0,0.03603356331586838,0.001999042800198376,"train",15880.0,"2021-11-25 08:58:03.145848","","","","","","",""
14.0,0.07351924479007721,0.00199920267337678,"train",15900.0,"2021-11-25 08:58:06.425398","","","","","","",""
14.0,0.05077433958649635,0.0019993479539644077,"train",15920.0,"2021-11-25 08:58:10.097098","","","","","","",""
14.0,0.07686261087656021,0.0019994786397510697,"train",15940.0,"2021-11-25 08:58:13.393691","","","","","","",""
14.0,0.043938785791397095,0.0019995947287486096,"train",15960.0,"2021-11-25 08:58:16.707117","","","","","","",""
14.0,0.048990458250045776,0.0019996962191909367,"train",15980.0,"2021-11-25 08:58:20.436840","","","","","","",""
14.0,0.05279894545674324,0.0019997831095340513,"train",16000.0,"2021-11-25 08:58:23.660019","","","","","","",""
14.0,0.05384449660778046,0.001999855398456069,"train",16020.0,"2021-11-25 08:58:26.818976","","","","","","",""
14.0,0.04584573954343796,0.00199991308485724,"train",16040.0,"2021-11-25 08:58:29.988332","","","","","","",""
14.0,0.053948674350976944,0.001999956167859967,"train",16060.0,"2021-11-25 08:58:33.656229","","","","","","",""
14.0,0.06853341311216354,0.0019999846468088172,"train",16080.0,"2021-11-25 08:58:36.862619","","","","","","",""
14.0,0.05100271478295326,0.0019999985212705335,"train",16100.0,"2021-11-25 08:58:40.169378","","","","","","",""
14.0,"","","train",16110.0,"2021-11-25 09:00:09.860774",0.6197482354653278,0.6465078370623052,0.9520964410597572,0.6185652150415961,0.5076710549770386,0.5333035506790175,0.3583464379767298
14.0,"","","val",16110.0,"2021-11-25 09:00:33.160526",0.5845413429200974,0.5728404424810967,0.9338141920839701,0.5736616182742976,0.4582873076164714,0.4794736555358771,0.3091659048750746
15.0,0.04954883083701134,0.0019999995774202316,"train",16120.0,"2021-11-25 09:00:37.576674","","","","","","",""
15.0,0.05668915435671806,0.0019999966438102564,"train",16140.0,"2021-11-25 09:00:40.810444","","","","","","",""
15.0,0.04002569243311882,0.0019999909162942875,"train",16160.0,"2021-11-25 09:00:44.047497","","","","","","",""
15.0,0.03962760791182518,0.001999982394888327,"train",16180.0,"2021-11-25 09:00:47.131736","","","","","","",""
15.0,0.04205772280693054,0.0019999710796161823,"train",16200.0,"2021-11-25 09:00:50.671639","","","","","","",""
15.0,0.04939055070281029,0.0019999569705094686,"train",16220.0,"2021-11-25 09:00:53.916318","","","","","","",""
15.0,0.04314044862985611,0.001999940067607605,"train",16240.0,"2021-11-25 09:00:57.189012","","","","","","",""
15.0,0.08068610727787018,0.001999920370957817,"train",16260.0,"2021-11-25 09:01:00.659946","","","","","","",""
15.0,0.042890243232250214,0.0019998978806151355,"train",16280.0,"2021-11-25 09:01:03.852137","","","","","","",""
15.0,0.07651446759700775,0.0019998725966423976,"train",16300.0,"2021-11-25 09:01:07.048065","","","","","","",""
15.0,0.051548730581998825,0.001999844519110244,"train",16320.0,"2021-11-25 09:01:10.267275","","","","","","",""
15.0,0.06700922548770905,0.001999813648097122,"train",16340.0,"2021-11-25 09:01:13.837038","","","","","","",""
15.0,0.041084595024585724,0.001999779983689282,"train",16360.0,"2021-11-25 09:01:17.111178","","","","","","",""
15.0,0.05502008646726608,0.0019997435259807806,"train",16380.0,"2021-11-25 09:01:20.380812","","","","","","",""
15.0,0.057152751833200455,0.001999704275073478,"train",16400.0,"2021-11-25 09:01:24.017681","","","","","","",""
15.0,0.04303807020187378,0.0019996622310770383,"train",16420.0,"2021-11-25 09:01:27.301159","","","","","","",""
15.0,0.0679725930094719,0.0019996173941089286,"train",16440.0,"2021-11-25 09:01:30.586516","","","","","","",""
15.0,0.0510389506816864,0.0019995697642944212,"train",16460.0,"2021-11-25 09:01:33.787395","","","","","","",""
15.0,0.04084150120615959,0.0019995193417665894,"train",16480.0,"2021-11-25 09:01:37.498774","","","","","","",""
15.0,0.04935599863529205,0.0019994661266663108,"train",16500.0,"2021-11-25 09:01:40.805920","","","","","","",""
15.0,0.0440281480550766,0.001999410119142264,"train",16520.0,"2021-11-25 09:01:44.110764","","","","","","",""
15.0,0.059566907584667206,0.0019993513193509297,"train",16540.0,"2021-11-25 09:01:47.846258","","","","","","",""
15.0,0.053360942751169205,0.0019992897274565906,"train",16560.0,"2021-11-25 09:01:51.001560","","","","","","",""
15.0,0.05080043151974678,0.0019992253436313303,"train",16580.0,"2021-11-25 09:01:54.249824","","","","","","",""
15.0,0.0586056225001812,0.0019991581680550313,"train",16600.0,"2021-11-25 09:01:57.476642","","","","","","",""
15.0,0.053072765469551086,0.0019990882009153785,"train",16620.0,"2021-11-25 09:02:01.081281","","","","","","",""
15.0,0.04913610965013504,0.001999015442407854,"train",16640.0,"2021-11-25 09:02:04.331383","","","","","","",""
15.0,0.05743417516350746,0.0019989398927357403,"train",16660.0,"2021-11-25 09:02:07.587390","","","","","","",""
15.0,0.04896519333124161,0.0019988615521101174,"train",16680.0,"2021-11-25 09:02:11.226499","","","","","","",""
15.0,0.037799935787916183,0.0019987804207498637,"train",16700.0,"2021-11-25 09:02:14.453127","","","","","","",""
15.0,0.047497622668743134,0.0019986964988816533,"train",16720.0,"2021-11-25 09:02:17.593697","","","","","","",""
15.0,0.0516987107694149,0.0019986097867399585,"train",16740.0,"2021-11-25 09:02:20.891613","","","","","","",""
15.0,0.050146397203207016,0.0019985202845670463,"train",16760.0,"2021-11-25 09:02:24.537295","","","","","","",""
15.0,0.05472002923488617,0.0019984279926129798,"train",16780.0,"2021-11-25 09:02:27.811088","","","","","","",""
15.0,0.035910364240407944,0.001998332911135615,"train",16800.0,"2021-11-25 09:02:31.055127","","","","","","",""
15.0,0.06320233643054962,0.0019982350404006036,"train",16820.0,"2021-11-25 09:02:34.561422","","","","","","",""
15.0,0.03842684254050255,0.0019981343806813883,"train",16840.0,"2021-11-25 09:02:37.723461","","","","","","",""
15.0,0.041028670966625214,0.001998030932259205,"train",16860.0,"2021-11-25 09:02:40.816065","","","","","","",""
15.0,0.061188746243715286,0.0019979246954230823,"train",16880.0,"2021-11-25 09:02:44.045725","","","","","","",""
15.0,0.04934272915124893,0.0019978156704698363,"train",16900.0,"2021-11-25 09:02:47.641247","","","","","","",""
15.0,0.06745011359453201,0.001997703857704076,"train",16920.0,"2021-11-25 09:02:50.881937","","","","","","",""
15.0,0.042746253311634064,0.0019975892574381976,"train",16940.0,"2021-11-25 09:02:54.107394","","","","","","",""
15.0,0.05180294066667557,0.001997471869992386,"train",16960.0,"2021-11-25 09:02:57.686404","","","","","","",""
15.0,0.06684990972280502,0.0019973516956946127,"train",16980.0,"2021-11-25 09:03:00.652937","","","","","","",""
15.0,0.06649936735630035,0.0019972287348806366,"train",17000.0,"2021-11-25 09:03:03.817496","","","","","","",""
15.0,0.061471693217754364,0.0019971029878940003,"train",17020.0,"2021-11-25 09:03:07.041849","","","","","","",""
15.0,0.056455567479133606,0.0019969744550860317,"train",17040.0,"2021-11-25 09:03:10.625353","","","","","","",""
15.0,0.06794241815805435,0.0019968431368158433,"train",17060.0,"2021-11-25 09:03:13.765261","","","","","","",""
15.0,0.0537327378988266,0.001996709033450327,"train",17080.0,"2021-11-25 09:03:16.909296","","","","","","",""
15.0,0.054463259875774384,0.0019965721453641585,"train",17100.0,"2021-11-25 09:03:20.397126","","","","","","",""
15.0,0.07277422398328781,0.0019964324729397935,"train",17120.0,"2021-11-25 09:03:23.600675","","","","","","",""
15.0,0.045620452612638474,0.0019962900165674657,"train",17140.0,"2021-11-25 09:03:26.779969","","","","","","",""
15.0,0.05331196263432503,0.0019961447766451887,"train",17160.0,"2021-11-25 09:03:29.959013","","","","","","",""
15.0,0.0699414610862732,0.001995996753578751,"train",17180.0,"2021-11-25 09:03:33.506537","","","","","","",""
15.0,"","","train",17184.0,"2021-11-25 09:05:00.331782",0.6392781779815179,0.674391652053547,0.960719651307551,0.6771652285047308,0.5810324080203556,0.6063528178813417,0.4076943101086311
15.0,"","","val",17184.0,"2021-11-25 09:05:23.831851",0.5837875449379566,0.5838930527373877,0.9414603942056154,0.610358725381376,0.515240033207113,0.5315451659895372,0.3406164367282608
16.0,0.033866096287965775,0.001995845947781719,"train",17200.0,"2021-11-25 09:05:28.755710","","","","","","",""
16.0,0.042642440646886826,0.001995692359675433,"train",17220.0,"2021-11-25 09:05:31.923790","","","","","","",""
16.0,0.03579449653625488,0.0019955359896890066,"train",17240.0,"2021-11-25 09:05:35.543120","","","","","","",""
16.0,0.04547686129808426,0.0019953768382593258,"train",17260.0,"2021-11-25 09:05:38.735562","","","","","","",""
16.0,0.04621706157922745,0.0019952149058310486,"train",17280.0,"2021-11-25 09:05:41.929534","","","","","","",""
16.0,0.03883866220712662,0.001995050192856602,"train",17300.0,"2021-11-25 09:05:45.153130","","","","","","",""
16.0,0.037158701568841934,0.001994882699796182,"train",17320.0,"2021-11-25 09:05:48.801665","","","","","","",""
16.0,0.04159857705235481,0.001994712427117752,"train",17340.0,"2021-11-25 09:05:51.887518","","","","","","",""
16.0,0.05940600857138634,0.0019945393752970413,"train",17360.0,"2021-11-25 09:05:55.155255","","","","","","",""
16.0,0.03786246106028557,0.001994363544817544,"train",17380.0,"2021-11-25 09:05:58.868706","","","","","","",""
16.0,0.06517411768436432,0.001994184936170517,"train",17400.0,"2021-11-25 09:06:02.168087","","","","","","",""
16.0,0.052560050040483475,0.0019940035498549804,"train",17420.0,"2021-11-25 09:06:05.469511","","","","","","",""
16.0,0.03859618306159973,0.0019938193863777145,"train",17440.0,"2021-11-25 09:06:08.764401","","","","","","",""
16.0,0.030048228800296783,0.001993632446253258,"train",17460.0,"2021-11-25 09:06:12.419496","","","","","","",""
16.0,0.0688764676451683,0.0019934427300039074,"train",17480.0,"2021-11-25 09:06:15.716164","","","","","","",""
16.0,0.05347979813814163,0.001993250238159717,"train",17500.0,"2021-11-25 09:06:19.018512","","","","","","",""
16.0,0.037126000970602036,0.0019930549712584944,"train",17520.0,"2021-11-25 09:06:22.637537","","","","","","",""
16.0,0.048810575157403946,0.001992856929845801,"train",17540.0,"2021-11-25 09:06:25.923624","","","","","","",""
16.0,0.04460805654525757,0.0019926561144749497,"train",17560.0,"2021-11-25 09:06:29.225292","","","","","","",""
16.0,0.06560292840003967,0.001992452525707004,"train",17580.0,"2021-11-25 09:06:32.531881","","","","","","",""
16.0,0.05154282599687576,0.0019922461641107767,"train",17600.0,"2021-11-25 09:06:36.189205","","","","","","",""
16.0,0.06044186279177666,0.001992037030262826,"train",17620.0,"2021-11-25 09:06:39.391222","","","","","","",""
16.0,0.050803039222955704,0.0019918251247474567,"train",17640.0,"2021-11-25 09:06:42.597083","","","","","","",""
16.0,0.05680930241942406,0.001991610448156718,"train",17660.0,"2021-11-25 09:06:46.133055","","","","","","",""
16.0,0.08181261271238327,0.0019913930010903996,"train",17680.0,"2021-11-25 09:06:49.279617","","","","","","",""
16.0,0.057765811681747437,0.001991172784156033,"train",17700.0,"2021-11-25 09:06:52.446266","","","","","","",""
16.0,0.07870601862668991,0.0019909497979688877,"train",17720.0,"2021-11-25 09:06:55.744838","","","","","","",""
16.0,0.051500800997018814,0.0019907240431519713,"train",17740.0,"2021-11-25 09:06:59.291840","","","","","","",""
16.0,0.04403935372829437,0.001990495520336026,"train",17760.0,"2021-11-25 09:07:02.482932","","","","","","",""
16.0,0.04835791513323784,0.0019902642301595284,"train",17780.0,"2021-11-25 09:07:05.680758","","","","","","",""
16.0,0.06044190004467964,0.001990030173268685,"train",17800.0,"2021-11-25 09:07:09.272593","","","","","","",""
16.0,0.03898483142256737,0.0019897933503174345,"train",17820.0,"2021-11-25 09:07:12.525519","","","","","","",""
16.0,0.08007858693599701,0.0019895537619674425,"train",17840.0,"2021-11-25 09:07:15.763630","","","","","","",""
16.0,0.0506230965256691,0.001989311408888101,"train",17860.0,"2021-11-25 09:07:19.013504","","","","","","",""
16.0,0.05008866265416145,0.001989066291756527,"train",17880.0,"2021-11-25 09:07:22.613210","","","","","","",""
16.0,0.047016989439725876,0.00198881841125756,"train",17900.0,"2021-11-25 09:07:25.782298","","","","","","",""
16.0,0.056804392486810684,0.0019885677680837595,"train",17920.0,"2021-11-25 09:07:28.948039","","","","","","",""
16.0,0.0608341209590435,0.001988314362935404,"train",17940.0,"2021-11-25 09:07:32.448332","","","","","","",""
16.0,0.03980943560600281,0.0019880581965204896,"train",17960.0,"2021-11-25 09:07:35.492349","","","","","","",""
16.0,0.05496615916490555,0.0019877992695547255,"train",17980.0,"2021-11-25 09:07:38.532507","","","","","","",""
16.0,0.07409072667360306,0.0019875375827615354,"train",18000.0,"2021-11-25 09:07:41.796312","","","","","","",""
16.0,0.04486710578203201,0.0019872731368720527,"train",18020.0,"2021-11-25 09:07:45.331249","","","","","","",""
16.0,0.047101013362407684,0.00198700593262512,"train",18040.0,"2021-11-25 09:07:48.603576","","","","","","",""
16.0,0.04755925014615059,0.001986735970767286,"train",18060.0,"2021-11-25 09:07:51.836675","","","","","","",""
16.0,0.05638730898499489,0.001986463252052804,"train",18080.0,"2021-11-25 09:07:55.492954","","","","","","",""
16.0,0.08253994584083557,0.0019861877772436305,"train",18100.0,"2021-11-25 09:07:58.634613","","","","","","",""
16.0,0.06052357703447342,0.001985909547109422,"train",18120.0,"2021-11-25 09:08:01.793671","","","","","","",""
16.0,0.04200315475463867,0.001985628562427533,"train",18140.0,"2021-11-25 09:08:04.935544","","","","","","",""
16.0,0.04810095950961113,0.001985344823983014,"train",18160.0,"2021-11-25 09:08:08.436280","","","","","","",""
16.0,0.030826404690742493,0.001985058332568609,"train",18180.0,"2021-11-25 09:08:11.567475","","","","","","",""
16.0,0.07527442276477814,0.001984769088984755,"train",18200.0,"2021-11-25 09:08:14.713089","","","","","","",""
16.0,0.06449124962091446,0.001984477094039576,"train",18220.0,"2021-11-25 09:08:18.331265","","","","","","",""
16.0,0.05554991587996483,0.001984182348548885,"train",18240.0,"2021-11-25 09:08:21.633393","","","","","","",""
16.0,"","","train",18258.0,"2021-11-25 09:09:51.876221",0.6475587571854763,0.6771388133252085,0.9609328142529867,0.6713422431124927,0.5559425276331053,0.583812607562935,0.39727968134533065
16.0,"","","val",18258.0,"2021-11-25 09:10:15.176728",0.5956163748115505,0.5845211413397058,0.9381030996784875,0.6065882863115262,0.4936585980122756,0.5151492942009168,0.3306733416362423
17.0,0.05514957383275032,0.00198388485333618,"train",18260.0,"2021-11-25 09:10:17.780912","","","","","","",""
17.0,0.03813663870096207,0.0019835846092326396,"train",18280.0,"2021-11-25 09:10:20.911052","","","","","","",""
17.0,0.052302006632089615,0.0019832816170771246,"train",18300.0,"2021-11-25 09:10:24.500224","","","","","","",""
17.0,0.04292654991149902,0.001982975877716172,"train",18320.0,"2021-11-25 09:10:27.635740","","","","","","",""
17.0,0.06333027780056,0.0019826673920039957,"train",18340.0,"2021-11-25 09:10:30.776563","","","","","","",""
17.0,0.04267272725701332,0.0019823561608024822,"train",18360.0,"2021-11-25 09:10:34.321477","","","","","","",""
17.0,0.0435955636203289,0.0019820421849811886,"train",18380.0,"2021-11-25 09:10:37.460658","","","","","","",""
17.0,0.03890269622206688,0.0019817254654173402,"train",18400.0,"2021-11-25 09:10:40.601139","","","","","","",""
17.0,0.06042654812335968,0.0019814060029958278,"train",18420.0,"2021-11-25 09:10:43.742367","","","","","","",""
17.0,0.08254531025886536,0.001981083798609206,"train",18440.0,"2021-11-25 09:10:47.262549","","","","","","",""
17.0,0.046632759273052216,0.0019807588531576908,"train",18460.0,"2021-11-25 09:10:50.441244","","","","","","",""
17.0,0.09474776685237885,0.0019804311675491555,"train",18480.0,"2021-11-25 09:10:53.625834","","","","","","",""
17.0,0.036890242248773575,0.00198010074269913,"train",18500.0,"2021-11-25 09:10:57.189520","","","","","","",""
17.0,0.05535529926419258,0.0019797675795307965,"train",18520.0,"2021-11-25 09:11:00.390451","","","","","","",""
17.0,0.0446089506149292,0.0019794316789749885,"train",18540.0,"2021-11-25 09:11:03.571828","","","","","","",""
17.0,0.05743506923317909,0.0019790930419701877,"train",18560.0,"2021-11-25 09:11:06.795537","","","","","","",""
17.0,0.029069673269987106,0.0019787516694625214,"train",18580.0,"2021-11-25 09:11:10.406897","","","","","","",""
17.0,0.03637662157416344,0.0019784075624057584,"train",18600.0,"2021-11-25 09:11:13.582461","","","","","","",""
17.0,0.05387411266565323,0.0019780607217613094,"train",18620.0,"2021-11-25 09:11:16.858959","","","","","","",""
17.0,0.0802033543586731,0.001977711148498221,"train",18640.0,"2021-11-25 09:11:20.581175","","","","","","",""
17.0,0.06043536216020584,0.0019773588435931756,"train",18660.0,"2021-11-25 09:11:23.916867","","","","","","",""
17.0,0.06532927602529526,0.0019770038080304873,"train",18680.0,"2021-11-25 09:11:27.240839","","","","","","",""
17.0,0.07990735024213791,0.001976646042802099,"train",18700.0,"2021-11-25 09:11:30.508604","","","","","","",""
17.0,0.05935579165816307,0.0019762855489075808,"train",18720.0,"2021-11-25 09:11:34.091020","","","","","","",""
17.0,0.0650588646531105,0.001975922327354126,"train",18740.0,"2021-11-25 09:11:37.317386","","","","","","",""
17.0,0.09164975583553314,0.001975556379156549,"train",18760.0,"2021-11-25 09:11:40.509756","","","","","","",""
17.0,0.07828404754400253,0.0019751877053372823,"train",18780.0,"2021-11-25 09:11:44.062579","","","","","","",""
17.0,0.04305485635995865,0.001974816306926373,"train",18800.0,"2021-11-25 09:11:47.278876","","","","","","",""
17.0,0.03259711340069771,0.001974442184961482,"train",18820.0,"2021-11-25 09:11:50.509002","","","","","","",""
17.0,0.07247535139322281,0.0019740653404878776,"train",18840.0,"2021-11-25 09:11:53.698848","","","","","","",""
17.0,0.039415393024683,0.0019736857745584362,"train",18860.0,"2021-11-25 09:11:57.180604","","","","","","",""
17.0,0.0659622922539711,0.0019733034882336367,"train",18880.0,"2021-11-25 09:12:00.247481","","","","","","",""
17.0,0.06068941205739975,0.0019729184825815586,"train",18900.0,"2021-11-25 09:12:03.337899","","","","","","",""
17.0,0.04562924802303314,0.0019725307586778806,"train",18920.0,"2021-11-25 09:12:06.781369","","","","","","",""
17.0,0.033101022243499756,0.001972140317605874,"train",18940.0,"2021-11-25 09:12:09.797263","","","","","","",""
17.0,0.06692071259021759,0.0019717471604564028,"train",18960.0,"2021-11-25 09:12:12.820491","","","","","","",""
17.0,0.051219917833805084,0.0019713512883279185,"train",18980.0,"2021-11-25 09:12:15.840267","","","","","","",""
17.0,0.08087917417287827,0.00197095270232646,"train",19000.0,"2021-11-25 09:12:19.218123","","","","","","",""
17.0,0.04083473980426788,0.001970551403565646,"train",19020.0,"2021-11-25 09:12:22.196615","","","","","","",""
17.0,0.051603492349386215,0.0019701473931666765,"train",19040.0,"2021-11-25 09:12:25.251778","","","","","","",""
17.0,0.06624060124158859,0.001969740672258327,"train",19060.0,"2021-11-25 09:12:28.611212","","","","","","",""
17.0,0.06870193034410477,0.0019693312419769454,"train",19080.0,"2021-11-25 09:12:31.605138","","","","","","",""
17.0,0.04500167816877365,0.0019689191034664498,"train",19100.0,"2021-11-25 09:12:34.819412","","","","","","",""
17.0,0.05494061857461929,0.0019685042578783257,"train",19120.0,"2021-11-25 09:12:38.115674","","","","","","",""
17.0,0.05656988173723221,0.00196808670637162,"train",19140.0,"2021-11-25 09:12:41.733992","","","","","","",""
17.0,0.05094493180513382,0.001967666450112942,"train",19160.0,"2021-11-25 09:12:44.835103","","","","","","",""
17.0,0.05719330906867981,0.001967243490276456,"train",19180.0,"2021-11-25 09:12:47.987438","","","","","","",""
17.0,0.03769676014780998,0.0019668178280438818,"train",19200.0,"2021-11-25 09:12:51.484747","","","","","","",""
17.0,0.06547108292579651,0.0019663894646044875,"train",19220.0,"2021-11-25 09:12:54.623390","","","","","","",""
17.0,0.06361617147922516,0.001965958401155089,"train",19240.0,"2021-11-25 09:12:57.820305","","","","","","",""
17.0,0.05867728218436241,0.0019655246389000463,"train",19260.0,"2021-11-25 09:13:00.891359","","","","","","",""
17.0,0.04002922400832176,0.0019650881790512597,"train",19280.0,"2021-11-25 09:13:04.310996","","","","","","",""
17.0,0.07588201761245728,0.001964649022828165,"train",19300.0,"2021-11-25 09:13:07.469860","","","","","","",""
17.0,0.05527525022625923,0.0019642071714577325,"train",19320.0,"2021-11-25 09:13:10.638882","","","","","","",""
17.0,"","","train",19332.0,"2021-11-25 09:14:40.003835",0.6504984355671979,0.6852245514743422,0.961689250329386,0.6778062547535787,0.582401371442733,0.6032228068389847,0.4164200361513342
17.0,"","","val",19332.0,"2021-11-25 09:15:03.084839",0.594282732227763,0.5825531346883273,0.9379115843553978,0.6066076793966968,0.5067434213521489,0.5213573595529009,0.33656242532186637
18.0,0.07993704825639725,0.0019637626261744634,"train",19340.0,"2021-11-25 09:15:07.171588","","","","","","",""
18.0,0.04403577744960785,0.001963315388220384,"train",19360.0,"2021-11-25 09:15:10.469827","","","","","","",""
18.0,0.05964435264468193,0.0019628654588450443,"train",19380.0,"2021-11-25 09:15:13.725541","","","","","","",""
18.0,0.06501699984073639,0.001962412839305514,"train",19400.0,"2021-11-25 09:15:16.988726","","","","","","",""
18.0,0.048302002251148224,0.0019619575308663785,"train",19420.0,"2021-11-25 09:15:20.595971","","","","","","",""
18.0,0.04666798934340477,0.001961499534799737,"train",19440.0,"2021-11-25 09:15:23.656906","","","","","","",""
18.0,0.04988783225417137,0.001961038852385196,"train",19460.0,"2021-11-25 09:15:26.690455","","","","","","",""
18.0,0.07290605455636978,0.0019605754849098683,"train",19480.0,"2021-11-25 09:15:30.122316","","","","","","",""
18.0,0.03456658124923706,0.0019601094336683693,"train",19500.0,"2021-11-25 09:15:33.280377","","","","","","",""
18.0,0.06292454898357391,0.0019596406999628116,"train",19520.0,"2021-11-25 09:15:36.433419","","","","","","",""
18.0,0.04409114271402359,0.0019591692851028022,"train",19540.0,"2021-11-25 09:15:39.623650","","","","","","",""
18.0,0.042093683034181595,0.001958695190405441,"train",19560.0,"2021-11-25 09:15:43.228506","","","","","","",""
18.0,0.04737851396203041,0.001958218417195312,"train",19580.0,"2021-11-25 09:15:46.530581","","","","","","",""
18.0,0.07571128010749817,0.001957738966804486,"train",19600.0,"2021-11-25 09:15:49.790559","","","","","","",""
18.0,0.06898553669452667,0.001957256840572511,"train",19620.0,"2021-11-25 09:15:53.494982","","","","","","",""
18.0,0.03493151068687439,0.0019567720398464133,"train",19640.0,"2021-11-25 09:15:56.776785","","","","","","",""
18.0,0.052074238657951355,0.00195628456598069,"train",19660.0,"2021-11-25 09:16:00.047569","","","","","","",""
18.0,0.06160488724708557,0.001955794420337307,"train",19680.0,"2021-11-25 09:16:03.281821","","","","","","",""
18.0,0.06987346708774567,0.0019553016042856957,"train",19700.0,"2021-11-25 09:16:06.875777","","","","","","",""
18.0,0.059602152556180954,0.001954806119202748,"train",19720.0,"2021-11-25 09:16:10.108334","","","","","","",""
18.0,0.07514570653438568,0.001954307966472812,"train",19740.0,"2021-11-25 09:16:13.353524","","","","","","",""
18.0,0.04817350208759308,0.0019538071474876914,"train",19760.0,"2021-11-25 09:16:17.012282","","","","","","",""
18.0,0.043245162814855576,0.001953303663646636,"train",19780.0,"2021-11-25 09:16:20.305625","","","","","","",""
18.0,0.0640968456864357,0.0019527975163563436,"train",19800.0,"2021-11-25 09:16:23.477627","","","","","","",""
18.0,0.07446867972612381,0.0019522887070309524,"train",19820.0,"2021-11-25 09:16:26.550855","","","","","","",""
18.0,0.056327417492866516,0.0019517772370920379,"train",19840.0,"2021-11-25 09:16:30.007129","","","","","","",""
18.0,0.0664294883608818,0.0019512631079686104,"train",19860.0,"2021-11-25 09:16:33.086069","","","","","","",""
18.0,0.06514222174882889,0.001950746321097108,"train",19880.0,"2021-11-25 09:16:36.149278","","","","","","",""
18.0,0.03351403772830963,0.0019502268779213957,"train",19900.0,"2021-11-25 09:16:39.582308","","","","","","",""
18.0,0.04490165784955025,0.0019497047798927598,"train",19920.0,"2021-11-25 09:16:42.667556","","","","","","",""
18.0,0.0722435936331749,0.001949180028469903,"train",19940.0,"2021-11-25 09:16:45.742126","","","","","","",""
18.0,0.06460995227098465,0.0019486526251189435,"train",19960.0,"2021-11-25 09:16:48.823758","","","","","","",""
18.0,0.052267059683799744,0.0019481225713134064,"train",19980.0,"2021-11-25 09:16:52.386100","","","","","","",""
18.0,0.044580597430467606,0.0019475898685342235,"train",20000.0,"2021-11-25 09:16:55.590345","","","","","","",""
18.0,0.04072996973991394,0.0019470545182697272,"train",20020.0,"2021-11-25 09:16:58.782712","","","","","","",""
18.0,0.04534139111638069,0.001946516522015647,"train",20040.0,"2021-11-25 09:17:02.316068","","","","","","",""
18.0,0.03895501047372818,0.0019459758812751047,"train",20060.0,"2021-11-25 09:17:05.472678","","","","","","",""
18.0,0.06316663324832916,0.0019454325975586106,"train",20080.0,"2021-11-25 09:17:08.636172","","","","","","",""
18.0,0.04466695338487625,0.0019448866723840602,"train",20100.0,"2021-11-25 09:17:11.830523","","","","","","",""
18.0,0.03261850029230118,0.001944338107276728,"train",20120.0,"2021-11-25 09:17:15.506296","","","","","","",""
18.0,0.0658656433224678,0.0019437869037692644,"train",20140.0,"2021-11-25 09:17:18.825080","","","","","","",""
18.0,0.06036897003650665,0.0019432330634016912,"train",20160.0,"2021-11-25 09:17:22.146966","","","","","","",""
18.0,0.05116663873195648,0.0019426765877213986,"train",20180.0,"2021-11-25 09:17:25.701907","","","","","","",""
18.0,0.03753707930445671,0.0019421174782831383,"train",20200.0,"2021-11-25 09:17:28.778672","","","","","","",""
18.0,0.05492705851793289,0.0019415557366490208,"train",20220.0,"2021-11-25 09:17:31.949319","","","","","","",""
