"epoch","loss","lr","part","step","time","accuracy","auprc","auroc","challenge_metric","f_beta_measure","f_measure","g_beta_measure"
0.0,0.47786495089530945,8.000730236035311e-05,"train",20.0,"2021-12-07 09:21:57.297181","","","","","","",""
0.0,0.2946740686893463,8.002920933031948e-05,"train",40.0,"2021-12-07 09:22:00.567940","","","","","","",""
0.0,0.1445039063692093,8.006572057662293e-05,"train",60.0,"2021-12-07 09:22:03.837980","","","","","","",""
0.0,0.14906392991542816,8.011683554380914e-05,"train",80.0,"2021-12-07 09:22:07.135997","","","","","","",""
0.0,0.14213143289089203,8.018255345425274e-05,"train",100.0,"2021-12-07 09:22:10.628504","","","","","","",""
0.0,0.14407359063625336,8.026287330817079e-05,"train",120.0,"2021-12-07 09:22:13.873531","","","","","","",""
0.0,0.13445913791656494,8.03577938836373e-05,"train",140.0,"2021-12-07 09:22:17.118754","","","","","","",""
0.0,0.13328978419303894,8.04673137366021e-05,"train",160.0,"2021-12-07 09:22:20.520388","","","","","","",""
0.0,0.13892780244350433,8.059143120091187e-05,"train",180.0,"2021-12-07 09:22:23.777691","","","","","","",""
0.0,0.14584656059741974,8.073014438833613e-05,"train",200.0,"2021-12-07 09:22:27.061374","","","","","","",""
0.0,0.12825654447078705,8.088345118859724e-05,"train",220.0,"2021-12-07 09:22:30.539908","","","","","","",""
0.0,0.13654224574565887,8.10513492693996e-05,"train",240.0,"2021-12-07 09:22:33.768206","","","","","","",""
0.0,0.14469480514526367,8.123383607646804e-05,"train",260.0,"2021-12-07 09:22:37.043515","","","","","","",""
0.0,0.1342107504606247,8.143090883358495e-05,"train",280.0,"2021-12-07 09:22:40.569016","","","","","","",""
0.0,0.11828868836164474,8.164256454263295e-05,"train",300.0,"2021-12-07 09:22:43.852427","","","","","","",""
0.0,0.14136701822280884,8.186879998364088e-05,"train",320.0,"2021-12-07 09:22:47.032039","","","","","","",""
0.0,0.1488867551088333,8.210961171483213e-05,"train",340.0,"2021-12-07 09:22:50.259839","","","","","","",""
0.0,0.1270645260810852,8.236499607267717e-05,"train",360.0,"2021-12-07 09:22:53.686653","","","","","","",""
0.0,0.134536013007164,8.26349491719505e-05,"train",380.0,"2021-12-07 09:22:56.918218","","","","","","",""
0.0,0.13947714865207672,8.291946690578713e-05,"train",400.0,"2021-12-07 09:23:00.216056","","","","","","",""
0.0,0.1408037394285202,8.321854494574774e-05,"train",420.0,"2021-12-07 09:23:03.873712","","","","","","",""
0.0,0.13522449135780334,8.353217874188293e-05,"train",440.0,"2021-12-07 09:23:07.195184","","","","","","",""
0.0,0.13959138095378876,8.38603635228035e-05,"train",460.0,"2021-12-07 09:23:10.430934","","","","","","",""
0.0,0.1338609904050827,8.420309429575212e-05,"train",480.0,"2021-12-07 09:23:13.837150","","","","","","",""
0.0,0.13086214661598206,8.456036584667914e-05,"train",500.0,"2021-12-07 09:23:17.079989","","","","","","",""
0.0,0.14310108125209808,8.493217274032315e-05,"train",520.0,"2021-12-07 09:23:20.316097","","","","","","",""
0.0,0.13560307025909424,8.531850932029235e-05,"train",540.0,"2021-12-07 09:23:23.548833","","","","","","",""
0.0,0.12584054470062256,8.571936970915212e-05,"train",560.0,"2021-12-07 09:23:27.076286","","","","","","",""
0.0,0.11781323701143265,8.613474780851246e-05,"train",580.0,"2021-12-07 09:23:30.295725","","","","","","",""
0.0,0.13938291370868683,8.656463729912224e-05,"train",600.0,"2021-12-07 09:23:33.533827","","","","","","",""
0.0,0.11981002986431122,8.700903164096468e-05,"train",620.0,"2021-12-07 09:23:37.019331","","","","","","",""
0.0,0.12178449332714081,8.746792407335769e-05,"train",640.0,"2021-12-07 09:23:40.294191","","","","","","",""
0.0,0.111974336206913,8.794130761505497e-05,"train",660.0,"2021-12-07 09:23:43.559670","","","","","","",""
0.0,0.12288860976696014,8.842917506435462e-05,"train",680.0,"2021-12-07 09:23:47.105515","","","","","","",""
0.0,0.1262078881263733,8.893151899920645e-05,"train",700.0,"2021-12-07 09:23:50.500170","","","","","","",""
0.0,0.11037129908800125,8.944833177732632e-05,"train",720.0,"2021-12-07 09:23:53.902442","","","","","","",""
0.0,0.13809877634048462,8.997960553631186e-05,"train",740.0,"2021-12-07 09:23:57.233807","","","","","","",""
0.0,0.1390109807252884,9.052533219376224e-05,"train",760.0,"2021-12-07 09:24:00.827260","","","","","","",""
0.0,0.1186666265130043,9.108550344740104e-05,"train",780.0,"2021-12-07 09:24:04.186526","","","","","","",""
0.0,0.11690957844257355,9.166011077520208e-05,"train",800.0,"2021-12-07 09:24:07.549864","","","","","","",""
0.0,0.12152914702892303,9.224914543552059e-05,"train",820.0,"2021-12-07 09:24:11.080279","","","","","","",""
0.0,0.1297023743391037,9.285259846722417e-05,"train",840.0,"2021-12-07 09:24:14.367303","","","","","","",""
0.0,0.13159134984016418,9.34704606898307e-05,"train",860.0,"2021-12-07 09:24:17.704641","","","","","","",""
0.0,0.13776317238807678,9.410272270364735e-05,"train",880.0,"2021-12-07 09:24:21.185822","","","","","","",""
0.0,0.09978923946619034,9.474937488991348e-05,"train",900.0,"2021-12-07 09:24:24.403967","","","","","","",""
0.0,0.12044280022382736,9.541040741094719e-05,"train",920.0,"2021-12-07 09:24:27.640875","","","","","","",""
0.0,0.12076566368341446,9.608581021029522e-05,"train",940.0,"2021-12-07 09:24:31.073954","","","","","","",""
0.0,0.1440991461277008,9.677557301288509e-05,"train",960.0,"2021-12-07 09:24:34.346808","","","","","","",""
0.0,0.1134609654545784,9.747968532518238e-05,"train",980.0,"2021-12-07 09:24:37.614918","","","","","","",""
0.0,0.10275780409574509,9.819813643535029e-05,"train",1000.0,"2021-12-07 09:24:40.860821","","","","","","",""
0.0,0.1126609817147255,9.893091541341185e-05,"train",1020.0,"2021-12-07 09:24:44.374429","","","","","","",""
0.0,0.13259918987751007,9.967801111141644e-05,"train",1040.0,"2021-12-07 09:24:47.703729","","","","","","",""
0.0,0.11122261732816696,0.00010043941216361023,"train",1060.0,"2021-12-07 09:24:51.064926","","","","","","",""
0.0,"","","train",1074.0,"2021-12-07 09:26:28.788334",0.3884013679691479,0.20955689059991348,0.7843776704405007,0.2721081653674666,0.13086135407176452,0.12417985452536319,0.08490193153549079
0.0,"","","val",1074.0,"2021-12-07 09:26:52.413372",0.38519076887394177,0.2086467726758531,0.7848570904833576,0.2697641452315372,0.1313096290352314,0.12431369058539597,0.08479015384827199
1.0,0.09927017986774445,0.00010121510698660771,"train",1080.0,"2021-12-07 09:26:55.091218","","","","","","",""
1.0,0.08960746973752975,0.00010200508377956928,"train",1100.0,"2021-12-07 09:26:58.415574","","","","","","",""
1.0,0.12974976003170013,0.00010280933052437993,"train",1120.0,"2021-12-07 09:27:01.727666","","","","","","",""
1.0,0.11149968206882477,0.00010362783498583223,"train",1140.0,"2021-12-07 09:27:05.283376","","","","","","",""
1.0,0.13250567018985748,0.0001044605847118124,"train",1160.0,"2021-12-07 09:27:08.595383","","","","","","",""
1.0,0.11210041493177414,0.0001053075670334907,"train",1180.0,"2021-12-07 09:27:11.832024","","","","","","",""
1.0,0.11456777900457382,0.00010616876906551181,"train",1200.0,"2021-12-07 09:27:15.074024","","","","","","",""
1.0,0.12008798867464066,0.0001070441777061941,"train",1220.0,"2021-12-07 09:27:18.647497","","","","","","",""
1.0,0.09005235135555267,0.00010793377963772563,"train",1240.0,"2021-12-07 09:27:22.022976","","","","","","",""
1.0,0.08750878274440765,0.0001088375613263698,"train",1260.0,"2021-12-07 09:27:25.376232","","","","","","",""
1.0,0.10848826169967651,0.00010975550902266908,"train",1280.0,"2021-12-07 09:27:29.007856","","","","","","",""
1.0,0.10967137664556503,0.00011068760876165474,"train",1300.0,"2021-12-07 09:27:32.333685","","","","","","",""
1.0,0.08421480655670166,0.0001116338463630598,"train",1320.0,"2021-12-07 09:27:35.605791","","","","","","",""
1.0,0.12239520996809006,0.00011259420743153455,"train",1340.0,"2021-12-07 09:27:39.083343","","","","","","",""
1.0,0.11571568250656128,0.00011356867735686535,"train",1360.0,"2021-12-07 09:27:42.304305","","","","","","",""
1.0,0.11249009519815445,0.00011455724131419621,"train",1380.0,"2021-12-07 09:27:45.538054","","","","","","",""
1.0,0.1128481775522232,0.00011555988426425654,"train",1400.0,"2021-12-07 09:27:48.930374","","","","","","",""
1.0,0.10620982944965363,0.00011657659095358746,"train",1420.0,"2021-12-07 09:27:52.135354","","","","","","",""
1.0,0.0915822759270668,0.00011760734591477516,"train",1440.0,"2021-12-07 09:27:55.372642","","","","","","",""
1.0,0.10088600218296051,0.00011865213346668618,"train",1460.0,"2021-12-07 09:27:58.700698","","","","","","",""
1.0,0.1327974498271942,0.00011971093771470502,"train",1480.0,"2021-12-07 09:28:02.248502","","","","","","",""
1.0,0.08388902992010117,0.0001207837425509777,"train",1500.0,"2021-12-07 09:28:05.519454","","","","","","",""
1.0,0.08686966449022293,0.00012187053165465503,"train",1520.0,"2021-12-07 09:28:08.778284","","","","","","",""
1.0,0.11833160370588303,0.000122971288492142,"train",1540.0,"2021-12-07 09:28:12.230845","","","","","","",""
1.0,0.0986289381980896,0.00012408599631734863,"train",1560.0,"2021-12-07 09:28:15.482306","","","","","","",""
1.0,0.09547445178031921,0.00012521463817194542,"train",1580.0,"2021-12-07 09:28:18.758675","","","","","","",""
1.0,0.1007668748497963,0.00012635719688562077,"train",1600.0,"2021-12-07 09:28:22.215045","","","","","","",""
1.0,0.11839528381824493,0.00012751365507634267,"train",1620.0,"2021-12-07 09:28:25.501589","","","","","","",""
1.0,0.10155981034040451,0.0001286839951506226,"train",1640.0,"2021-12-07 09:28:28.789128","","","","","","",""
1.0,0.1128324419260025,0.00012986819930378333,"train",1660.0,"2021-12-07 09:28:32.087314","","","","","","",""
1.0,0.08062992990016937,0.00013106624952023064,"train",1680.0,"2021-12-07 09:28:35.562205","","","","","","",""
1.0,0.08003673702478409,0.00013227812757372545,"train",1700.0,"2021-12-07 09:28:38.936765","","","","","","",""
1.0,0.07928997278213501,0.00013350381502766394,"train",1720.0,"2021-12-07 09:28:42.310281","","","","","","",""
1.0,0.09889386594295502,0.00013474329323535494,"train",1740.0,"2021-12-07 09:28:45.871408","","","","","","",""
1.0,0.10498843342065811,0.0001359965433403059,"train",1760.0,"2021-12-07 09:28:49.245494","","","","","","",""
1.0,0.08366022258996964,0.00013726354627650872,"train",1780.0,"2021-12-07 09:28:52.610650","","","","","","",""
1.0,0.10084030032157898,0.00013854428276873052,"train",1800.0,"2021-12-07 09:28:56.117090","","","","","","",""
1.0,0.11083966493606567,0.00013983873333280506,"train",1820.0,"2021-12-07 09:28:59.364489","","","","","","",""
1.0,0.12140465527772903,0.00014114687827593156,"train",1840.0,"2021-12-07 09:29:02.610956","","","","","","",""
1.0,0.09360627084970474,0.00014246869769697352,"train",1860.0,"2021-12-07 09:29:05.905553","","","","","","",""
1.0,0.11091302335262299,0.00014380417148676054,"train",1880.0,"2021-12-07 09:29:09.359124","","","","","","",""
1.0,0.08095710724592209,0.00014515327932839404,"train",1900.0,"2021-12-07 09:29:12.681683","","","","","","",""
1.0,0.10267223417758942,0.0001465160006975598,"train",1920.0,"2021-12-07 09:29:16.045448","","","","","","",""
1.0,0.10533194988965988,0.00014789231486283454,"train",1940.0,"2021-12-07 09:29:19.595507","","","","","","",""
1.0,0.13215887546539307,0.00014928220088600633,"train",1960.0,"2021-12-07 09:29:22.955805","","","","","","",""
1.0,0.09076151996850967,0.00015068563762239045,"train",1980.0,"2021-12-07 09:29:26.343459","","","","","","",""
1.0,0.07651808112859726,0.00015210260372115238,"train",2000.0,"2021-12-07 09:29:29.915239","","","","","","",""
1.0,0.10714152455329895,0.00015353307762563115,"train",2020.0,"2021-12-07 09:29:33.303020","","","","","","",""
1.0,0.09051200747489929,0.00015497703757366872,"train",2040.0,"2021-12-07 09:29:36.634182","","","","","","",""
1.0,0.11011558026075363,0.00015643446159794,"train",2060.0,"2021-12-07 09:29:40.065235","","","","","","",""
1.0,0.0894584134221077,0.0001579053275262887,"train",2080.0,"2021-12-07 09:29:43.336604","","","","","","",""
1.0,0.09715889394283295,0.00015938961298206183,"train",2100.0,"2021-12-07 09:29:46.589599","","","","","","",""
1.0,0.08994594216346741,0.00016088729538445297,"train",2120.0,"2021-12-07 09:29:49.821726","","","","","","",""
1.0,0.07668042927980423,0.000162398351948844,"train",2140.0,"2021-12-07 09:29:53.260404","","","","","","",""
1.0,"","","train",2148.0,"2021-12-07 09:31:25.258117",0.43524703485410754,0.2889965204276642,0.8388882501586998,0.38020190107765944,0.19543990041809656,0.1860245463677162,0.133200946866785
1.0,"","","val",2148.0,"2021-12-07 09:31:49.084488",0.43018670996173025,0.2856648544486037,0.8360896276595724,0.372709980264923,0.1923048995027645,0.18406690446347723,0.1293131706811689
2.0,0.13139156997203827,0.00016392275968715297,"train",2160.0,"2021-12-07 09:31:52.818601","","","","","","",""
2.0,0.09499453008174896,0.00016546049540818223,"train",2180.0,"2021-12-07 09:31:56.222159","","","","","","",""
2.0,0.0924699455499649,0.00016701153571797313,"train",2200.0,"2021-12-07 09:31:59.874369","","","","","","",""
2.0,0.11575006693601608,0.00016857585702016015,"train",2220.0,"2021-12-07 09:32:03.300068","","","","","","",""
2.0,0.0995781347155571,0.00017015343551633126,"train",2240.0,"2021-12-07 09:32:06.638319","","","","","","",""
2.0,0.09793049097061157,0.0001717442472063892,"train",2260.0,"2021-12-07 09:32:10.121359","","","","","","",""
2.0,0.10934943705797195,0.00017334826788891681,"train",2280.0,"2021-12-07 09:32:13.405375","","","","","","",""
2.0,0.09161960333585739,0.00017496547316154555,"train",2300.0,"2021-12-07 09:32:16.652278","","","","","","",""
2.0,0.10044155269861221,0.00017659583842132573,"train",2320.0,"2021-12-07 09:32:19.924153","","","","","","",""
2.0,0.11791081726551056,0.00017823933886510217,"train",2340.0,"2021-12-07 09:32:23.366848","","","","","","",""
2.0,0.07722913473844528,0.00017989594948989015,"train",2360.0,"2021-12-07 09:32:26.624290","","","","","","",""
2.0,0.06876907497644424,0.00018156564509325753,"train",2380.0,"2021-12-07 09:32:29.934919","","","","","","",""
2.0,0.08698021620512009,0.0001832484002737059,"train",2400.0,"2021-12-07 09:32:33.544697","","","","","","",""
2.0,0.11650656163692474,0.00018494418943105877,"train",2420.0,"2021-12-07 09:32:36.840509","","","","","","",""
2.0,0.10469701886177063,0.00018665298676685078,"train",2440.0,"2021-12-07 09:32:40.229642","","","","","","",""
2.0,0.12514013051986694,0.0001883747662847191,"train",2460.0,"2021-12-07 09:32:43.792367","","","","","","",""
2.0,0.08056390285491943,0.00019010950179080112,"train",2480.0,"2021-12-07 09:32:47.180609","","","","","","",""
2.0,0.0826953575015068,0.00019185716689412995,"train",2500.0,"2021-12-07 09:32:50.566475","","","","","","",""
2.0,0.09562639147043228,0.00019361773500703797,"train",2520.0,"2021-12-07 09:32:53.958963","","","","","","",""
2.0,0.10297885537147522,0.00019539117934556168,"train",2540.0,"2021-12-07 09:32:57.556938","","","","","","",""
2.0,0.08563894778490067,0.00019717747292984696,"train",2560.0,"2021-12-07 09:33:00.970814","","","","","","",""
2.0,0.0995524674654007,0.0001989765885845624,"train",2580.0,"2021-12-07 09:33:04.425203","","","","","","",""
2.0,0.0906720757484436,0.00020078849893931014,"train",2600.0,"2021-12-07 09:33:08.059266","","","","","","",""
2.0,0.09428587555885315,0.0002026131764290434,"train",2620.0,"2021-12-07 09:33:11.398582","","","","","","",""
2.0,0.08543688803911209,0.00020445059329448614,"train",2640.0,"2021-12-07 09:33:14.797301","","","","","","",""
2.0,0.11955125629901886,0.00020630072158255497,"train",2660.0,"2021-12-07 09:33:18.246989","","","","","","",""
2.0,0.10551765561103821,0.00020816353314678467,"train",2680.0,"2021-12-07 09:33:21.478101","","","","","","",""
2.0,0.08845113217830658,0.00021003899964775505,"train",2700.0,"2021-12-07 09:33:24.871720","","","","","","",""
2.0,0.11241845041513443,0.00021192709255352473,"train",2720.0,"2021-12-07 09:33:28.526599","","","","","","",""
2.0,0.09476130455732346,0.00021382778314006255,"train",2740.0,"2021-12-07 09:33:31.917507","","","","","","",""
2.0,0.09376746416091919,0.00021574104249168615,"train",2760.0,"2021-12-07 09:33:35.257680","","","","","","",""
2.0,0.09419210255146027,0.00021766684150150133,"train",2780.0,"2021-12-07 09:33:38.527627","","","","","","",""
2.0,0.07738014310598373,0.00021960515087184485,"train",2800.0,"2021-12-07 09:33:42.002578","","","","","","",""
2.0,0.0838279202580452,0.00022155594111472978,"train",2820.0,"2021-12-07 09:33:45.304870","","","","","","",""
2.0,0.08812230080366135,0.0002235191825522959,"train",2840.0,"2021-12-07 09:33:48.570962","","","","","","",""
2.0,0.08156699687242508,0.00022549484531725838,"train",2860.0,"2021-12-07 09:33:52.006559","","","","","","",""
2.0,0.07648145407438278,0.00022748289935336434,"train",2880.0,"2021-12-07 09:33:55.283408","","","","","","",""
2.0,0.07624812424182892,0.00022948331441584964,"train",2900.0,"2021-12-07 09:33:58.564854","","","","","","",""
2.0,0.08807410299777985,0.00023149606007189785,"train",2920.0,"2021-12-07 09:34:02.112220","","","","","","",""
2.0,0.10570837557315826,0.00023352110570110476,"train",2940.0,"2021-12-07 09:34:05.448237","","","","","","",""
2.0,0.09484095126390457,0.00023555842049594305,"train",2960.0,"2021-12-07 09:34:08.749089","","","","","","",""
2.0,0.09200019389390945,0.00023760797346223305,"train",2980.0,"2021-12-07 09:34:12.023609","","","","","","",""
2.0,0.1168464943766594,0.00023966973341961028,"train",3000.0,"2021-12-07 09:34:15.502344","","","","","","",""
2.0,0.089713454246521,0.0002417436690020044,"train",3020.0,"2021-12-07 09:34:18.800399","","","","","","",""
2.0,0.08933541178703308,0.00024382974865811325,"train",3040.0,"2021-12-07 09:34:22.117977","","","","","","",""
2.0,0.13194556534290314,0.000245927940651884,"train",3060.0,"2021-12-07 09:34:25.561168","","","","","","",""
2.0,0.0827234536409378,0.0002480382130629953,"train",3080.0,"2021-12-07 09:34:28.802549","","","","","","",""
2.0,0.09828945994377136,0.0002501605337873443,"train",3100.0,"2021-12-07 09:34:32.047700","","","","","","",""
2.0,0.08773483335971832,0.0002522948705375337,"train",3120.0,"2021-12-07 09:34:35.570345","","","","","","",""
2.0,0.06772275269031525,0.00025444119084336303,"train",3140.0,"2021-12-07 09:34:38.802179","","","","","","",""
2.0,0.10013817250728607,0.00025659946205232364,"train",3160.0,"2021-12-07 09:34:42.020319","","","","","","",""
2.0,0.09369674324989319,0.0002587696513300941,"train",3180.0,"2021-12-07 09:34:45.378843","","","","","","",""
2.0,0.09062166512012482,0.0002609517256610412,"train",3200.0,"2021-12-07 09:34:48.958149","","","","","","",""
2.0,0.07954172044992447,0.00026314565184872084,"train",3220.0,"2021-12-07 09:34:52.247427","","","","","","",""
2.0,"","","train",3222.0,"2021-12-07 09:36:23.157879",0.4680055300880448,0.3603993123239063,0.868125607466659,0.45187941687167765,0.27468232125083636,0.27384774212452107,0.18127757713263618
2.0,"","","val",3222.0,"2021-12-07 09:36:46.927351",0.46265800765394877,0.35126144793671066,0.8668234426002981,0.44297346957070016,0.2685636689836942,0.26581269651833267,0.17560801742220133
3.0,0.10230270773172379,0.0002653513965163838,"train",3240.0,"2021-12-07 09:36:51.749705","","","","","","",""
3.0,0.08138996362686157,0.0002675689261074836,"train",3260.0,"2021-12-07 09:36:55.354854","","","","","","",""
3.0,0.06964799761772156,0.00026979820688618605,"train",3280.0,"2021-12-07 09:36:58.791469","","","","","","",""
3.0,0.0844312459230423,0.00027203920493788433,"train",3300.0,"2021-12-07 09:37:02.205696","","","","","","",""
3.0,0.11242397129535675,0.00027429188616971277,"train",3320.0,"2021-12-07 09:37:05.880627","","","","","","",""
3.0,0.10113421082496643,0.0002765562163110668,"train",3340.0,"2021-12-07 09:37:09.261308","","","","","","",""
3.0,0.07875242084264755,0.00027883216091412503,"train",3360.0,"2021-12-07 09:37:12.524256","","","","","","",""
3.0,0.10174933820962906,0.0002811196853543707,"train",3380.0,"2021-12-07 09:37:16.012156","","","","","","",""
3.0,0.09789377450942993,0.00028341875483112134,"train",3400.0,"2021-12-07 09:37:19.300530","","","","","","",""
3.0,0.07762978225946426,0.00028572933436805644,"train",3420.0,"2021-12-07 09:37:22.593823","","","","","","",""
3.0,0.07752707600593567,0.0002880513888137504,"train",3440.0,"2021-12-07 09:37:25.921518","","","","","","",""
3.0,0.06733404844999313,0.0002903848828422063,"train",3460.0,"2021-12-07 09:37:29.380260","","","","","","",""
3.0,0.0798029750585556,0.00029272978095339465,"train",3480.0,"2021-12-07 09:37:32.663647","","","","","","",""
3.0,0.08894196152687073,0.00029508604747379243,"train",3500.0,"2021-12-07 09:37:35.869243","","","","","","",""
3.0,0.11318057030439377,0.00029745364655692653,"train",3520.0,"2021-12-07 09:37:39.276152","","","","","","",""
3.0,0.08656705915927887,0.0002998325421839181,"train",3540.0,"2021-12-07 09:37:42.406168","","","","","","",""
3.0,0.08728262782096863,0.0003022226981640318,"train",3560.0,"2021-12-07 09:37:45.593849","","","","","","",""
3.0,0.09470430016517639,0.00030462407813522494,"train",3580.0,"2021-12-07 09:37:49.057964","","","","","","",""
3.0,0.06607574224472046,0.0003070366455647027,"train",3600.0,"2021-12-07 09:37:52.296542","","","","","","",""
3.0,0.09624066948890686,0.000309460363749471,"train",3620.0,"2021-12-07 09:37:55.527884","","","","","","",""
3.0,0.07245451211929321,0.0003118951958168978,"train",3640.0,"2021-12-07 09:37:58.773526","","","","","","",""
3.0,0.0663023591041565,0.0003143411047252722,"train",3660.0,"2021-12-07 09:38:02.209933","","","","","","",""
3.0,0.08099315315485,0.0003167980532643691,"train",3680.0,"2021-12-07 09:38:05.444840","","","","","","",""
3.0,0.07432080060243607,0.0003192660040560141,"train",3700.0,"2021-12-07 09:38:08.696160","","","","","","",""
3.0,0.08241325616836548,0.0003217449195546528,"train",3720.0,"2021-12-07 09:38:12.123539","","","","","","",""
3.0,0.09693100303411484,0.00032423476204792244,"train",3740.0,"2021-12-07 09:38:15.392508","","","","","","",""
3.0,0.08517764508724213,0.0003267354936572248,"train",3760.0,"2021-12-07 09:38:18.586684","","","","","","",""
3.0,0.07114079594612122,0.0003292470763383026,"train",3780.0,"2021-12-07 09:38:21.991615","","","","","","",""
3.0,0.07587127387523651,0.0003317694718818192,"train",3800.0,"2021-12-07 09:38:25.241970","","","","","","",""
3.0,0.10739460587501526,0.00033430264191393853,"train",3820.0,"2021-12-07 09:38:28.667580","","","","","","",""
3.0,0.08143749833106995,0.0003368465478969097,"train",3840.0,"2021-12-07 09:38:32.270501","","","","","","",""
3.0,0.08389530330896378,0.0003394011511296533,"train",3860.0,"2021-12-07 09:38:35.707091","","","","","","",""
3.0,0.07791111618280411,0.0003419664127483496,"train",3880.0,"2021-12-07 09:38:39.108505","","","","","","",""
3.0,0.07471620291471481,0.00034454229372703074,"train",3900.0,"2021-12-07 09:38:42.462741","","","","","","",""
3.0,0.09265191853046417,0.00034712875487817314,"train",3920.0,"2021-12-07 09:38:46.038094","","","","","","",""
3.0,0.08799964189529419,0.00034972575685329526,"train",3940.0,"2021-12-07 09:38:49.337146","","","","","","",""
3.0,0.09028157591819763,0.0003523332601435541,"train",3960.0,"2021-12-07 09:38:52.729891","","","","","","",""
3.0,0.10190200060606003,0.00035495122508034916,"train",3980.0,"2021-12-07 09:38:56.335705","","","","","","",""
3.0,0.09493030607700348,0.0003575796118359231,"train",4000.0,"2021-12-07 09:38:59.773736","","","","","","",""
3.0,0.0680188238620758,0.00036021838042396906,"train",4020.0,"2021-12-07 09:39:03.221329","","","","","","",""
3.0,0.12657687067985535,0.0003628674907002389,"train",4040.0,"2021-12-07 09:39:06.855949","","","","","","",""
3.0,0.08373192697763443,0.00036552690236315395,"train",4060.0,"2021-12-07 09:39:10.320882","","","","","","",""
3.0,0.08732191473245621,0.00036819657495441773,"train",4080.0,"2021-12-07 09:39:13.666014","","","","","","",""
3.0,0.06915169209241867,0.0003708764678596317,"train",4100.0,"2021-12-07 09:39:17.151863","","","","","","",""
3.0,0.10207913815975189,0.00037356654030891293,"train",4120.0,"2021-12-07 09:39:20.838935","","","","","","",""
3.0,0.07886232435703278,0.0003762667513775148,"train",4140.0,"2021-12-07 09:39:24.305107","","","","","","",""
3.0,0.0789157971739769,0.0003789770599864498,"train",4160.0,"2021-12-07 09:39:27.778402","","","","","","",""
3.0,0.07504032552242279,0.000381697424903113,"train",4180.0,"2021-12-07 09:39:31.351504","","","","","","",""
3.0,0.0802101194858551,0.0003844278047419108,"train",4200.0,"2021-12-07 09:39:34.746608","","","","","","",""
3.0,0.07110626250505447,0.0003871681579648903,"train",4220.0,"2021-12-07 09:39:38.158488","","","","","","",""
3.0,0.10333859175443649,0.0003899184428823709,"train",4240.0,"2021-12-07 09:39:41.741870","","","","","","",""
3.0,0.07947931438684464,0.0003926786176535783,"train",4260.0,"2021-12-07 09:39:45.151286","","","","","","",""
3.0,0.08798833191394806,0.0003954486402872818,"train",4280.0,"2021-12-07 09:39:48.581766","","","","","","",""
3.0,"","","train",4296.0,"2021-12-07 09:41:22.241757",0.5181255912100706,0.4258885184178143,0.88977125408649,0.515880478845574,0.33939790438118095,0.33818405650323385,0.23088902832080163
3.0,"","","val",4296.0,"2021-12-07 09:41:45.817993",0.5110750318914531,0.4155207973369909,0.8812890769834709,0.5049645105766214,0.3347302151081299,0.3300248517036136,0.22543943921841667
4.0,0.10262805968523026,0.0003982284686424324,"train",4300.0,"2021-12-07 09:41:48.198014","","","","","","",""
4.0,0.08000089973211288,0.0004010180604288045,"train",4320.0,"2021-12-07 09:41:51.934391","","","","","","",""
4.0,0.0932653620839119,0.00040381737320763873,"train",4340.0,"2021-12-07 09:41:55.378419","","","","","","",""
4.0,0.08217142522335052,0.0004066263643922878,"train",4360.0,"2021-12-07 09:41:58.772824","","","","","","",""
4.0,0.07746977359056473,0.0004094449912488646,"train",4380.0,"2021-12-07 09:42:02.347400","","","","","","",""
4.0,0.09021491557359695,0.0004122732108968923,"train",4400.0,"2021-12-07 09:42:05.720554","","","","","","",""
4.0,0.0945991799235344,0.0004151109803099558,"train",4420.0,"2021-12-07 09:42:09.107466","","","","","","",""
4.0,0.09663140028715134,0.00041795825631635764,"train",4440.0,"2021-12-07 09:42:12.661227","","","","","","",""
4.0,0.07410607486963272,0.0004208149955997739,"train",4460.0,"2021-12-07 09:42:16.058580","","","","","","",""
4.0,0.06353394687175751,0.0004236811546999141,"train",4480.0,"2021-12-07 09:42:19.486955","","","","","","",""
4.0,0.07437004148960114,0.0004265566900131805,"train",4500.0,"2021-12-07 09:42:23.196585","","","","","","",""
4.0,0.09196758270263672,0.0004294415577933337,"train",4520.0,"2021-12-07 09:42:26.609694","","","","","","",""
4.0,0.10525146126747131,0.00043233571415215717,"train",4540.0,"2021-12-07 09:42:29.934610","","","","","","",""
4.0,0.0846022292971611,0.0004352391150601242,"train",4560.0,"2021-12-07 09:42:33.157239","","","","","","",""
4.0,0.0820014476776123,0.0004381517163470684,"train",4580.0,"2021-12-07 09:42:36.591562","","","","","","",""
4.0,0.09978732466697693,0.00044107347370285683,"train",4600.0,"2021-12-07 09:42:39.822192","","","","","","",""
4.0,0.06756113469600677,0.00044400434267806194,"train",4620.0,"2021-12-07 09:42:43.032468","","","","","","",""
4.0,0.07377871125936508,0.00044694427868463907,"train",4640.0,"2021-12-07 09:42:46.611945","","","","","","",""
4.0,0.09727461636066437,0.00044989323699660467,"train",4660.0,"2021-12-07 09:42:49.924562","","","","","","",""
4.0,0.09466114640235901,0.0004528511727507165,"train",4680.0,"2021-12-07 09:42:53.229061","","","","","","",""
4.0,0.0719885379076004,0.00045581804094715645,"train",4700.0,"2021-12-07 09:42:56.655453","","","","","","",""
4.0,0.07790466398000717,0.00045879379645021425,"train",4720.0,"2021-12-07 09:42:59.888935","","","","","","",""
4.0,0.08525621891021729,0.0004617783939889759,"train",4740.0,"2021-12-07 09:43:03.156065","","","","","","",""
4.0,0.08248422294855118,0.0004647717881580103,"train",4760.0,"2021-12-07 09:43:06.419968","","","","","","",""
4.0,0.06374283879995346,0.0004677739334180617,"train",4780.0,"2021-12-07 09:43:09.882359","","","","","","",""
4.0,0.07641180604696274,0.00047078478409674144,"train",4800.0,"2021-12-07 09:43:13.148481","","","","","","",""
4.0,0.08164063096046448,0.00047380429438922305,"train",4820.0,"2021-12-07 09:43:16.440658","","","","","","",""
4.0,0.0757916122674942,0.00047683241835893946,"train",4840.0,"2021-12-07 09:43:19.986278","","","","","","",""
4.0,0.07476898282766342,0.0004798691099382815,"train",4860.0,"2021-12-07 09:43:23.371777","","","","","","",""
4.0,0.0788944885134697,0.0004829143229292986,"train",4880.0,"2021-12-07 09:43:26.657631","","","","","","",""
4.0,0.0844956785440445,0.0004859680110044023,"train",4900.0,"2021-12-07 09:43:30.135504","","","","","","",""
4.0,0.06326741725206375,0.0004890301277070699,"train",4920.0,"2021-12-07 09:43:33.431868","","","","","","",""
4.0,0.07377834618091583,0.0004921006264525525,"train",4940.0,"2021-12-07 09:43:36.738736","","","","","","",""
4.0,0.08207982033491135,0.0004951794605285824,"train",4960.0,"2021-12-07 09:43:40.153145","","","","","","",""
4.0,0.07392530888319016,0.0004982665830960853,"train",4980.0,"2021-12-07 09:43:43.697479","","","","","","",""
4.0,0.08030424267053604,0.0005013619471898913,"train",5000.0,"2021-12-07 09:43:47.035992","","","","","","",""
4.0,0.09733110666275024,0.0005044655057194504,"train",5020.0,"2021-12-07 09:43:50.391820","","","","","","",""
4.0,0.07091094553470612,0.0005075772114695486,"train",5040.0,"2021-12-07 09:43:54.015000","","","","","","",""
4.0,0.08156866580247879,0.0005106970171010257,"train",5060.0,"2021-12-07 09:43:57.316811","","","","","","",""
4.0,0.08456728607416153,0.0005138248751514966,"train",5080.0,"2021-12-07 09:44:00.640498","","","","","","",""
4.0,0.07789655774831772,0.0005169607380360731,"train",5100.0,"2021-12-07 09:44:04.150972","","","","","","",""
4.0,0.06890781223773956,0.000520104558048086,"train",5120.0,"2021-12-07 09:44:07.483043","","","","","","",""
4.0,0.07196008414030075,0.0005232562873598136,"train",5140.0,"2021-12-07 09:44:10.806443","","","","","","",""
4.0,0.08066075295209885,0.0005264158780232072,"train",5160.0,"2021-12-07 09:44:14.303017","","","","","","",""
4.0,0.10449487715959549,0.0005295832819706228,"train",5180.0,"2021-12-07 09:44:17.647106","","","","","","",""
4.0,0.06419642269611359,0.0005327584510155488,"train",5200.0,"2021-12-07 09:44:20.995477","","","","","","",""
4.0,0.07813987880945206,0.000535941336853343,"train",5220.0,"2021-12-07 09:44:24.338801","","","","","","",""
4.0,0.07056096941232681,0.0005391318910619655,"train",5240.0,"2021-12-07 09:44:27.875926","","","","","","",""
4.0,0.07350540161132812,0.0005423300651027144,"train",5260.0,"2021-12-07 09:44:31.160591","","","","","","",""
4.0,0.07654893398284912,0.0005455358103209663,"train",5280.0,"2021-12-07 09:44:34.475273","","","","","","",""
4.0,0.11455374956130981,0.0005487490779469157,"train",5300.0,"2021-12-07 09:44:38.018870","","","","","","",""
4.0,0.08656684309244156,0.000551969819096316,"train",5320.0,"2021-12-07 09:44:41.343084","","","","","","",""
4.0,0.09370861202478409,0.0005551979847712252,"train",5340.0,"2021-12-07 09:44:44.649112","","","","","","",""
4.0,0.06590891629457474,0.0005584335258607489,"train",5360.0,"2021-12-07 09:44:48.134343","","","","","","",""
4.0,"","","train",5370.0,"2021-12-07 09:46:19.565592",0.5369133376991924,0.468107170857631,0.9076208467276531,0.5456092769534993,0.373410278761597,0.3779921659680223,0.2535027589464129
4.0,"","","val",5370.0,"2021-12-07 09:46:43.407563",0.5267308361359155,0.46011805004074763,0.9035704150562587,0.5293749982351229,0.36146797634131683,0.3629468736556935,0.2423266426903695
5.0,0.07269157469272614,0.0005616763931417894,"train",5380.0,"2021-12-07 09:46:46.959224","","","","","","",""
5.0,0.10101216286420822,0.0005649265372797939,"train",5400.0,"2021-12-07 09:46:50.317964","","","","","","",""
5.0,0.06355185061693192,0.0005681839088295046,"train",5420.0,"2021-12-07 09:46:53.617086","","","","","","",""
5.0,0.08739546686410904,0.0005714484582357109,"train",5440.0,"2021-12-07 09:46:57.254875","","","","","","",""
5.0,0.10801878571510315,0.0005747201358340048,"train",5460.0,"2021-12-07 09:47:00.588415","","","","","","",""
5.0,0.06182055547833443,0.0005779988918515344,"train",5480.0,"2021-12-07 09:47:03.969192","","","","","","",""
5.0,0.0793822631239891,0.0005812846764077623,"train",5500.0,"2021-12-07 09:47:07.569285","","","","","","",""
5.0,0.0933707058429718,0.0005845774395152243,"train",5520.0,"2021-12-07 09:47:10.973481","","","","","","",""
5.0,0.07540609687566757,0.0005878771310802895,"train",5540.0,"2021-12-07 09:47:14.434628","","","","","","",""
5.0,0.05351691320538521,0.0005911837009039229,"train",5560.0,"2021-12-07 09:47:18.055912","","","","","","",""
5.0,0.08610870689153671,0.0005944970986824485,"train",5580.0,"2021-12-07 09:47:21.347559","","","","","","",""
5.0,0.06370935589075089,0.000597817274008315,"train",5600.0,"2021-12-07 09:47:24.747101","","","","","","",""
5.0,0.08990257233381271,0.0006011441763708635,"train",5620.0,"2021-12-07 09:47:28.370060","","","","","","",""
5.0,0.08044914156198502,0.0006044777551570929,"train",5640.0,"2021-12-07 09:47:31.799678","","","","","","",""
5.0,0.06549043953418732,0.000607817959652434,"train",5660.0,"2021-12-07 09:47:35.089343","","","","","","",""
5.0,0.06700316816568375,0.0006111647390415189,"train",5680.0,"2021-12-07 09:47:38.406352","","","","","","",""
5.0,0.08977105468511581,0.0006145180424089525,"train",5700.0,"2021-12-07 09:47:41.898719","","","","","","",""
5.0,0.06983581930398941,0.0006178778187400902,"train",5720.0,"2021-12-07 09:47:45.149735","","","","","","",""
5.0,0.08035828918218613,0.0006212440169218129,"train",5740.0,"2021-12-07 09:47:48.409702","","","","","","",""
5.0,0.09406334906816483,0.0006246165857433027,"train",5760.0,"2021-12-07 09:47:51.923987","","","","","","",""
5.0,0.08009912073612213,0.0006279954738968251,"train",5780.0,"2021-12-07 09:47:55.293158","","","","","","",""
5.0,0.07406365126371384,0.0006313806299785075,"train",5800.0,"2021-12-07 09:47:58.707463","","","","","","",""
5.0,0.0944288894534111,0.0006347720024891209,"train",5820.0,"2021-12-07 09:48:02.281956","","","","","","",""
5.0,0.09571188688278198,0.0006381695398348657,"train",5840.0,"2021-12-07 09:48:05.694243","","","","","","",""
5.0,0.04708350822329521,0.0006415731903281542,"train",5860.0,"2021-12-07 09:48:09.107364","","","","","","",""
5.0,0.07166355103254318,0.0006449829021883979,"train",5880.0,"2021-12-07 09:48:12.483964","","","","","","",""
5.0,0.07688259333372116,0.0006483986235427956,"train",5900.0,"2021-12-07 09:48:15.961197","","","","","","",""
5.0,0.07830769568681717,0.0006518203024271213,"train",5920.0,"2021-12-07 09:48:19.254188","","","","","","",""
5.0,0.09608536958694458,0.0006552478867865169,"train",5940.0,"2021-12-07 09:48:22.579895","","","","","","",""
5.0,0.07075530290603638,0.0006586813244762815,"train",5960.0,"2021-12-07 09:48:26.197502","","","","","","",""
5.0,0.09556686133146286,0.0006621205632626672,"train",5980.0,"2021-12-07 09:48:29.518025","","","","","","",""
5.0,0.06917468458414078,0.0006655655508236717,"train",6000.0,"2021-12-07 09:48:32.998752","","","","","","",""
5.0,0.06957899779081345,0.0006690162347498356,"train",6020.0,"2021-12-07 09:48:36.665916","","","","","","",""
5.0,0.07035718113183975,0.0006724725625450389,"train",6040.0,"2021-12-07 09:48:40.079878","","","","","","",""
5.0,0.09756369143724442,0.0006759344816273003,"train",6060.0,"2021-12-07 09:48:43.468407","","","","","","",""
5.0,0.06548614799976349,0.0006794019393295771,"train",6080.0,"2021-12-07 09:48:46.979304","","","","","","",""
5.0,0.0857972651720047,0.0006828748829005654,"train",6100.0,"2021-12-07 09:48:50.724491","","","","","","",""
5.0,0.08677207678556442,0.0006863532595055041,"train",6120.0,"2021-12-07 09:48:54.237317","","","","","","",""
5.0,0.08252958208322525,0.0006898370162269777,"train",6140.0,"2021-12-07 09:48:57.714124","","","","","","",""
5.0,0.08993345499038696,0.0006933261000657217,"train",6160.0,"2021-12-07 09:49:01.377025","","","","","","",""
5.0,0.09419571608304977,0.000696820457941429,"train",6180.0,"2021-12-07 09:49:04.780969","","","","","","",""
5.0,0.07253687083721161,0.000700320036693557,"train",6200.0,"2021-12-07 09:49:08.146185","","","","","","",""
5.0,0.0884888768196106,0.0007038247830821358,"train",6220.0,"2021-12-07 09:49:11.702176","","","","","","",""
5.0,0.07818900793790817,0.0007073346437885815,"train",6240.0,"2021-12-07 09:49:15.063466","","","","","","",""
5.0,0.06788681447505951,0.000710849565416502,"train",6260.0,"2021-12-07 09:49:18.435338","","","","","","",""
5.0,0.0676976814866066,0.0007143694944925134,"train",6280.0,"2021-12-07 09:49:22.029344","","","","","","",""
5.0,0.1150432601571083,0.0007178943774670524,"train",6300.0,"2021-12-07 09:49:25.356029","","","","","","",""
5.0,0.08726151287555695,0.0007214241607151901,"train",6320.0,"2021-12-07 09:49:28.612954","","","","","","",""
5.0,0.06653932482004166,0.000724958790537449,"train",6340.0,"2021-12-07 09:49:31.901071","","","","","","",""
5.0,0.08108149468898773,0.0007284982131606195,"train",6360.0,"2021-12-07 09:49:35.434964","","","","","","",""
5.0,0.07800363749265671,0.0007320423747385781,"train",6380.0,"2021-12-07 09:49:38.719252","","","","","","",""
5.0,0.07531247287988663,0.0007355912213531054,"train",6400.0,"2021-12-07 09:49:42.137636","","","","","","",""
5.0,0.07659982889890671,0.000739144699014708,"train",6420.0,"2021-12-07 09:49:45.725995","","","","","","",""
5.0,0.08328928053379059,0.0007427027536634401,"train",6440.0,"2021-12-07 09:49:49.078703","","","","","","",""
5.0,"","","train",6444.0,"2021-12-07 09:51:19.637147",0.5454704213053918,0.48936229158532674,0.9151993861676823,0.5699770740130478,0.3841139788201104,0.38785219312572955,0.2655360096530187
5.0,"","","val",6444.0,"2021-12-07 09:51:43.480806",0.5349646294792996,0.4674367868646731,0.9093516935708741,0.5525565280213166,0.3698335905126623,0.37082569501951074,0.2496860341923653
6.0,0.07896199822425842,0.0007462653311697235,"train",6460.0,"2021-12-07 09:51:47.989575","","","","","","",""
6.0,0.07655797153711319,0.0007498323773351733,"train",6480.0,"2021-12-07 09:51:51.715490","","","","","","",""
6.0,0.09035968780517578,0.0007534038378934223,"train",6500.0,"2021-12-07 09:51:55.098344","","","","","","",""
6.0,0.05762375518679619,0.0007569796585109453,"train",6520.0,"2021-12-07 09:51:58.340184","","","","","","",""
6.0,0.1007927805185318,0.0007605597847878862,"train",6540.0,"2021-12-07 09:52:01.636070","","","","","","",""
6.0,0.07259313762187958,0.0007641441622588871,"train",6560.0,"2021-12-07 09:52:05.150478","","","","","","",""
6.0,0.08282540738582611,0.0007677327363939143,"train",6580.0,"2021-12-07 09:52:08.563882","","","","","","",""
6.0,0.07188136130571365,0.0007713254525990895,"train",6600.0,"2021-12-07 09:52:11.891213","","","","","","",""
6.0,0.08695697784423828,0.0007749222562175211,"train",6620.0,"2021-12-07 09:52:15.398019","","","","","","",""
6.0,0.06069975718855858,0.000778523092530133,"train",6640.0,"2021-12-07 09:52:18.788518","","","","","","",""
6.0,0.07549005001783371,0.0007821279067564996,"train",6660.0,"2021-12-07 09:52:22.197885","","","","","","",""
6.0,0.07780160009860992,0.0007857366440556786,"train",6680.0,"2021-12-07 09:52:25.788573","","","","","","",""
6.0,0.08185294270515442,0.0007893492495270442,"train",6700.0,"2021-12-07 09:52:29.178241","","","","","","",""
6.0,0.10043107718229294,0.0007929656682111239,"train",6720.0,"2021-12-07 09:52:32.493932","","","","","","",""
6.0,0.10492033511400223,0.0007965858450904332,"train",6740.0,"2021-12-07 09:52:35.776775","","","","","","",""
6.0,0.07749622315168381,0.000800209725090314,"train",6760.0,"2021-12-07 09:52:39.384548","","","","","","",""
6.0,0.1024717390537262,0.0008038372530797706,"train",6780.0,"2021-12-07 09:52:42.635464","","","","","","",""
6.0,0.08029719442129135,0.0008074683738723109,"train",6800.0,"2021-12-07 09:52:45.857426","","","","","","",""
6.0,0.06028953939676285,0.0008111030322267832,"train",6820.0,"2021-12-07 09:52:49.394376","","","","","","",""
6.0,0.07980451732873917,0.0008147411728482187,"train",6840.0,"2021-12-07 09:52:52.744468","","","","","","",""
6.0,0.0623222291469574,0.0008183827403886721,"train",6860.0,"2021-12-07 09:52:56.108603","","","","","","",""
6.0,0.06706065684556961,0.0008220276794480633,"train",6880.0,"2021-12-07 09:52:59.662122","","","","","","",""
6.0,0.10705660283565521,0.0008256759345750203,"train",6900.0,"2021-12-07 09:53:03.025216","","","","","","",""
6.0,0.08087633550167084,0.0008293274502677234,"train",6920.0,"2021-12-07 09:53:06.368229","","","","","","",""
6.0,0.06078486889600754,0.0008329821709747486,"train",6940.0,"2021-12-07 09:53:10.063877","","","","","","",""
6.0,0.08212586492300034,0.0008366400410959136,"train",6960.0,"2021-12-07 09:53:13.485717","","","","","","",""
6.0,0.07410140335559845,0.000840301004983123,"train",6980.0,"2021-12-07 09:53:16.890061","","","","","","",""
6.0,0.07064450532197952,0.0008439650069412147,"train",7000.0,"2021-12-07 09:53:20.276247","","","","","","",""
6.0,0.06434860825538635,0.0008476319912288095,"train",7020.0,"2021-12-07 09:53:23.878996","","","","","","",""
6.0,0.06337442249059677,0.0008513019020591544,"train",7040.0,"2021-12-07 09:53:27.294951","","","","","","",""
6.0,0.09618034958839417,0.0008549746836009771,"train",7060.0,"2021-12-07 09:53:30.688111","","","","","","",""
6.0,0.12211678922176361,0.0008586502799793306,"train",7080.0,"2021-12-07 09:53:34.258407","","","","","","",""
6.0,0.06403355300426483,0.0008623286352764453,"train",7100.0,"2021-12-07 09:53:37.679160","","","","","","",""
6.0,0.07197649776935577,0.0008660096935325802,"train",7120.0,"2021-12-07 09:53:41.087165","","","","","","",""
6.0,0.07524238526821136,0.0008696933987468731,"train",7140.0,"2021-12-07 09:53:44.767621","","","","","","",""
6.0,0.059044189751148224,0.0008733796948781924,"train",7160.0,"2021-12-07 09:53:48.093866","","","","","","",""
6.0,0.0739564374089241,0.0008770685258459915,"train",7180.0,"2021-12-07 09:53:51.346537","","","","","","",""
6.0,0.09115753322839737,0.0008807598355311595,"train",7200.0,"2021-12-07 09:53:54.638659","","","","","","",""
6.0,0.12012722343206406,0.0008844535677768764,"train",7220.0,"2021-12-07 09:53:58.214140","","","","","","",""
6.0,0.06014551967382431,0.0008881496663894681,"train",7240.0,"2021-12-07 09:54:01.617149","","","","","","",""
6.0,0.08795137703418732,0.0008918480751392592,"train",7260.0,"2021-12-07 09:54:05.001630","","","","","","",""
6.0,0.0923629105091095,0.00089554873776143,"train",7280.0,"2021-12-07 09:54:08.550833","","","","","","",""
6.0,0.0658726915717125,0.0008992515979568724,"train",7300.0,"2021-12-07 09:54:11.828500","","","","","","",""
6.0,0.07821913808584213,0.0009029565993930457,"train",7320.0,"2021-12-07 09:54:15.232811","","","","","","",""
6.0,0.09441538155078888,0.0009066636857048339,"train",7340.0,"2021-12-07 09:54:18.830554","","","","","","",""
6.0,0.07728979736566544,0.0009103728004954039,"train",7360.0,"2021-12-07 09:54:22.203461","","","","","","",""
6.0,0.05662810057401657,0.0009140838873370617,"train",7380.0,"2021-12-07 09:54:25.583839","","","","","","",""
6.0,0.11085996776819229,0.0009177968897721136,"train",7400.0,"2021-12-07 09:54:28.970036","","","","","","",""
6.0,0.06788083165884018,0.0009215117513137218,"train",7420.0,"2021-12-07 09:54:32.545025","","","","","","",""
6.0,0.09566307067871094,0.0009252284154467663,"train",7440.0,"2021-12-07 09:54:35.883961","","","","","","",""
6.0,0.07918308675289154,0.0009289468256287042,"train",7460.0,"2021-12-07 09:54:39.291477","","","","","","",""
6.0,0.08814667165279388,0.0009326669252904287,"train",7480.0,"2021-12-07 09:54:42.812896","","","","","","",""
6.0,0.08253684639930725,0.0009363886578371307,"train",7500.0,"2021-12-07 09:54:46.084772","","","","","","",""
6.0,"","","train",7518.0,"2021-12-07 09:56:19.878258",0.5561376700865895,0.5156988898625477,0.9264094315212807,0.5710155178381583,0.4222278438654629,0.4250223974178268,0.28341421246267706
6.0,"","","val",7518.0,"2021-12-07 09:56:44.192517",0.5449959410877885,0.48745576646385486,0.9176510177978248,0.5530138671558907,0.40636544771721395,0.40728682949394107,0.26667234298999987
7.0,0.06393124908208847,0.0009401119666491604,"train",7520.0,"2021-12-07 09:56:46.201164","","","","","","",""
7.0,0.07436439394950867,0.0009438367950828869,"train",7540.0,"2021-12-07 09:56:49.964721","","","","","","",""
7.0,0.07092124968767166,0.000947563086471561,"train",7560.0,"2021-12-07 09:56:53.390913","","","","","","",""
7.0,0.07833965122699738,0.0009512907841261783,"train",7580.0,"2021-12-07 09:56:56.828168","","","","","","",""
7.0,0.087266705930233,0.0009550198313363391,"train",7600.0,"2021-12-07 09:57:00.501452","","","","","","",""
7.0,0.0890570655465126,0.0009587501713711128,"train",7620.0,"2021-12-07 09:57:03.926373","","","","","","",""
7.0,0.05856846645474434,0.0009624817474799023,"train",7640.0,"2021-12-07 09:57:07.332630","","","","","","",""
7.0,0.06049182265996933,0.0009662145028933038,"train",7660.0,"2021-12-07 09:57:10.747872","","","","","","",""
7.0,0.07749976962804794,0.0009699483808239733,"train",7680.0,"2021-12-07 09:57:14.351083","","","","","","",""
7.0,0.05598128214478493,0.0009736833244674895,"train",7700.0,"2021-12-07 09:57:17.747350","","","","","","",""
7.0,0.08274073153734207,0.0009774192770032192,"train",7720.0,"2021-12-07 09:57:21.113270","","","","","","",""
7.0,0.09088782221078873,0.0009811561815951785,"train",7740.0,"2021-12-07 09:57:24.579588","","","","","","",""
7.0,0.07578212767839432,0.0009848939813929015,"train",7760.0,"2021-12-07 09:57:27.974970","","","","","","",""
7.0,0.07723666727542877,0.0009886326195323026,"train",7780.0,"2021-12-07 09:57:31.351495","","","","","","",""
7.0,0.06193070486187935,0.0009923720391365428,"train",7800.0,"2021-12-07 09:57:34.907568","","","","","","",""
7.0,0.06649832427501678,0.000996112183316893,"train",7820.0,"2021-12-07 09:57:38.180819","","","","","","",""
7.0,0.08467274904251099,0.0009998529951736029,"train",7840.0,"2021-12-07 09:57:41.483839","","","","","","",""
7.0,0.06890732049942017,0.0010035944177967638,"train",7860.0,"2021-12-07 09:57:44.850577","","","","","","",""
7.0,0.112960085272789,0.0010073363942671744,"train",7880.0,"2021-12-07 09:57:48.437221","","","","","","",""
7.0,0.08794593811035156,0.0010110788676572094,"train",7900.0,"2021-12-07 09:57:51.827272","","","","","","",""
7.0,0.0903574526309967,0.0010148217810316822,"train",7920.0,"2021-12-07 09:57:55.167318","","","","","","",""
7.0,0.06340481340885162,0.0010185650774487127,"train",7940.0,"2021-12-07 09:57:58.792206","","","","","","",""
7.0,0.06566275656223297,0.0010223086999605951,"train",7960.0,"2021-12-07 09:58:02.104367","","","","","","",""
7.0,0.08845417946577072,0.0010260525916146609,"train",7980.0,"2021-12-07 09:58:05.345828","","","","","","",""
7.0,0.08957407623529434,0.0010297966954541469,"train",8000.0,"2021-12-07 09:58:08.909950","","","","","","",""
7.0,0.07680121064186096,0.001033540954519064,"train",8020.0,"2021-12-07 09:58:12.324841","","","","","","",""
7.0,0.10315946489572525,0.0010372853118470592,"train",8040.0,"2021-12-07 09:58:15.763342","","","","","","",""
7.0,0.09199610352516174,0.0010410297104742857,"train",8060.0,"2021-12-07 09:58:19.377073","","","","","","",""
7.0,0.05805858597159386,0.0010447740934362692,"train",8080.0,"2021-12-07 09:58:22.705703","","","","","","",""
7.0,0.07823918014764786,0.0010485184037687715,"train",8100.0,"2021-12-07 09:58:26.138883","","","","","","",""
7.0,0.08203661441802979,0.0010522625845086615,"train",8120.0,"2021-12-07 09:58:29.581797","","","","","","",""
7.0,0.07356693595647812,0.0010560065786947796,"train",8140.0,"2021-12-07 09:58:33.215668","","","","","","",""
7.0,0.08161765336990356,0.0010597503293688013,"train",8160.0,"2021-12-07 09:58:36.609814","","","","","","",""
7.0,0.059079598635435104,0.001063493779576111,"train",8180.0,"2021-12-07 09:58:39.984129","","","","","","",""
7.0,0.1232508197426796,0.0010672368723666614,"train",8200.0,"2021-12-07 09:58:43.452490","","","","","","",""
7.0,0.08873118460178375,0.0010709795507958426,"train",8220.0,"2021-12-07 09:58:46.716081","","","","","","",""
7.0,0.053047869354486465,0.0010747217579253504,"train",8240.0,"2021-12-07 09:58:49.961857","","","","","","",""
7.0,0.11006195843219757,0.0010784634368240487,"train",8260.0,"2021-12-07 09:58:53.385582","","","","","","",""
7.0,0.0706687718629837,0.0010822045305688382,"train",8280.0,"2021-12-07 09:58:56.616162","","","","","","",""
7.0,0.08247586339712143,0.0010859449822455227,"train",8300.0,"2021-12-07 09:59:00.030137","","","","","","",""
7.0,0.07304193824529648,0.001089684734949672,"train",8320.0,"2021-12-07 09:59:03.477950","","","","","","",""
7.0,0.07870160043239594,0.00109342373178749,"train",8340.0,"2021-12-07 09:59:07.105538","","","","","","",""
7.0,0.053074903786182404,0.0010971619158766821,"train",8360.0,"2021-12-07 09:59:10.561296","","","","","","",""
7.0,0.07920107990503311,0.0011008992303473152,"train",8380.0,"2021-12-07 09:59:14.004007","","","","","","",""
7.0,0.08488287031650543,0.001104635618342687,"train",8400.0,"2021-12-07 09:59:17.566781","","","","","","",""
7.0,0.07976614683866501,0.001108371023020191,"train",8420.0,"2021-12-07 09:59:20.909272","","","","","","",""
7.0,0.06752655655145645,0.0011121053875521787,"train",8440.0,"2021-12-07 09:59:24.163816","","","","","","",""
7.0,0.097710981965065,0.0011158386551268257,"train",8460.0,"2021-12-07 09:59:27.602886","","","","","","",""
7.0,0.06617239862680435,0.0011195707689489972,"train",8480.0,"2021-12-07 09:59:30.834056","","","","","","",""
7.0,0.08214113861322403,0.0011233016722411097,"train",8500.0,"2021-12-07 09:59:34.115061","","","","","","",""
7.0,0.06428559869527817,0.0011270313082439951,"train",8520.0,"2021-12-07 09:59:37.434447","","","","","","",""
7.0,0.09498532116413116,0.001130759620217767,"train",8540.0,"2021-12-07 09:59:40.929823","","","","","","",""
7.0,0.07442972809076309,0.0011344865514426794,"train",8560.0,"2021-12-07 09:59:44.310128","","","","","","",""
7.0,0.061782944947481155,0.0011382120452199938,"train",8580.0,"2021-12-07 09:59:47.715536","","","","","","",""
7.0,"","","train",8592.0,"2021-12-07 10:01:20.866205",0.5759441170050207,0.5396724443777645,0.9287344774433195,0.6148244186461207,0.442167942154181,0.44729667264950046,0.30330929145285207
7.0,"","","val",8592.0,"2021-12-07 10:01:44.711030",0.560825698712745,0.5033220812936053,0.9189720878263827,0.5924431859991514,0.4215468541309396,0.4237257885536293,0.2820702347167532
8.0,0.06373117864131927,0.001141936044872839,"train",8600.0,"2021-12-07 10:01:47.820302","","","","","","",""
8.0,0.07006149739027023,0.0011456584937470744,"train",8620.0,"2021-12-07 10:01:51.143203","","","","","","",""
8.0,0.06618336588144302,0.0011493793352121522,"train",8640.0,"2021-12-07 10:01:54.520142","","","","","","",""
8.0,0.06889943778514862,0.0011530985126619784,"train",8660.0,"2021-12-07 10:01:58.156493","","","","","","",""
8.0,0.0699336901307106,0.001156815969515773,"train",8680.0,"2021-12-07 10:02:01.564782","","","","","","",""
8.0,0.09297376871109009,0.001160531649218934,"train",8700.0,"2021-12-07 10:02:04.941664","","","","","","",""
8.0,0.09178584069013596,0.001164245495243894,"train",8720.0,"2021-12-07 10:02:08.511405","","","","","","",""
8.0,0.055722545832395554,0.0011679574510909817,"train",8740.0,"2021-12-07 10:02:11.919039","","","","","","",""
8.0,0.05276336148381233,0.0011716674602892828,"train",8760.0,"2021-12-07 10:02:15.224537","","","","","","",""
8.0,0.07734912633895874,0.0011753754663974968,"train",8780.0,"2021-12-07 10:02:18.497697","","","","","","",""
8.0,0.06159592047333717,0.0011790814130047968,"train",8800.0,"2021-12-07 10:02:22.036936","","","","","","",""
8.0,0.07829826325178146,0.001182785243731688,"train",8820.0,"2021-12-07 10:02:25.277748","","","","","","",""
8.0,0.0915227085351944,0.0011864869022308656,"train",8840.0,"2021-12-07 10:02:28.540980","","","","","","",""
8.0,0.06883768737316132,0.0011901863321880693,"train",8860.0,"2021-12-07 10:02:31.985222","","","","","","",""
8.0,0.08564824610948563,0.001193883477322945,"train",8880.0,"2021-12-07 10:02:35.281115","","","","","","",""
8.0,0.08259393274784088,0.0011975782813898961,"train",8900.0,"2021-12-07 10:02:38.548722","","","","","","",""
8.0,0.0724099799990654,0.0012012706881789417,"train",8920.0,"2021-12-07 10:02:41.984246","","","","","","",""
8.0,0.09603387862443924,0.001204960641516572,"train",8940.0,"2021-12-07 10:02:45.255250","","","","","","",""
8.0,0.0826256275177002,0.0012086480852666014,"train",8960.0,"2021-12-07 10:02:48.546474","","","","","","",""
8.0,0.07269229739904404,0.0012123329633310235,"train",8980.0,"2021-12-07 10:02:51.839248","","","","","","",""
8.0,0.12506547570228577,0.0012160152196508643,"train",9000.0,"2021-12-07 10:02:55.317623","","","","","","",""
8.0,0.08106524497270584,0.0012196947982070355,"train",9020.0,"2021-12-07 10:02:58.598259","","","","","","",""
8.0,0.08442278206348419,0.0012233716430211856,"train",9040.0,"2021-12-07 10:03:01.886399","","","","","","",""
8.0,0.06295843422412872,0.001227045698156553,"train",9060.0,"2021-12-07 10:03:05.362376","","","","","","",""
8.0,0.06084265559911728,0.0012307169077188148,"train",9080.0,"2021-12-07 10:03:08.672571","","","","","","",""
8.0,0.05924438685178757,0.0012343852158569401,"train",9100.0,"2021-12-07 10:03:11.987535","","","","","","",""
8.0,0.07717002928256989,0.0012380505667640377,"train",9120.0,"2021-12-07 10:03:15.464092","","","","","","",""
8.0,0.057780321687459946,0.0012417129046782046,"train",9140.0,"2021-12-07 10:03:18.830039","","","","","","",""
8.0,0.0793665423989296,0.0012453721738833758,"train",9160.0,"2021-12-07 10:03:22.174494","","","","","","",""
8.0,0.08943086862564087,0.001249028318710172,"train",9180.0,"2021-12-07 10:03:25.547743","","","","","","",""
8.0,0.054670508950948715,0.0012526812835367447,"train",9200.0,"2021-12-07 10:03:29.105068","","","","","","",""
8.0,0.07107458263635635,0.0012563310127896242,"train",9220.0,"2021-12-07 10:03:32.387151","","","","","","",""
8.0,0.06477570533752441,0.0012599774509445645,"train",9240.0,"2021-12-07 10:03:35.670332","","","","","","",""
8.0,0.08012794703245163,0.0012636205425273874,"train",9260.0,"2021-12-07 10:03:39.248692","","","","","","",""
8.0,0.06615572422742844,0.0012672602321148268,"train",9280.0,"2021-12-07 10:03:42.664491","","","","","","",""
8.0,0.09188327938318253,0.0012708964643353732,"train",9300.0,"2021-12-07 10:03:45.985588","","","","","","",""
8.0,0.058150261640548706,0.001274529183870114,"train",9320.0,"2021-12-07 10:03:49.520869","","","","","","",""
8.0,0.10271742194890976,0.0012781583354535748,"train",9340.0,"2021-12-07 10:03:52.857018","","","","","","",""
8.0,0.07346908003091812,0.0012817838638745646,"train",9360.0,"2021-12-07 10:03:56.159789","","","","","","",""
8.0,0.08760896325111389,0.001285405713977009,"train",9380.0,"2021-12-07 10:03:59.713131","","","","","","",""
8.0,0.100829117000103,0.0012890238306607947,"train",9400.0,"2021-12-07 10:04:03.001843","","","","","","",""
8.0,0.09321926534175873,0.001292638158882606,"train",9420.0,"2021-12-07 10:04:06.302879","","","","","","",""
8.0,0.07525353878736496,0.0012962486436567603,"train",9440.0,"2021-12-07 10:04:09.634477","","","","","","",""
8.0,0.08499699085950851,0.0012998552300560484,"train",9460.0,"2021-12-07 10:04:13.162912","","","","","","",""
8.0,0.06535572558641434,0.0013034578632125668,"train",9480.0,"2021-12-07 10:04:16.504808","","","","","","",""
8.0,0.0581885427236557,0.0013070564883185534,"train",9500.0,"2021-12-07 10:04:19.814999","","","","","","",""
8.0,0.08655337244272232,0.001310651050627223,"train",9520.0,"2021-12-07 10:04:23.456925","","","","","","",""
8.0,0.059756409376859665,0.001314241495453598,"train",9540.0,"2021-12-07 10:04:26.884717","","","","","","",""
8.0,0.0667407363653183,0.00131782776817534,"train",9560.0,"2021-12-07 10:04:30.352605","","","","","","",""
8.0,0.09228932112455368,0.0013214098142335837,"train",9580.0,"2021-12-07 10:04:34.048637","","","","","","",""
8.0,0.06534411758184433,0.001324987579133764,"train",9600.0,"2021-12-07 10:04:37.480426","","","","","","",""
8.0,0.09439051151275635,0.0013285610084464463,"train",9620.0,"2021-12-07 10:04:40.875341","","","","","","",""
8.0,0.05560029670596123,0.001332130047808155,"train",9640.0,"2021-12-07 10:04:44.293443","","","","","","",""
8.0,0.06670565158128738,0.001335694642922199,"train",9660.0,"2021-12-07 10:04:47.864980","","","","","","",""
8.0,"","","train",9666.0,"2021-12-07 10:06:20.139992",0.5956050352906934,0.5685376172639167,0.9339727946789099,0.6192551519271319,0.4653210518151337,0.48262463405563566,0.3225626488420025
8.0,"","","val",9666.0,"2021-12-07 10:06:44.090699",0.5749159225327612,0.5311970981796189,0.9245051194606907,0.5911157766040476,0.438973601294517,0.4522485597012635,0.29670852712567497
9.0,0.06588952243328094,0.0013392547395594985,"train",9680.0,"2021-12-07 10:06:48.141355","","","","","","",""
9.0,0.06175965815782547,0.001342810283559412,"train",9700.0,"2021-12-07 10:06:51.434447","","","","","","",""
9.0,0.0670044869184494,0.0013463612208305564,"train",9720.0,"2021-12-07 10:06:54.966199","","","","","","",""
9.0,0.06771103292703629,0.0013499074973516321,"train",9740.0,"2021-12-07 10:06:58.185187","","","","","","",""
9.0,0.057592835277318954,0.0013534490591722464,"train",9760.0,"2021-12-07 10:07:01.467360","","","","","","",""
9.0,0.0723351538181305,0.0013569858524137305,"train",9780.0,"2021-12-07 10:07:04.947725","","","","","","",""
9.0,0.08423097431659698,0.001360517823269962,"train",9800.0,"2021-12-07 10:07:08.359082","","","","","","",""
9.0,0.0591178834438324,0.0013640449180081834,"train",9820.0,"2021-12-07 10:07:11.744675","","","","","","",""
9.0,0.05083557590842247,0.0013675670829698173,"train",9840.0,"2021-12-07 10:07:15.340655","","","","","","",""
9.0,0.07937382161617279,0.0013710842645712853,"train",9860.0,"2021-12-07 10:07:18.743672","","","","","","",""
9.0,0.06487462669610977,0.0013745964093048219,"train",9880.0,"2021-12-07 10:07:22.175273","","","","","","",""
9.0,0.08254865556955338,0.0013781034637392886,"train",9900.0,"2021-12-07 10:07:25.635377","","","","","","",""
9.0,0.06304135173559189,0.0013816053745209864,"train",9920.0,"2021-12-07 10:07:29.266732","","","","","","",""
9.0,0.06037071347236633,0.0013851020883744697,"train",9940.0,"2021-12-07 10:07:32.667141","","","","","","",""
9.0,0.08056666702032089,0.001388593552103353,"train",9960.0,"2021-12-07 10:07:36.004038","","","","","","",""
9.0,0.07755083590745926,0.0013920797125911233,"train",9980.0,"2021-12-07 10:07:39.427989","","","","","","",""
9.0,0.06456410139799118,0.001395560516801947,"train",10000.0,"2021-12-07 10:07:42.782658","","","","","","",""
9.0,0.09027185291051865,0.0013990359117814774,"train",10020.0,"2021-12-07 10:07:46.068125","","","","","","",""
9.0,0.05447835475206375,0.0014025058446576583,"train",10040.0,"2021-12-07 10:07:49.609643","","","","","","",""
9.0,0.07805822789669037,0.0014059702626415317,"train",10060.0,"2021-12-07 10:07:52.880681","","","","","","",""
9.0,0.07269830256700516,0.0014094291130280377,"train",10080.0,"2021-12-07 10:07:56.174135","","","","","","",""
9.0,0.06522893905639648,0.0014128823431968183,"train",10100.0,"2021-12-07 10:07:59.406059","","","","","","",""
9.0,0.061632245779037476,0.001416329900613017,"train",10120.0,"2021-12-07 10:08:02.828369","","","","","","",""
9.0,0.061151690781116486,0.0014197717328280782,"train",10140.0,"2021-12-07 10:08:06.088694","","","","","","",""
9.0,0.06761695444583893,0.0014232077874805457,"train",10160.0,"2021-12-07 10:08:09.371572","","","","","","",""
9.0,0.06061359867453575,0.0014266380122968589,"train",10180.0,"2021-12-07 10:08:12.867911","","","","","","",""
9.0,0.09364792704582214,0.0014300623550921468,"train",10200.0,"2021-12-07 10:08:16.175476","","","","","","",""
9.0,0.07564642280340195,0.0014334807637710243,"train",10220.0,"2021-12-07 10:08:19.456388","","","","","","",""
9.0,0.06231159344315529,0.0014368931863283831,"train",10240.0,"2021-12-07 10:08:22.892127","","","","","","",""
9.0,0.0917506068944931,0.0014402995708501826,"train",10260.0,"2021-12-07 10:08:26.156734","","","","","","",""
9.0,0.09565332531929016,0.0014436998655142422,"train",10280.0,"2021-12-07 10:08:29.420246","","","","","","",""
9.0,0.08642946928739548,0.0014470940185910258,"train",10300.0,"2021-12-07 10:08:32.690732","","","","","","",""
9.0,0.08077764511108398,0.001450481978444431,"train",10320.0,"2021-12-07 10:08:36.211137","","","","","","",""
9.0,0.04898330569267273,0.0014538636935325763,"train",10340.0,"2021-12-07 10:08:39.489764","","","","","","",""
9.0,0.051148004829883575,0.0014572391124085817,"train",10360.0,"2021-12-07 10:08:42.852801","","","","","","",""
9.0,0.06535196304321289,0.0014606081837213525,"train",10380.0,"2021-12-07 10:08:46.466691","","","","","","",""
9.0,0.07118649035692215,0.0014639708562163639,"train",10400.0,"2021-12-07 10:08:49.890328","","","","","","",""
9.0,0.0537421889603138,0.001467327078736435,"train",10420.0,"2021-12-07 10:08:53.209457","","","","","","",""
9.0,0.0771680623292923,0.0014706768002225108,"train",10440.0,"2021-12-07 10:08:56.656824","","","","","","",""
9.0,0.07415970414876938,0.0014740199697144392,"train",10460.0,"2021-12-07 10:08:59.928017","","","","","","",""
9.0,0.07866273820400238,0.0014773565363517442,"train",10480.0,"2021-12-07 10:09:03.253275","","","","","","",""
9.0,0.061771243810653687,0.0014806864493744007,"train",10500.0,"2021-12-07 10:09:06.743251","","","","","","",""
9.0,0.0511636920273304,0.0014840096581236072,"train",10520.0,"2021-12-07 10:09:10.051901","","","","","","",""
9.0,0.057949990034103394,0.001487326112042556,"train",10540.0,"2021-12-07 10:09:13.336183","","","","","","",""
9.0,0.08271225541830063,0.0014906357606772013,"train",10560.0,"2021-12-07 10:09:16.633083","","","","","","",""
9.0,0.08079000562429428,0.0014939385536770291,"train",10580.0,"2021-12-07 10:09:20.111944","","","","","","",""
9.0,0.09154730290174484,0.0014972344407958218,"train",10600.0,"2021-12-07 10:09:23.445522","","","","","","",""
9.0,0.07678690552711487,0.0015005233718924213,"train",10620.0,"2021-12-07 10:09:26.772515","","","","","","",""
9.0,0.05951610207557678,0.0015038052969314946,"train",10640.0,"2021-12-07 10:09:30.362154","","","","","","",""
9.0,0.07347613573074341,0.0015070801659842939,"train",10660.0,"2021-12-07 10:09:33.696189","","","","","","",""
9.0,0.10182037949562073,0.001510347929229414,"train",10680.0,"2021-12-07 10:09:37.095027","","","","","","",""
9.0,0.07542408257722855,0.0015136085369535537,"train",10700.0,"2021-12-07 10:09:40.615188","","","","","","",""
9.0,0.064651258289814,0.0015168619395522708,"train",10720.0,"2021-12-07 10:09:43.977636","","","","","","",""
9.0,0.05361159145832062,0.0015201080875307349,"train",10740.0,"2021-12-07 10:09:47.277865","","","","","","",""
9.0,"","","train",10740.0,"2021-12-07 10:11:18.192834",0.5941497489631085,0.5746181529239214,0.9372440168797034,0.6180003050742315,0.4800859281968963,0.4865207325811394,0.33109777964637277
9.0,"","","val",10740.0,"2021-12-07 10:11:42.045472",0.5687695697553056,0.5393611444684336,0.9266673491368335,0.5888803250676506,0.4546922688649281,0.4597160569008772,0.3053129943625704
10.0,0.056481413543224335,0.0015233469315044834,"train",10760.0,"2021-12-07 10:11:47.177085","","","","","","",""
10.0,0.06732229143381119,0.0015265784222001709,"train",10780.0,"2021-12-07 10:11:50.829052","","","","","","",""
10.0,0.06417357921600342,0.0015298025104563185,"train",10800.0,"2021-12-07 10:11:54.033465","","","","","","",""
10.0,0.10082141309976578,0.001533019147224064,"train",10820.0,"2021-12-07 10:11:57.257848","","","","","","",""
10.0,0.06401491165161133,0.0015362282835679054,"train",10840.0,"2021-12-07 10:12:00.680554","","","","","","",""
10.0,0.05184758082032204,0.0015394298706664469,"train",10860.0,"2021-12-07 10:12:03.924467","","","","","","",""
10.0,0.10366252809762955,0.001542623859813141,"train",10880.0,"2021-12-07 10:12:07.215697","","","","","","",""
10.0,0.07589580863714218,0.00154581020241703,"train",10900.0,"2021-12-07 10:12:10.793344","","","","","","",""
10.0,0.05909138545393944,0.0015489888500034858,"train",10920.0,"2021-12-07 10:12:14.173423","","","","","","",""
10.0,0.05466700717806816,0.0015521597542149444,"train",10940.0,"2021-12-07 10:12:17.525965","","","","","","",""
10.0,0.044054143130779266,0.0015553228668116455,"train",10960.0,"2021-12-07 10:12:20.770787","","","","","","",""
10.0,0.04819449409842491,0.0015584781396723642,"train",10980.0,"2021-12-07 10:12:24.215292","","","","","","",""
10.0,0.061269551515579224,0.0015616255247951432,"train",11000.0,"2021-12-07 10:12:27.612965","","","","","","",""
10.0,0.07403769344091415,0.0015647649742980233,"train",11020.0,"2021-12-07 10:12:30.959526","","","","","","",""
10.0,0.059018585830926895,0.0015678964404197727,"train",11040.0,"2021-12-07 10:12:34.368950","","","","","","",""
10.0,0.07691822946071625,0.0015710198755206112,"train",11060.0,"2021-12-07 10:12:37.587270","","","","","","",""
10.0,0.09053211659193039,0.0015741352320829379,"train",11080.0,"2021-12-07 10:12:40.829217","","","","","","",""
10.0,0.07208843529224396,0.0015772424627120527,"train",11100.0,"2021-12-07 10:12:44.351290","","","","","","",""
10.0,0.07768028229475021,0.0015803415201368761,"train",11120.0,"2021-12-07 10:12:47.663692","","","","","","",""
10.0,0.09786457568407059,0.001583432357210671,"train",11140.0,"2021-12-07 10:12:50.945129","","","","","","",""
10.0,0.05609370395541191,0.001586514926911758,"train",11160.0,"2021-12-07 10:12:54.494216","","","","","","",""
10.0,0.08423566073179245,0.0015895891823442313,"train",11180.0,"2021-12-07 10:12:57.803816","","","","","","",""
10.0,0.06777697801589966,0.0015926550767386717,"train",11200.0,"2021-12-07 10:13:01.079227","","","","","","",""
10.0,0.054464418441057205,0.0015957125634528599,"train",11220.0,"2021-12-07 10:13:04.325786","","","","","","",""
10.0,0.0727786272764206,0.0015987615959724836,"train",11240.0,"2021-12-07 10:13:07.768966","","","","","","",""
10.0,0.05746984854340553,0.0016018021279118457,"train",11260.0,"2021-12-07 10:13:11.013389","","","","","","",""
10.0,0.06827130913734436,0.0016048341130145728,"train",11280.0,"2021-12-07 10:13:14.278495","","","","","","",""
10.0,0.07653367519378662,0.0016078575051543145,"train",11300.0,"2021-12-07 10:13:17.805129","","","","","","",""
10.0,0.05087165907025337,0.0016108722583354478,"train",11320.0,"2021-12-07 10:13:21.135236","","","","","","",""
10.0,0.0555608756840229,0.0016138783266937777,"train",11340.0,"2021-12-07 10:13:24.483987","","","","","","",""
10.0,0.06361843645572662,0.0016168756644972322,"train",11360.0,"2021-12-07 10:13:28.091723","","","","","","",""
10.0,0.07242530584335327,0.0016198642261465587,"train",11380.0,"2021-12-07 10:13:31.417239","","","","","","",""
10.0,0.05218524858355522,0.0016228439661760208,"train",11400.0,"2021-12-07 10:13:34.779719","","","","","","",""
10.0,0.05621970817446709,0.001625814839254086,"train",11420.0,"2021-12-07 10:13:38.101890","","","","","","",""
10.0,0.0610322467982769,0.0016287768001841164,"train",11440.0,"2021-12-07 10:13:41.577971","","","","","","",""
10.0,0.08521983027458191,0.001631729803905059,"train",11460.0,"2021-12-07 10:13:44.873862","","","","","","",""
10.0,0.06273606419563293,0.0016346738054921273,"train",11480.0,"2021-12-07 10:13:48.156604","","","","","","",""
10.0,0.10010666400194168,0.001637608760157486,"train",11500.0,"2021-12-07 10:13:51.646934","","","","","","",""
10.0,0.06263560801744461,0.0016405346232509356,"train",11520.0,"2021-12-07 10:13:54.966010","","","","","","",""
10.0,0.06286489963531494,0.0016434513502605861,"train",11540.0,"2021-12-07 10:13:58.374095","","","","","","",""
10.0,0.05151940882205963,0.0016463588968135383,"train",11560.0,"2021-12-07 10:14:01.973672","","","","","","",""
10.0,0.07833047211170197,0.0016492572186765577,"train",11580.0,"2021-12-07 10:14:05.310330","","","","","","",""
10.0,0.0787019357085228,0.001652146271756747,"train",11600.0,"2021-12-07 10:14:08.610828","","","","","","",""
10.0,0.04992120340466499,0.0016550260121022172,"train",11620.0,"2021-12-07 10:14:11.876197","","","","","","",""
10.0,0.06100787967443466,0.0016578963959027562,"train",11640.0,"2021-12-07 10:14:15.325459","","","","","","",""
10.0,0.08810637891292572,0.001660757379490496,"train",11660.0,"2021-12-07 10:14:18.608839","","","","","","",""
10.0,0.07477879524230957,0.0016636089193405761,"train",11680.0,"2021-12-07 10:14:21.946616","","","","","","",""
10.0,0.08699899911880493,0.0016664509720718049,"train",11700.0,"2021-12-07 10:14:25.583658","","","","","","",""
10.0,0.05772237852215767,0.0016692834944473224,"train",11720.0,"2021-12-07 10:14:28.947186","","","","","","",""
10.0,0.0784340500831604,0.0016721064433752554,"train",11740.0,"2021-12-07 10:14:32.320172","","","","","","",""
10.0,0.08370757102966309,0.0016749197759093734,"train",11760.0,"2021-12-07 10:14:35.857056","","","","","","",""
10.0,0.08096872270107269,0.0016777234492497436,"train",11780.0,"2021-12-07 10:14:39.183125","","","","","","",""
10.0,0.06724147498607635,0.0016805174207433808,"train",11800.0,"2021-12-07 10:14:42.429241","","","","","","",""
10.0,"","","train",11814.0,"2021-12-07 10:16:13.905795",0.616633922724296,0.5987688467322004,0.9430912408803832,0.6405178783251179,0.49768102773704154,0.5127299467070097,0.3478184792574944
10.0,"","","val",11814.0,"2021-12-07 10:16:37.732844",0.5901658355560709,0.5585463840734355,0.9334736909509407,0.6095149571171902,0.47297893180246436,0.4831418161720779,0.3205912524042154
11.0,0.03317306190729141,0.0016833016478848956,"train",11820.0,"2021-12-07 10:16:40.834715","","","","","","",""
11.0,0.06657497584819794,0.0016860760883171426,"train",11840.0,"2021-12-07 10:16:44.114336","","","","","","",""
11.0,0.09901078045368195,0.001688840699831864,"train",11860.0,"2021-12-07 10:16:47.352770","","","","","","",""
11.0,0.07158706337213516,0.0016915954403703313,"train",11880.0,"2021-12-07 10:16:50.572641","","","","","","",""
11.0,0.09430412203073502,0.0016943402680239862,"train",11900.0,"2021-12-07 10:16:54.053686","","","","","","",""
11.0,0.06586217880249023,0.0016970751410350774,"train",11920.0,"2021-12-07 10:16:57.422493","","","","","","",""
11.0,0.05571896582841873,0.001699800017797296,"train",11940.0,"2021-12-07 10:17:00.759463","","","","","","",""
11.0,0.08109883219003677,0.0017025148568564086,"train",11960.0,"2021-12-07 10:17:04.289055","","","","","","",""
11.0,0.09090987592935562,0.001705219616910888,"train",11980.0,"2021-12-07 10:17:07.570823","","","","","","",""
11.0,0.10639295727014542,0.001707914256812541,"train",12000.0,"2021-12-07 10:17:10.910164","","","","","","",""
11.0,0.05237897112965584,0.0017105987355671352,"train",12020.0,"2021-12-07 10:17:14.517844","","","","","","",""
11.0,0.06414870917797089,0.0017132730123350227,"train",12040.0,"2021-12-07 10:17:17.889932","","","","","","",""
11.0,0.0958242267370224,0.00171593704643176,"train",12060.0,"2021-12-07 10:17:21.234491","","","","","","",""
11.0,0.06542408466339111,0.0017185907973287285,"train",12080.0,"2021-12-07 10:17:24.591501","","","","","","",""
11.0,0.06477464735507965,0.0017212342246537506,"train",12100.0,"2021-12-07 10:17:28.108710","","","","","","",""
11.0,0.08048530668020248,0.0017238672881917032,"train",12120.0,"2021-12-07 10:17:31.402424","","","","","","",""
11.0,0.07253904640674591,0.001726489947885131,"train",12140.0,"2021-12-07 10:17:34.720189","","","","","","",""
11.0,0.07866018265485764,0.0017291021638348543,"train",12160.0,"2021-12-07 10:17:38.269784","","","","","","",""
11.0,0.07543789595365524,0.0017317038963005765,"train",12180.0,"2021-12-07 10:17:41.632829","","","","","","",""
11.0,0.09706380218267441,0.00173429510570149,"train",12200.0,"2021-12-07 10:17:45.045709","","","","","","",""
11.0,0.06437448412179947,0.0017368757526168759,"train",12220.0,"2021-12-07 10:17:48.734149","","","","","","",""
11.0,0.09256169199943542,0.0017394457977867057,"train",12240.0,"2021-12-07 10:17:52.162639","","","","","","",""
11.0,0.08942679315805435,0.0017420052021122378,"train",12260.0,"2021-12-07 10:17:55.570747","","","","","","",""
11.0,0.046646155416965485,0.0017445539266566128,"train",12280.0,"2021-12-07 10:17:59.165416","","","","","","",""
11.0,0.07067219167947769,0.001747091932645445,"train",12300.0,"2021-12-07 10:18:02.584862","","","","","","",""
11.0,0.06897212564945221,0.0017496191814674125,"train",12320.0,"2021-12-07 10:18:05.920850","","","","","","",""
11.0,0.07180938869714737,0.001752135634674846,"train",12340.0,"2021-12-07 10:18:09.162383","","","","","","",""
11.0,0.05546389892697334,0.0017546412539843118,"train",12360.0,"2021-12-07 10:18:12.636969","","","","","","",""
11.0,0.08458589017391205,0.001757136001277194,"train",12380.0,"2021-12-07 10:18:15.991745","","","","","","",""
11.0,0.06626936793327332,0.001759619838600278,"train",12400.0,"2021-12-07 10:18:19.389767","","","","","","",""
11.0,0.07692842930555344,0.0017620927281663229,"train",12420.0,"2021-12-07 10:18:22.888562","","","","","","",""
11.0,0.07645159214735031,0.0017645546323546398,"train",12440.0,"2021-12-07 10:18:26.092471","","","","","","",""
11.0,0.06192389503121376,0.0017670055137116636,"train",12460.0,"2021-12-07 10:18:29.369994","","","","","","",""
11.0,0.04728231206536293,0.0017694453349515209,"train",12480.0,"2021-12-07 10:18:32.818569","","","","","","",""
11.0,0.06071813404560089,0.0017718740589566,"train",12500.0,"2021-12-07 10:18:36.064237","","","","","","",""
11.0,0.08399684727191925,0.0017742916487781134,"train",12520.0,"2021-12-07 10:18:39.268504","","","","","","",""
11.0,0.05156240239739418,0.0017766980676366608,"train",12540.0,"2021-12-07 10:18:42.511539","","","","","","",""
11.0,0.05859672278165817,0.001779093278922789,"train",12560.0,"2021-12-07 10:18:45.984075","","","","","","",""
11.0,0.06214974820613861,0.001781477246197548,"train",12580.0,"2021-12-07 10:18:49.400982","","","","","","",""
11.0,0.07548002153635025,0.0017838499331930462,"train",12600.0,"2021-12-07 10:18:52.794300","","","","","","",""
11.0,0.07137584686279297,0.001786211303813001,"train",12620.0,"2021-12-07 10:18:56.367955","","","","","","",""
11.0,0.05251948535442352,0.0017885613221332894,"train",12640.0,"2021-12-07 10:18:59.668696","","","","","","",""
11.0,0.05885344371199608,0.0017908999524024931,"train",12660.0,"2021-12-07 10:19:02.975698","","","","","","",""
11.0,0.061686042696237564,0.0017932271590424438,"train",12680.0,"2021-12-07 10:19:06.452841","","","","","","",""
11.0,0.053212765604257584,0.0017955429066487635,"train",12700.0,"2021-12-07 10:19:09.738958","","","","","","",""
11.0,0.057857975363731384,0.0017978471599914025,"train",12720.0,"2021-12-07 10:19:13.097283","","","","","","",""
11.0,0.07864794880151749,0.0018001398840151778,"train",12740.0,"2021-12-07 10:19:16.463390","","","","","","",""
11.0,0.11366397142410278,0.0018024210438403031,"train",12760.0,"2021-12-07 10:19:19.997839","","","","","","",""
11.0,0.05262686684727669,0.0018046906047629228,"train",12780.0,"2021-12-07 10:19:23.289192","","","","","","",""
11.0,0.07424840331077576,0.0018069485322556372,"train",12800.0,"2021-12-07 10:19:26.581405","","","","","","",""
11.0,0.07168363034725189,0.001809194791968029,"train",12820.0,"2021-12-07 10:19:30.113313","","","","","","",""
11.0,0.05919834226369858,0.0018114293497271863,"train",12840.0,"2021-12-07 10:19:33.460259","","","","","","",""
11.0,0.059982337057590485,0.0018136521715382218,"train",12860.0,"2021-12-07 10:19:36.844369","","","","","","",""
11.0,0.04556053504347801,0.0018158632235847892,"train",12880.0,"2021-12-07 10:19:40.386877","","","","","","",""
11.0,"","","train",12888.0,"2021-12-07 10:21:11.874567",0.6195881539692935,0.6119933056461804,0.9446645851655429,0.6696496529127237,0.5211286912936617,0.5298022687771996,0.36574584969547075
11.0,"","","val",12888.0,"2021-12-07 10:21:35.602709",0.5917314159805173,0.5653789608148991,0.9331037513871994,0.6325502314883914,0.4867079735509857,0.49369185512105884,0.32750248794893955
12.0,0.04817288741469383,0.0018180624722295999,"train",12900.0,"2021-12-07 10:21:39.317231","","","","","","",""
12.0,0.06048072874546051,0.001820249884014933,"train",12920.0,"2021-12-07 10:21:42.533726","","","","","","",""
12.0,0.07893256098031998,0.001822425425663144,"train",12940.0,"2021-12-07 10:21:46.020246","","","","","","",""
12.0,0.07739764451980591,0.0018245890640771725,"train",12960.0,"2021-12-07 10:21:49.313097","","","","","","",""
12.0,0.09165509045124054,0.0018267407663410452,"train",12980.0,"2021-12-07 10:21:52.589215","","","","","","",""
12.0,0.06771968305110931,0.0018288804997203755,"train",13000.0,"2021-12-07 10:21:55.847803","","","","","","",""
12.0,0.07332845777273178,0.0018310082316628634,"train",13020.0,"2021-12-07 10:21:59.232512","","","","","","",""
12.0,0.07787644118070602,0.0018331239297987893,"train",13040.0,"2021-12-07 10:22:02.350191","","","","","","",""
12.0,0.08992554992437363,0.0018352275619415066,"train",13060.0,"2021-12-07 10:22:05.487485","","","","","","",""
12.0,0.05249610170722008,0.0018373190960879326,"train",13080.0,"2021-12-07 10:22:08.837249","","","","","","",""
12.0,0.08399911224842072,0.0018393985004190336,"train",13100.0,"2021-12-07 10:22:12.185981","","","","","","",""
12.0,0.05047121271491051,0.00184146574330031,"train",13120.0,"2021-12-07 10:22:15.556359","","","","","","",""
12.0,0.05020492896437645,0.001843520793282278,"train",13140.0,"2021-12-07 10:22:19.065558","","","","","","",""
12.0,0.06296297162771225,0.0018455636191009464,"train",13160.0,"2021-12-07 10:22:22.366584","","","","","","",""
12.0,0.10044894367456436,0.001847594189678294,"train",13180.0,"2021-12-07 10:22:25.678326","","","","","","",""
12.0,0.0903770849108696,0.0018496124741227415,"train",13200.0,"2021-12-07 10:22:28.967460","","","","","","",""
12.0,0.05479160696268082,0.001851618441729622,"train",13220.0,"2021-12-07 10:22:32.475132","","","","","","",""
12.0,0.08920462429523468,0.0018536120619816467,"train",13240.0,"2021-12-07 10:22:35.800921","","","","","","",""
12.0,0.06888330727815628,0.0018555933045493712,"train",13260.0,"2021-12-07 10:22:39.228712","","","","","","",""
12.0,0.08500741422176361,0.0018575621392916554,"train",13280.0,"2021-12-07 10:22:42.855423","","","","","","",""
12.0,0.05915354564785957,0.0018595185362561225,"train",13300.0,"2021-12-07 10:22:46.296795","","","","","","",""
12.0,0.06258894503116608,0.0018614624656796155,"train",13320.0,"2021-12-07 10:22:49.696075","","","","","","",""
12.0,0.06351456791162491,0.0018633938979886484,"train",13340.0,"2021-12-07 10:22:53.285815","","","","","","",""
12.0,0.04519541561603546,0.0018653128037998568,"train",13360.0,"2021-12-07 10:22:56.625317","","","","","","",""
12.0,0.0562366358935833,0.0018672191539204459,"train",13380.0,"2021-12-07 10:22:59.962249","","","","","","",""
12.0,0.09211063385009766,0.0018691129193486335,"train",13400.0,"2021-12-07 10:23:03.330577","","","","","","",""
12.0,0.05046963319182396,0.0018709940712740908,"train",13420.0,"2021-12-07 10:23:06.871163","","","","","","",""
12.0,0.06896066665649414,0.0018728625810783823,"train",13440.0,"2021-12-07 10:23:10.200137","","","","","","",""
12.0,0.07358098775148392,0.0018747184203353996,"train",13460.0,"2021-12-07 10:23:13.523518","","","","","","",""
12.0,0.06126429885625839,0.0018765615608117947,"train",13480.0,"2021-12-07 10:23:17.143532","","","","","","",""
12.0,0.0500481016933918,0.0018783919744674096,"train",13500.0,"2021-12-07 10:23:20.563396","","","","","","",""
12.0,0.06453244388103485,0.0018802096334557027,"train",13520.0,"2021-12-07 10:23:23.984988","","","","","","",""
12.0,0.04533329978585243,0.0018820145101241712,"train",13540.0,"2021-12-07 10:23:27.653717","","","","","","",""
12.0,0.0581040233373642,0.0018838065770147745,"train",13560.0,"2021-12-07 10:23:31.014089","","","","","","",""
12.0,0.06463261693716049,0.0018855858068643496,"train",13580.0,"2021-12-07 10:23:34.265510","","","","","","",""
12.0,0.08566970378160477,0.001887352172605026,"train",13600.0,"2021-12-07 10:23:37.734326","","","","","","",""
12.0,0.06251402199268341,0.0018891056473646398,"train",13620.0,"2021-12-07 10:23:41.006404","","","","","","",""
12.0,0.06273897737264633,0.0018908462044671395,"train",13640.0,"2021-12-07 10:23:44.268622","","","","","","",""
12.0,0.04530194774270058,0.001892573817432993,"train",13660.0,"2021-12-07 10:23:47.634875","","","","","","",""
12.0,0.07810857892036438,0.0018942884599795914,"train",13680.0,"2021-12-07 10:23:51.227791","","","","","","",""
12.0,0.059136368334293365,0.001895990106021648,"train",13700.0,"2021-12-07 10:23:54.620321","","","","","","",""
12.0,0.05541166290640831,0.0018976787296715943,"train",13720.0,"2021-12-07 10:23:58.003110","","","","","","",""
12.0,0.05697876960039139,0.0018993543052399757,"train",13740.0,"2021-12-07 10:24:01.658219","","","","","","",""
12.0,0.07179044932126999,0.0019010168072358413,"train",13760.0,"2021-12-07 10:24:05.085238","","","","","","",""
12.0,0.05154817923903465,0.0019026662103671305,"train",13780.0,"2021-12-07 10:24:08.509731","","","","","","",""
12.0,0.07969933748245239,0.0019043024895410605,"train",13800.0,"2021-12-07 10:24:12.113157","","","","","","",""
12.0,0.07343202084302902,0.001905925619864506,"train",13820.0,"2021-12-07 10:24:15.411125","","","","","","",""
12.0,0.05335797742009163,0.001907535576644378,"train",13840.0,"2021-12-07 10:24:18.641455","","","","","","",""
12.0,0.05927988514304161,0.0019091323353880008,"train",13860.0,"2021-12-07 10:24:21.901460","","","","","","",""
12.0,0.06051734834909439,0.0019107158718034828,"train",13880.0,"2021-12-07 10:24:25.424586","","","","","","",""
12.0,0.07221866399049759,0.001912286161800088,"train",13900.0,"2021-12-07 10:24:28.766694","","","","","","",""
12.0,0.041125308722257614,0.0019138431814886008,"train",13920.0,"2021-12-07 10:24:32.129104","","","","","","",""
12.0,0.05848297104239464,0.0019153869071816896,"train",13940.0,"2021-12-07 10:24:35.660359","","","","","","",""
12.0,0.06868293136358261,0.0019169173153942693,"train",13960.0,"2021-12-07 10:24:38.881734","","","","","","",""
12.0,"","","train",13962.0,"2021-12-07 10:26:09.201255",0.6356690678891072,0.6319008719165449,0.947274188479326,0.6530660305695937,0.505755037463194,0.5278416882145881,0.35874860365597566
12.0,"","","val",13962.0,"2021-12-07 10:26:33.406888",0.598399628899455,0.5796010385091638,0.932032897182532,0.607374303135981,0.45744435439637693,0.47920034563555586,0.3106026990707066
13.0,0.06671497225761414,0.0019184343828438557,"train",13980.0,"2021-12-07 10:26:38.094411","","","","","","",""
13.0,0.050797946751117706,0.0019199380864509208,"train",14000.0,"2021-12-07 10:26:41.762816","","","","","","",""
13.0,0.046008698642253876,0.0019214284033392457,"train",14020.0,"2021-12-07 10:26:45.095765","","","","","","",""
13.0,0.04526817053556442,0.0019229053108362649,"train",14040.0,"2021-12-07 10:26:48.364079","","","","","","",""
13.0,0.05231758579611778,0.0019243687864734145,"train",14060.0,"2021-12-07 10:26:51.764412","","","","","","",""
13.0,0.0608394630253315,0.0019258188079864732,"train",14080.0,"2021-12-07 10:26:55.000830","","","","","","",""
13.0,0.06155054271221161,0.0019272553533158999,"train",14100.0,"2021-12-07 10:26:58.246499","","","","","","",""
13.0,0.07438983023166656,0.0019286784006071697,"train",14120.0,"2021-12-07 10:27:01.569082","","","","","","",""
13.0,0.0759437158703804,0.0019300879282111083,"train",14140.0,"2021-12-07 10:27:05.107539","","","","","","",""
13.0,0.04669379070401192,0.0019314839146842185,"train",14160.0,"2021-12-07 10:27:08.412209","","","","","","",""
13.0,0.05218753591179848,0.0019328663387890076,"train",14180.0,"2021-12-07 10:27:11.673839","","","","","","",""
13.0,0.038896530866622925,0.0019342351794943119,"train",14200.0,"2021-12-07 10:27:15.126430","","","","","","",""
13.0,0.09773887693881989,0.0019355904159756138,"train",14220.0,"2021-12-07 10:27:18.506718","","","","","","",""
13.0,0.07163522392511368,0.0019369320276153613,"train",14240.0,"2021-12-07 10:27:21.920941","","","","","","",""
13.0,0.045924361795186996,0.00193825999400328,"train",14260.0,"2021-12-07 10:27:25.493472","","","","","","",""
13.0,0.06509540230035782,0.0019395742949366843,"train",14280.0,"2021-12-07 10:27:28.880406","","","","","","",""
13.0,0.08335474878549576,0.0019408749104207845,"train",14300.0,"2021-12-07 10:27:32.266881","","","","","","",""
13.0,0.08459911495447159,0.0019421618206689913,"train",14320.0,"2021-12-07 10:27:35.531852","","","","","","",""
13.0,0.058178409934043884,0.0019434350061032163,"train",14340.0,"2021-12-07 10:27:38.981193","","","","","","",""
13.0,0.04856807738542557,0.0019446944473541703,"train",14360.0,"2021-12-07 10:27:42.236807","","","","","","",""
13.0,0.06993141770362854,0.0019459401252616573,"train",14380.0,"2021-12-07 10:27:45.525387","","","","","","",""
13.0,0.05312112718820572,0.001947172020874868,"train",14400.0,"2021-12-07 10:27:48.999193","","","","","","",""
13.0,0.05877514183521271,0.0019483901154526647,"train",14420.0,"2021-12-07 10:27:52.328706","","","","","","",""
13.0,0.07032040506601334,0.0019495943904638694,"train",14440.0,"2021-12-07 10:27:55.677703","","","","","","",""
13.0,0.07373279333114624,0.0019507848275875444,"train",14460.0,"2021-12-07 10:27:59.187894","","","","","","",""
13.0,0.057044874876737595,0.0019519614087132712,"train",14480.0,"2021-12-07 10:28:02.484666","","","","","","",""
13.0,0.08517415076494217,0.0019531241159414263,"train",14500.0,"2021-12-07 10:28:05.776299","","","","","","",""
13.0,0.0764392539858818,0.001954272931583453,"train",14520.0,"2021-12-07 10:28:09.102260","","","","","","",""
13.0,0.09782186895608902,0.0019554078381621306,"train",14540.0,"2021-12-07 10:28:12.679862","","","","","","",""
13.0,0.0499083548784256,0.0019565288184118417,"train",14560.0,"2021-12-07 10:28:16.062763","","","","","","",""
13.0,0.046572182327508926,0.0019576358552788314,"train",14580.0,"2021-12-07 10:28:19.505664","","","","","","",""
13.0,0.10607382655143738,0.0019587289319214713,"train",14600.0,"2021-12-07 10:28:23.099010","","","","","","",""
13.0,0.059931430965662,0.0019598080317105113,"train",14620.0,"2021-12-07 10:28:26.370599","","","","","","",""
13.0,0.07082635164260864,0.001960873138229337,"train",14640.0,"2021-12-07 10:28:29.645333","","","","","","",""
13.0,0.05393150821328163,0.0019619242352742153,"train",14660.0,"2021-12-07 10:28:33.124088","","","","","","",""
13.0,0.07314038276672363,0.001962961306854543,"train",14680.0,"2021-12-07 10:28:36.440956","","","","","","",""
13.0,0.06228986382484436,0.0019639843371930905,"train",14700.0,"2021-12-07 10:28:39.862017","","","","","","",""
13.0,0.06675342470407486,0.001964993310726241,"train",14720.0,"2021-12-07 10:28:43.488963","","","","","","",""
13.0,0.0883764922618866,0.0019659882121042262,"train",14740.0,"2021-12-07 10:28:46.877847","","","","","","",""
13.0,0.0738934800028801,0.001966969026191363,"train",14760.0,"2021-12-07 10:28:50.204758","","","","","","",""
13.0,0.06415577977895737,0.0019679357380662805,"train",14780.0,"2021-12-07 10:28:53.478574","","","","","","",""
13.0,0.05249800160527229,0.001968888333022148,"train",14800.0,"2021-12-07 10:28:56.964868","","","","","","",""
13.0,0.05116719380021095,0.0019698267965669,"train",14820.0,"2021-12-07 10:29:00.269896","","","","","","",""
13.0,0.05635860562324524,0.0019707511144234557,"train",14840.0,"2021-12-07 10:29:03.668503","","","","","","",""
13.0,0.07808545976877213,0.001971661272529935,"train",14860.0,"2021-12-07 10:29:07.276637","","","","","","",""
13.0,0.056988004595041275,0.001972557257039875,"train",14880.0,"2021-12-07 10:29:10.675127","","","","","","",""
13.0,0.06363564729690552,0.0019734390543224385,"train",14900.0,"2021-12-07 10:29:14.097356","","","","","","",""
13.0,0.05854206904768944,0.001974306650962622,"train",14920.0,"2021-12-07 10:29:17.772659","","","","","","",""
13.0,0.0881567895412445,0.0019751600337614608,"train",14940.0,"2021-12-07 10:29:21.142926","","","","","","",""
13.0,0.09580711275339127,0.0019759991897362284,"train",14960.0,"2021-12-07 10:29:24.398160","","","","","","",""
13.0,0.04471689090132713,0.0019768241061206343,"train",14980.0,"2021-12-07 10:29:27.670770","","","","","","",""
13.0,0.0661284551024437,0.0019776347703650186,"train",15000.0,"2021-12-07 10:29:31.141246","","","","","","",""
13.0,0.07439133524894714,0.001978431170136543,"train",15020.0,"2021-12-07 10:29:34.469782","","","","","","",""
13.0,"","","train",15036.0,"2021-12-07 10:31:07.335132",0.640034926871862,0.6469510408140127,0.9530819493364248,0.6844769481311516,0.5533505537680697,0.5683706270965978,0.3906707246212119
13.0,"","","val",15036.0,"2021-12-07 10:31:31.341264",0.6072712513046503,0.5881153580498132,0.9400919895516352,0.6426829077203021,0.5163055399427185,0.5286354164196458,0.3492950125573637
14.0,0.0698327049612999,0.0019792132933193784,"train",15040.0,"2021-12-07 10:31:33.722364","","","","","","",""
14.0,0.10412482172250748,0.001979981128014888,"train",15060.0,"2021-12-07 10:31:37.294234","","","","","","",""
14.0,0.0809185653924942,0.001980734662541811,"train",15080.0,"2021-12-07 10:31:40.403586","","","","","","",""
14.0,0.08177276700735092,0.0019814738854364374,"train",15100.0,"2021-12-07 10:31:43.516769","","","","","","",""
14.0,0.0878455862402916,0.0019821987854527832,"train",15120.0,"2021-12-07 10:31:47.021305","","","","","","",""
14.0,0.08086064457893372,0.0019829093515627634,"train",15140.0,"2021-12-07 10:31:50.338318","","","","","","",""
14.0,0.059885941445827484,0.001983605572956358,"train",15160.0,"2021-12-07 10:31:53.737176","","","","","","",""
14.0,0.07337361574172974,0.001984287439041775,"train",15180.0,"2021-12-07 10:31:57.082588","","","","","","",""
14.0,0.06059135124087334,0.001984954939445616,"train",15200.0,"2021-12-07 10:32:00.584926","","","","","","",""
14.0,0.07076743245124817,0.0019856080640130295,"train",15220.0,"2021-12-07 10:32:03.931242","","","","","","",""
14.0,0.07279399782419205,0.0019862468028078676,"train",15240.0,"2021-12-07 10:32:07.251933","","","","","","",""
14.0,0.07407640665769577,0.001986871146112837,"train",15260.0,"2021-12-07 10:32:10.746725","","","","","","",""
14.0,0.05808108672499657,0.0019874810844296466,"train",15280.0,"2021-12-07 10:32:14.065666","","","","","","",""
14.0,0.06870660930871964,0.0019880766084791517,"train",15300.0,"2021-12-07 10:32:17.402142","","","","","","",""
14.0,0.08320465683937073,0.0019886577092014953,"train",15320.0,"2021-12-07 10:32:20.963463","","","","","","",""
14.0,0.06744384765625,0.001989224377756247,"train",15340.0,"2021-12-07 10:32:24.266954","","","","","","",""
14.0,0.045199230313301086,0.0019897766055225353,"train",15360.0,"2021-12-07 10:32:27.550686","","","","","","",""
14.0,0.04182896763086319,0.0019903143840991813,"train",15380.0,"2021-12-07 10:32:31.024023","","","","","","",""
14.0,0.07098352909088135,0.0019908377053048246,"train",15400.0,"2021-12-07 10:32:34.311981","","","","","","",""
14.0,0.05501831695437431,0.001991346561178048,"train",15420.0,"2021-12-07 10:32:37.506373","","","","","","",""
14.0,0.05896835774183273,0.0019918409439775003,"train",15440.0,"2021-12-07 10:32:40.605489","","","","","","",""
14.0,0.07183541357517242,0.0019923208461820117,"train",15460.0,"2021-12-07 10:32:43.890575","","","","","","",""
14.0,0.06914380937814713,0.001992786260490709,"train",15480.0,"2021-12-07 10:32:47.055641","","","","","","",""
14.0,0.07073435932397842,0.0019932371798231287,"train",15500.0,"2021-12-07 10:32:50.390045","","","","","","",""
14.0,0.03592634201049805,0.0019936735973193212,"train",15520.0,"2021-12-07 10:32:53.977337","","","","","","",""
14.0,0.05242365226149559,0.001994095506339958,"train",15540.0,"2021-12-07 10:32:57.290443","","","","","","",""
14.0,0.0528610423207283,0.001994502900466431,"train",15560.0,"2021-12-07 10:33:00.604571","","","","","","",""
14.0,0.049219995737075806,0.0019948957735009517,"train",15580.0,"2021-12-07 10:33:04.096538","","","","","","",""
14.0,0.05870503932237625,0.0019952741194666436,"train",15600.0,"2021-12-07 10:33:07.332698","","","","","","",""
14.0,0.07059663534164429,0.0019956379326076354,"train",15620.0,"2021-12-07 10:33:10.659750","","","","","","",""
14.0,0.0794968232512474,0.001995987207389146,"train",15640.0,"2021-12-07 10:33:13.989272","","","","","","",""
14.0,0.08633450418710709,0.0019963219384975706,"train",15660.0,"2021-12-07 10:33:17.531495","","","","","","",""
14.0,0.048545703291893005,0.001996642120840561,"train",15680.0,"2021-12-07 10:33:20.808746","","","","","","",""
14.0,0.06361689418554306,0.001996947749547103,"train",15700.0,"2021-12-07 10:33:24.104112","","","","","","",""
14.0,0.09184955060482025,0.0019972388199675905,"train",15720.0,"2021-12-07 10:33:27.633283","","","","","","",""
14.0,0.07758335024118423,0.001997515327673896,"train",15740.0,"2021-12-07 10:33:31.009239","","","","","","",""
14.0,0.05884062498807907,0.0019977772684594388,"train",15760.0,"2021-12-07 10:33:34.258491","","","","","","",""
14.0,0.06392581015825272,0.0019980246383392475,"train",15780.0,"2021-12-07 10:33:37.880744","","","","","","",""
14.0,0.07617836445569992,0.0019982574335500225,"train",15800.0,"2021-12-07 10:33:41.266224","","","","","","",""
14.0,0.04412749782204628,0.001998475650550192,"train",15820.0,"2021-12-07 10:33:44.660265","","","","","","",""
14.0,0.06145725026726723,0.0019986792860199657,"train",15840.0,"2021-12-07 10:33:48.013017","","","","","","",""
14.0,0.06643569469451904,0.001998868336861386,"train",15860.0,"2021-12-07 10:33:51.610288","","","","","","",""
14.0,0.061610735952854156,0.001999042800198376,"train",15880.0,"2021-12-07 10:33:54.978739","","","","","","",""
14.0,0.06691485643386841,0.00199920267337678,"train",15900.0,"2021-12-07 10:33:58.297469","","","","","","",""
14.0,0.050133366137742996,0.0019993479539644077,"train",15920.0,"2021-12-07 10:34:01.838096","","","","","","",""
14.0,0.0498812310397625,0.0019994786397510697,"train",15940.0,"2021-12-07 10:34:05.126484","","","","","","",""
14.0,0.058353591710329056,0.0019995947287486096,"train",15960.0,"2021-12-07 10:34:08.414822","","","","","","",""
14.0,0.07353135198354721,0.0019996962191909367,"train",15980.0,"2021-12-07 10:34:11.857196","","","","","","",""
14.0,0.07050763070583344,0.0019997831095340513,"train",16000.0,"2021-12-07 10:34:15.094471","","","","","","",""
14.0,0.0627300962805748,0.001999855398456069,"train",16020.0,"2021-12-07 10:34:18.431207","","","","","","",""
14.0,0.06978252530097961,0.00199991308485724,"train",16040.0,"2021-12-07 10:34:22.052273","","","","","","",""
14.0,0.0842585414648056,0.001999956167859967,"train",16060.0,"2021-12-07 10:34:25.435708","","","","","","",""
14.0,0.05898240953683853,0.0019999846468088172,"train",16080.0,"2021-12-07 10:34:28.753827","","","","","","",""
14.0,0.042587216943502426,0.0019999985212705335,"train",16100.0,"2021-12-07 10:34:32.031086","","","","","","",""
14.0,"","","train",16110.0,"2021-12-07 10:36:03.468252",0.6475150985956487,0.6619126095164682,0.9531983961103709,0.7002157315029549,0.5865949908632,0.5979167627125227,0.4143098395847679
14.0,"","","val",16110.0,"2021-12-07 10:36:27.371722",0.6030963701727937,0.5916734184891665,0.9373847436032885,0.6466661089189103,0.5333670462020215,0.5423951396253995,0.35573155334640333
15.0,0.056010957807302475,0.0019999995774202316,"train",16120.0,"2021-12-07 10:36:30.793748","","","","","","",""
15.0,0.054821357131004333,0.0019999966438102564,"train",16140.0,"2021-12-07 10:36:34.149094","","","","","","",""
15.0,0.06823765486478806,0.0019999909162942875,"train",16160.0,"2021-12-07 10:36:37.440062","","","","","","",""
15.0,0.054793719202280045,0.001999982394888327,"train",16180.0,"2021-12-07 10:36:41.064673","","","","","","",""
15.0,0.07194569706916809,0.0019999710796161823,"train",16200.0,"2021-12-07 10:36:44.347666","","","","","","",""
15.0,0.07350464165210724,0.0019999569705094686,"train",16220.0,"2021-12-07 10:36:47.715216","","","","","","",""
15.0,0.055884949862957,0.001999940067607605,"train",16240.0,"2021-12-07 10:36:51.312159","","","","","","",""
15.0,0.07152203470468521,0.001999920370957817,"train",16260.0,"2021-12-07 10:36:54.639242","","","","","","",""
15.0,0.10535881668329239,0.0019998978806151355,"train",16280.0,"2021-12-07 10:36:57.874056","","","","","","",""
15.0,0.08066799491643906,0.0019998725966423976,"train",16300.0,"2021-12-07 10:37:01.121940","","","","","","",""
15.0,0.06383619457483292,0.001999844519110244,"train",16320.0,"2021-12-07 10:37:04.584173","","","","","","",""
15.0,0.09148326516151428,0.001999813648097122,"train",16340.0,"2021-12-07 10:37:07.862354","","","","","","",""
15.0,0.0864361897110939,0.001999779983689282,"train",16360.0,"2021-12-07 10:37:11.128554","","","","","","",""
15.0,0.07805627584457397,0.0019997435259807806,"train",16380.0,"2021-12-07 10:37:14.711732","","","","","","",""
15.0,0.0703236386179924,0.001999704275073478,"train",16400.0,"2021-12-07 10:37:17.966390","","","","","","",""
15.0,0.08459113538265228,0.0019996622310770383,"train",16420.0,"2021-12-07 10:37:21.224382","","","","","","",""
15.0,0.0527426041662693,0.0019996173941089286,"train",16440.0,"2021-12-07 10:37:24.839510","","","","","","",""
15.0,0.04812794178724289,0.0019995697642944212,"train",16460.0,"2021-12-07 10:37:28.223115","","","","","","",""
15.0,0.0708082765340805,0.0019995193417665894,"train",16480.0,"2021-12-07 10:37:31.617969","","","","","","",""
15.0,0.061949361115694046,0.0019994661266663108,"train",16500.0,"2021-12-07 10:37:35.209066","","","","","","",""
15.0,0.10019051283597946,0.001999410119142264,"train",16520.0,"2021-12-07 10:37:38.607721","","","","","","",""
15.0,0.05240297690033913,0.0019993513193509297,"train",16540.0,"2021-12-07 10:37:42.013172","","","","","","",""
15.0,0.05267610773444176,0.0019992897274565906,"train",16560.0,"2021-12-07 10:37:45.345250","","","","","","",""
15.0,0.08985934406518936,0.0019992253436313303,"train",16580.0,"2021-12-07 10:37:48.937828","","","","","","",""
15.0,0.08654245734214783,0.0019991581680550313,"train",16600.0,"2021-12-07 10:37:52.322718","","","","","","",""
15.0,0.04627890884876251,0.0019990882009153785,"train",16620.0,"2021-12-07 10:37:55.672709","","","","","","",""
15.0,0.06087867170572281,0.001999015442407854,"train",16640.0,"2021-12-07 10:37:59.189679","","","","","","",""
15.0,0.04448193311691284,0.0019989398927357403,"train",16660.0,"2021-12-07 10:38:02.499719","","","","","","",""
15.0,0.09966535121202469,0.0019988615521101174,"train",16680.0,"2021-12-07 10:38:05.804430","","","","","","",""
15.0,0.04466308280825615,0.0019987804207498637,"train",16700.0,"2021-12-07 10:38:09.319218","","","","","","",""
15.0,0.07725831121206284,0.0019986964988816533,"train",16720.0,"2021-12-07 10:38:12.719958","","","","","","",""
15.0,0.07768315821886063,0.0019986097867399585,"train",16740.0,"2021-12-07 10:38:16.114012","","","","","","",""
15.0,0.08291465044021606,0.0019985202845670463,"train",16760.0,"2021-12-07 10:38:19.438805","","","","","","",""
15.0,0.03317786753177643,0.0019984279926129798,"train",16780.0,"2021-12-07 10:38:22.861089","","","","","","",""
15.0,0.04932835325598717,0.001998332911135615,"train",16800.0,"2021-12-07 10:38:26.114558","","","","","","",""
15.0,0.07137775421142578,0.0019982350404006036,"train",16820.0,"2021-12-07 10:38:29.343450","","","","","","",""
15.0,0.09245482832193375,0.0019981343806813883,"train",16840.0,"2021-12-07 10:38:32.775701","","","","","","",""
15.0,0.037262558937072754,0.001998030932259205,"train",16860.0,"2021-12-07 10:38:36.036947","","","","","","",""
15.0,0.06717967987060547,0.0019979246954230823,"train",16880.0,"2021-12-07 10:38:39.301726","","","","","","",""
15.0,0.0512772835791111,0.0019978156704698363,"train",16900.0,"2021-12-07 10:38:42.787638","","","","","","",""
15.0,0.07198119163513184,0.001997703857704076,"train",16920.0,"2021-12-07 10:38:46.038945","","","","","","",""
15.0,0.08858644217252731,0.0019975892574381976,"train",16940.0,"2021-12-07 10:38:49.315295","","","","","","",""
15.0,0.06539828330278397,0.001997471869992386,"train",16960.0,"2021-12-07 10:38:52.552035","","","","","","",""
15.0,0.05796658247709274,0.0019973516956946127,"train",16980.0,"2021-12-07 10:38:56.008022","","","","","","",""
15.0,0.09214148670434952,0.0019972287348806366,"train",17000.0,"2021-12-07 10:38:59.273979","","","","","","",""
15.0,0.04815949872136116,0.0019971029878940003,"train",17020.0,"2021-12-07 10:39:02.557175","","","","","","",""
15.0,0.08472508937120438,0.0019969744550860317,"train",17040.0,"2021-12-07 10:39:06.048808","","","","","","",""
15.0,0.04714146628975868,0.0019968431368158433,"train",17060.0,"2021-12-07 10:39:09.318383","","","","","","",""
15.0,0.06699962168931961,0.001996709033450327,"train",17080.0,"2021-12-07 10:39:12.573589","","","","","","",""
15.0,0.07325173914432526,0.0019965721453641585,"train",17100.0,"2021-12-07 10:39:16.119223","","","","","","",""
15.0,0.09457694739103317,0.0019964324729397935,"train",17120.0,"2021-12-07 10:39:19.378641","","","","","","",""
15.0,0.0947718545794487,0.0019962900165674657,"train",17140.0,"2021-12-07 10:39:22.604015","","","","","","",""
15.0,0.08474236726760864,0.0019961447766451887,"train",17160.0,"2021-12-07 10:39:26.272449","","","","","","",""
15.0,0.07222574204206467,0.001995996753578751,"train",17180.0,"2021-12-07 10:39:29.640697","","","","","","",""
15.0,"","","train",17184.0,"2021-12-07 10:41:00.230102",0.656086735065124,0.6703004432158715,0.9566712820168614,0.6984743377578766,0.5734830576624845,0.5964326497338223,0.40999323685244826
15.0,"","","val",17184.0,"2021-12-07 10:41:23.537091",0.6149831845065522,0.5968213071054718,0.9392756538422528,0.6487709208701555,0.5242852645121245,0.5418492624674779,0.3557148879120628
16.0,0.0963677316904068,0.001995845947781719,"train",17200.0,"2021-12-07 10:41:27.985945","","","","","","",""
16.0,0.07141438871622086,0.001995692359675433,"train",17220.0,"2021-12-07 10:41:31.335682","","","","","","",""
16.0,0.04047758877277374,0.0019955359896890066,"train",17240.0,"2021-12-07 10:41:34.896327","","","","","","",""
16.0,0.05468319356441498,0.0019953768382593258,"train",17260.0,"2021-12-07 10:41:38.230200","","","","","","",""
16.0,0.07341690361499786,0.0019952149058310486,"train",17280.0,"2021-12-07 10:41:41.489083","","","","","","",""
16.0,0.06597983837127686,0.001995050192856602,"train",17300.0,"2021-12-07 10:41:44.956681","","","","","","",""
16.0,0.058185432106256485,0.001994882699796182,"train",17320.0,"2021-12-07 10:41:48.287221","","","","","","",""
16.0,0.056391313672065735,0.001994712427117752,"train",17340.0,"2021-12-07 10:41:51.629150","","","","","","",""
16.0,0.06343843042850494,0.0019945393752970413,"train",17360.0,"2021-12-07 10:41:55.168079","","","","","","",""
16.0,0.06189548596739769,0.001994363544817544,"train",17380.0,"2021-12-07 10:41:58.473623","","","","","","",""
16.0,0.051949240267276764,0.001994184936170517,"train",17400.0,"2021-12-07 10:42:01.784811","","","","","","",""
16.0,0.051646456122398376,0.0019940035498549804,"train",17420.0,"2021-12-07 10:42:05.033108","","","","","","",""
16.0,0.048205453902482986,0.0019938193863777145,"train",17440.0,"2021-12-07 10:42:08.542440","","","","","","",""
16.0,0.08979899436235428,0.001993632446253258,"train",17460.0,"2021-12-07 10:42:11.841823","","","","","","",""
16.0,0.03315103426575661,0.0019934427300039074,"train",17480.0,"2021-12-07 10:42:15.212958","","","","","","",""
16.0,0.05126258358359337,0.001993250238159717,"train",17500.0,"2021-12-07 10:42:18.782505","","","","","","",""
16.0,0.04771091416478157,0.0019930549712584944,"train",17520.0,"2021-12-07 10:42:22.068330","","","","","","",""
16.0,0.0778731256723404,0.001992856929845801,"train",17540.0,"2021-12-07 10:42:25.425783","","","","","","",""
16.0,0.05575653538107872,0.0019926561144749497,"train",17560.0,"2021-12-07 10:42:28.917821","","","","","","",""
16.0,0.048084553331136703,0.001992452525707004,"train",17580.0,"2021-12-07 10:42:32.184832","","","","","","",""
16.0,0.06117448955774307,0.0019922461641107767,"train",17600.0,"2021-12-07 10:42:35.407623","","","","","","",""
16.0,0.04566609114408493,0.001992037030262826,"train",17620.0,"2021-12-07 10:42:38.680566","","","","","","",""
16.0,0.08041134476661682,0.0019918251247474567,"train",17640.0,"2021-12-07 10:42:42.260378","","","","","","",""
16.0,0.08802161365747452,0.001991610448156718,"train",17660.0,"2021-12-07 10:42:45.686660","","","","","","",""
16.0,0.07094023376703262,0.0019913930010903996,"train",17680.0,"2021-12-07 10:42:49.055960","","","","","","",""
16.0,0.07407696545124054,0.001991172784156033,"train",17700.0,"2021-12-07 10:42:52.612911","","","","","","",""
16.0,0.0648721382021904,0.0019909497979688877,"train",17720.0,"2021-12-07 10:42:55.969791","","","","","","",""
16.0,0.091954305768013,0.0019907240431519713,"train",17740.0,"2021-12-07 10:42:59.324260","","","","","","",""
16.0,0.039744552224874496,0.001990495520336026,"train",17760.0,"2021-12-07 10:43:02.857757","","","","","","",""
16.0,0.09525301307439804,0.0019902642301595284,"train",17780.0,"2021-12-07 10:43:06.189108","","","","","","",""
16.0,0.04424038529396057,0.001990030173268685,"train",17800.0,"2021-12-07 10:43:09.504260","","","","","","",""
16.0,0.08592990785837173,0.0019897933503174345,"train",17820.0,"2021-12-07 10:43:12.993890","","","","","","",""
16.0,0.08712289482355118,0.0019895537619674425,"train",17840.0,"2021-12-07 10:43:16.260409","","","","","","",""
16.0,0.04682004079222679,0.001989311408888101,"train",17860.0,"2021-12-07 10:43:19.597285","","","","","","",""
16.0,0.07466395944356918,0.001989066291756527,"train",17880.0,"2021-12-07 10:43:22.946409","","","","","","",""
16.0,0.09255065023899078,0.00198881841125756,"train",17900.0,"2021-12-07 10:43:26.515695","","","","","","",""
16.0,0.0767514631152153,0.0019885677680837595,"train",17920.0,"2021-12-07 10:43:29.768592","","","","","","",""
16.0,0.08514529466629028,0.001988314362935404,"train",17940.0,"2021-12-07 10:43:33.011172","","","","","","",""
16.0,0.10222211480140686,0.0019880581965204896,"train",17960.0,"2021-12-07 10:43:36.520419","","","","","","",""
16.0,0.04328935965895653,0.0019877992695547255,"train",17980.0,"2021-12-07 10:43:39.824411","","","","","","",""
16.0,0.0792670026421547,0.0019875375827615354,"train",18000.0,"2021-12-07 10:43:43.206534","","","","","","",""
16.0,0.06895247101783752,0.0019872731368720527,"train",18020.0,"2021-12-07 10:43:46.780917","","","","","","",""
16.0,0.08005956560373306,0.00198700593262512,"train",18040.0,"2021-12-07 10:43:50.164028","","","","","","",""
16.0,0.05445413663983345,0.001986735970767286,"train",18060.0,"2021-12-07 10:43:53.513498","","","","","","",""
16.0,0.06139672175049782,0.001986463252052804,"train",18080.0,"2021-12-07 10:43:56.880233","","","","","","",""
16.0,0.09060215950012207,0.0019861877772436305,"train",18100.0,"2021-12-07 10:44:00.412775","","","","","","",""
16.0,0.05188596621155739,0.001985909547109422,"train",18120.0,"2021-12-07 10:44:03.711356","","","","","","",""
16.0,0.06424559652805328,0.001985628562427533,"train",18140.0,"2021-12-07 10:44:07.152781","","","","","","",""
16.0,0.056313250213861465,0.001985344823983014,"train",18160.0,"2021-12-07 10:44:10.771521","","","","","","",""
16.0,0.07019829750061035,0.001985058332568609,"train",18180.0,"2021-12-07 10:44:14.204599","","","","","","",""
16.0,0.07313098013401031,0.001984769088984755,"train",18200.0,"2021-12-07 10:44:17.634210","","","","","","",""
16.0,0.04756888374686241,0.001984477094039576,"train",18220.0,"2021-12-07 10:44:21.192392","","","","","","",""
16.0,0.05326429009437561,0.001984182348548885,"train",18240.0,"2021-12-07 10:44:24.512242","","","","","","",""
16.0,"","","train",18258.0,"2021-12-07 10:45:58.067214",0.663537801062359,0.6875838756538658,0.9608261251182986,0.7150538701159432,0.5954036111763891,0.6192840268381468,0.42814591909821775
16.0,"","","val",18258.0,"2021-12-07 10:46:21.697146",0.6118520236576598,0.5994163719416594,0.9417505725841289,0.6522172128894226,0.527346721970293,0.5479136144782661,0.35615977996094095
17.0,0.06717171519994736,0.00198388485333618,"train",18260.0,"2021-12-07 10:46:23.706450","","","","","","",""
17.0,0.05484236404299736,0.0019835846092326396,"train",18280.0,"2021-12-07 10:46:27.488028","","","","","","",""
17.0,0.04018435254693031,0.0019832816170771246,"train",18300.0,"2021-12-07 10:46:30.866404","","","","","","",""
17.0,0.0739070475101471,0.001982975877716172,"train",18320.0,"2021-12-07 10:46:34.191771","","","","","","",""
17.0,0.05820557847619057,0.0019826673920039957,"train",18340.0,"2021-12-07 10:46:37.521615","","","","","","",""
17.0,0.04866599291563034,0.0019823561608024822,"train",18360.0,"2021-12-07 10:46:41.055331","","","","","","",""
17.0,0.07695042341947556,0.0019820421849811886,"train",18380.0,"2021-12-07 10:46:44.402871","","","","","","",""
17.0,0.04723677039146423,0.0019817254654173402,"train",18400.0,"2021-12-07 10:46:47.811651","","","","","","",""
17.0,0.06979353725910187,0.0019814060029958278,"train",18420.0,"2021-12-07 10:46:51.417394","","","","","","",""
17.0,0.03824404254555702,0.001981083798609206,"train",18440.0,"2021-12-07 10:46:54.812278","","","","","","",""
17.0,0.05112724378705025,0.0019807588531576908,"train",18460.0,"2021-12-07 10:46:58.066804","","","","","","",""
17.0,0.0883135125041008,0.0019804311675491555,"train",18480.0,"2021-12-07 10:47:01.541099","","","","","","",""
17.0,0.06556542217731476,0.00198010074269913,"train",18500.0,"2021-12-07 10:47:04.796603","","","","","","",""
17.0,0.050262656062841415,0.0019797675795307965,"train",18520.0,"2021-12-07 10:47:08.143390","","","","","","",""
17.0,0.06713005900382996,0.0019794316789749885,"train",18540.0,"2021-12-07 10:47:11.487203","","","","","","",""
17.0,0.06372853368520737,0.0019790930419701877,"train",18560.0,"2021-12-07 10:47:15.014242","","","","","","",""
17.0,0.08252129703760147,0.0019787516694625214,"train",18580.0,"2021-12-07 10:47:18.345665","","","","","","",""
17.0,0.07888181507587433,0.0019784075624057584,"train",18600.0,"2021-12-07 10:47:21.788146","","","","","","",""
17.0,0.04863777756690979,0.0019780607217613094,"train",18620.0,"2021-12-07 10:47:25.351311","","","","","","",""
17.0,0.07030817121267319,0.001977711148498221,"train",18640.0,"2021-12-07 10:47:28.755925","","","","","","",""
17.0,0.07466582953929901,0.0019773588435931756,"train",18660.0,"2021-12-07 10:47:32.104217","","","","","","",""
17.0,0.03917772322893143,0.0019770038080304873,"train",18680.0,"2021-12-07 10:47:35.603593","","","","","","",""
17.0,0.05911434441804886,0.001976646042802099,"train",18700.0,"2021-12-07 10:47:38.908026","","","","","","",""
17.0,0.059778694063425064,0.0019762855489075808,"train",18720.0,"2021-12-07 10:47:42.317096","","","","","","",""
17.0,0.06265959143638611,0.001975922327354126,"train",18740.0,"2021-12-07 10:47:45.724908","","","","","","",""
17.0,0.07566719502210617,0.001975556379156549,"train",18760.0,"2021-12-07 10:47:49.356324","","","","","","",""
17.0,0.050270769745111465,0.0019751877053372823,"train",18780.0,"2021-12-07 10:47:52.758297","","","","","","",""
17.0,0.0788261741399765,0.001974816306926373,"train",18800.0,"2021-12-07 10:47:56.122230","","","","","","",""
17.0,0.06007425859570503,0.001974442184961482,"train",18820.0,"2021-12-07 10:47:59.692480","","","","","","",""
17.0,0.0519891157746315,0.0019740653404878776,"train",18840.0,"2021-12-07 10:48:03.131204","","","","","","",""
17.0,0.05722958594560623,0.0019736857745584362,"train",18860.0,"2021-12-07 10:48:06.607244","","","","","","",""
17.0,0.09048531949520111,0.0019733034882336367,"train",18880.0,"2021-12-07 10:48:10.230479","","","","","","",""
17.0,0.06345541775226593,0.0019729184825815586,"train",18900.0,"2021-12-07 10:48:13.599638","","","","","","",""
17.0,0.04752899333834648,0.0019725307586778806,"train",18920.0,"2021-12-07 10:48:16.880601","","","","","","",""
17.0,0.042792364954948425,0.001972140317605874,"train",18940.0,"2021-12-07 10:48:20.385334","","","","","","",""
17.0,0.08313248306512833,0.0019717471604564028,"train",18960.0,"2021-12-07 10:48:23.730105","","","","","","",""
17.0,0.04446905106306076,0.0019713512883279185,"train",18980.0,"2021-12-07 10:48:26.911830","","","","","","",""
17.0,0.04259556159377098,0.00197095270232646,"train",19000.0,"2021-12-07 10:48:30.269187","","","","","","",""
17.0,0.06103616580367088,0.001970551403565646,"train",19020.0,"2021-12-07 10:48:33.866803","","","","","","",""
17.0,0.052228618413209915,0.0019701473931666765,"train",19040.0,"2021-12-07 10:48:37.291718","","","","","","",""
17.0,0.0659126490354538,0.001969740672258327,"train",19060.0,"2021-12-07 10:48:40.706286","","","","","","",""
17.0,0.03524184226989746,0.0019693312419769454,"train",19080.0,"2021-12-07 10:48:44.227230","","","","","","",""
17.0,0.09984394907951355,0.0019689191034664498,"train",19100.0,"2021-12-07 10:48:47.527899","","","","","","",""
17.0,0.06846024841070175,0.0019685042578783257,"train",19120.0,"2021-12-07 10:48:50.800552","","","","","","",""
17.0,0.059172000735998154,0.00196808670637162,"train",19140.0,"2021-12-07 10:48:54.383262","","","","","","",""
17.0,0.056300949305295944,0.001967666450112942,"train",19160.0,"2021-12-07 10:48:57.639111","","","","","","",""
17.0,0.05790222808718681,0.001967243490276456,"train",19180.0,"2021-12-07 10:49:00.938146","","","","","","",""
17.0,0.08377475291490555,0.0019668178280438818,"train",19200.0,"2021-12-07 10:49:04.234883","","","","","","",""
17.0,0.05006163939833641,0.0019663894646044875,"train",19220.0,"2021-12-07 10:49:07.739462","","","","","","",""
17.0,0.08940550684928894,0.001965958401155089,"train",19240.0,"2021-12-07 10:49:11.010611","","","","","","",""
17.0,0.060152165591716766,0.0019655246389000463,"train",19260.0,"2021-12-07 10:49:14.270176","","","","","","",""
17.0,0.03010999597609043,0.0019650881790512597,"train",19280.0,"2021-12-07 10:49:17.850642","","","","","","",""
17.0,0.060245074331760406,0.001964649022828165,"train",19300.0,"2021-12-07 10:49:21.222619","","","","","","",""
17.0,0.05356672406196594,0.0019642071714577325,"train",19320.0,"2021-12-07 10:49:24.494824","","","","","","",""
17.0,"","","train",19332.0,"2021-12-07 10:50:56.253475",0.6673943098304591,0.6959848037590202,0.962278503327222,0.723397768028961,0.6070126772467529,0.6289816087032635,0.43625201535788527
17.0,"","","val",19332.0,"2021-12-07 10:51:20.250881",0.6134755885422707,0.6080069385330821,0.946071920585097,0.6601416376622156,0.5434232758415047,0.5644559743183912,0.36555029862137256
18.0,0.057130586355924606,0.0019637626261744634,"train",19340.0,"2021-12-07 10:51:23.556844","","","","","","",""
18.0,0.03692308068275452,0.001963315388220384,"train",19360.0,"2021-12-07 10:51:26.884677","","","","","","",""
18.0,0.06738308817148209,0.0019628654588450443,"train",19380.0,"2021-12-07 10:51:30.162206","","","","","","",""
18.0,0.059390198439359665,0.001962412839305514,"train",19400.0,"2021-12-07 10:51:33.441497","","","","","","",""
18.0,0.08197256177663803,0.0019619575308663785,"train",19420.0,"2021-12-07 10:51:37.036528","","","","","","",""
18.0,0.04083261638879776,0.001961499534799737,"train",19440.0,"2021-12-07 10:51:40.366151","","","","","","",""
18.0,0.05238862708210945,0.001961038852385196,"train",19460.0,"2021-12-07 10:51:43.793664","","","","","","",""
18.0,0.04820790886878967,0.0019605754849098683,"train",19480.0,"2021-12-07 10:51:47.439312","","","","","","",""
18.0,0.06897448748350143,0.0019601094336683693,"train",19500.0,"2021-12-07 10:51:50.899370","","","","","","",""
18.0,0.05171442776918411,0.0019596406999628116,"train",19520.0,"2021-12-07 10:51:54.344784","","","","","","",""
18.0,0.09054788947105408,0.0019591692851028022,"train",19540.0,"2021-12-07 10:51:57.799385","","","","","","",""
18.0,0.07684125006198883,0.001958695190405441,"train",19560.0,"2021-12-07 10:52:01.199856","","","","","","",""
18.0,0.04243211820721626,0.001958218417195312,"train",19580.0,"2021-12-07 10:52:04.571340","","","","","","",""
18.0,0.05336076393723488,0.001957738966804486,"train",19600.0,"2021-12-07 10:52:08.274478","","","","","","",""
18.0,0.05463266000151634,0.001957256840572511,"train",19620.0,"2021-12-07 10:52:11.668208","","","","","","",""
18.0,0.07076897472143173,0.0019567720398464133,"train",19640.0,"2021-12-07 10:52:15.052621","","","","","","",""
18.0,0.08660617470741272,0.00195628456598069,"train",19660.0,"2021-12-07 10:52:18.377822","","","","","","",""
18.0,0.03866071254014969,0.001955794420337307,"train",19680.0,"2021-12-07 10:52:21.905729","","","","","","",""
18.0,0.055988360196352005,0.0019553016042856957,"train",19700.0,"2021-12-07 10:52:25.270782","","","","","","",""
18.0,0.06615852564573288,0.001954806119202748,"train",19720.0,"2021-12-07 10:52:28.598107","","","","","","",""
18.0,0.04758641868829727,0.001954307966472812,"train",19740.0,"2021-12-07 10:52:32.162724","","","","","","",""
18.0,0.055305059999227524,0.0019538071474876914,"train",19760.0,"2021-12-07 10:52:35.515142","","","","","","",""
18.0,0.0739394947886467,0.001953303663646636,"train",19780.0,"2021-12-07 10:52:38.889539","","","","","","",""
18.0,0.0470808669924736,0.0019527975163563436,"train",19800.0,"2021-12-07 10:52:42.420950","","","","","","",""
18.0,0.043925851583480835,0.0019522887070309524,"train",19820.0,"2021-12-07 10:52:45.731516","","","","","","",""
18.0,0.04020663723349571,0.0019517772370920379,"train",19840.0,"2021-12-07 10:52:49.047594","","","","","","",""
18.0,0.038450825959444046,0.0019512631079686104,"train",19860.0,"2021-12-07 10:52:52.378857","","","","","","",""
18.0,0.09873238205909729,0.001950746321097108,"train",19880.0,"2021-12-07 10:52:55.975076","","","","","","",""
18.0,0.06438236683607101,0.0019502268779213957,"train",19900.0,"2021-12-07 10:52:59.313289","","","","","","",""
18.0,0.08749423176050186,0.0019497047798927598,"train",19920.0,"2021-12-07 10:53:02.564794","","","","","","",""
18.0,0.09638711810112,0.001949180028469903,"train",19940.0,"2021-12-07 10:53:06.134665","","","","","","",""
18.0,0.06836383789777756,0.0019486526251189435,"train",19960.0,"2021-12-07 10:53:09.458101","","","","","","",""
18.0,0.05262892693281174,0.0019481225713134064,"train",19980.0,"2021-12-07 10:53:12.866778","","","","","","",""
18.0,0.06730791181325912,0.0019475898685342235,"train",20000.0,"2021-12-07 10:53:16.459115","","","","","","",""
18.0,0.05648700147867203,0.0019470545182697272,"train",20020.0,"2021-12-07 10:53:19.756894","","","","","","",""
18.0,0.038020677864551544,0.001946516522015647,"train",20040.0,"2021-12-07 10:53:23.043245","","","","","","",""
18.0,0.10201003402471542,0.0019459758812751047,"train",20060.0,"2021-12-07 10:53:26.352680","","","","","","",""
18.0,0.08384619653224945,0.0019454325975586106,"train",20080.0,"2021-12-07 10:53:29.853329","","","","","","",""
18.0,0.06382367759943008,0.0019448866723840602,"train",20100.0,"2021-12-07 10:53:33.119352","","","","","","",""
18.0,0.046698544174432755,0.001944338107276728,"train",20120.0,"2021-12-07 10:53:36.451402","","","","","","",""
18.0,0.07201579958200455,0.0019437869037692644,"train",20140.0,"2021-12-07 10:53:40.035248","","","","","","",""
18.0,0.06312446296215057,0.0019432330634016912,"train",20160.0,"2021-12-07 10:53:43.282880","","","","","","",""
18.0,0.053952399641275406,0.0019426765877213986,"train",20180.0,"2021-12-07 10:53:46.556490","","","","","","",""
18.0,0.05667858198285103,0.0019421174782831383,"train",20200.0,"2021-12-07 10:53:50.066119","","","","","","",""
18.0,0.08834530413150787,0.0019415557366490208,"train",20220.0,"2021-12-07 10:53:53.370901","","","","","","",""
18.0,0.06351707130670547,0.0019409913643885113,"train",20240.0,"2021-12-07 10:53:56.696962","","","","","","",""
