"epoch","loss","lr","part","step","time","accuracy","auprc","auroc","challenge_metric","f_beta_measure","f_measure","g_beta_measure"
0.0,0.4571888744831085,8.000056366625884e-05,"train",20.0,"2021-11-28 09:41:14.414338","","","","","","",""
0.0,0.24368463456630707,8.000225466437316e-05,"train",40.0,"2021-11-28 09:41:18.357005","","","","","","",""
0.0,0.15070196986198425,8.000507299235735e-05,"train",60.0,"2021-11-28 09:41:22.015960","","","","","","",""
0.0,0.15679389238357544,8.000901864690176e-05,"train",80.0,"2021-11-28 09:41:25.999761","","","","","","",""
0.0,0.15206986665725708,8.001409162337295e-05,"train",100.0,"2021-11-28 09:41:30.113208","","","","","","",""
0.0,0.17678597569465637,8.00202919158141e-05,"train",120.0,"2021-11-28 09:41:33.708790","","","","","","",""
0.0,0.1315237134695053,8.00276195169437e-05,"train",140.0,"2021-11-28 09:41:37.601444","","","","","","",""
0.0,0.11710624396800995,8.003607441815688e-05,"train",160.0,"2021-11-28 09:41:41.448824","","","","","","",""
0.0,0.14678142964839935,8.004565660952537e-05,"train",180.0,"2021-11-28 09:41:44.997417","","","","","","",""
0.0,0.16697584092617035,8.005636607979691e-05,"train",200.0,"2021-11-28 09:41:48.858050","","","","","","",""
0.0,0.1306404322385788,8.006820281639452e-05,"train",220.0,"2021-11-28 09:41:52.858226","","","","","","",""
0.0,0.14828896522521973,8.008116680541895e-05,"train",240.0,"2021-11-28 09:41:56.461984","","","","","","",""
0.0,0.11981797963380814,8.009525803164626e-05,"train",260.0,"2021-11-28 09:42:00.298572","","","","","","",""
0.0,0.12821587920188904,8.011047647852915e-05,"train",280.0,"2021-11-28 09:42:04.147545","","","","","","",""
0.0,0.15568673610687256,8.012682212819671e-05,"train",300.0,"2021-11-28 09:42:07.725278","","","","","","",""
0.0,0.1407974511384964,8.014429496145379e-05,"train",320.0,"2021-11-28 09:42:11.550031","","","","","","",""
0.0,0.12817125022411346,8.016289495778187e-05,"train",340.0,"2021-11-28 09:42:15.480361","","","","","","",""
0.0,0.149306520819664,8.018262209533947e-05,"train",360.0,"2021-11-28 09:42:18.997952","","","","","","",""
0.0,0.14167550206184387,8.020347635096067e-05,"train",380.0,"2021-11-28 09:42:22.833427","","","","","","",""
0.0,0.11832811683416367,8.022545770015595e-05,"train",400.0,"2021-11-28 09:42:26.678686","","","","","","",""
0.0,0.14957834780216217,8.02485661171126e-05,"train",420.0,"2021-11-28 09:42:30.222537","","","","","","",""
0.0,0.141480952501297,8.027280157469458e-05,"train",440.0,"2021-11-28 09:42:34.043756","","","","","","",""
0.0,0.16171517968177795,8.029816404444179e-05,"train",460.0,"2021-11-28 09:42:37.980910","","","","","","",""
0.0,0.17743907868862152,8.032465349657098e-05,"train",480.0,"2021-11-28 09:42:41.650760","","","","","","",""
0.0,0.15592357516288757,8.035226989997575e-05,"train",500.0,"2021-11-28 09:42:45.558789","","","","","","",""
0.0,0.11418367177248001,8.038101322222564e-05,"train",520.0,"2021-11-28 09:42:49.528421","","","","","","",""
0.0,0.12250681221485138,8.041088342956772e-05,"train",540.0,"2021-11-28 09:42:53.171955","","","","","","",""
0.0,0.16446515917778015,8.04418804869248e-05,"train",560.0,"2021-11-28 09:42:57.105531","","","","","","",""
0.0,0.12416906654834747,8.047400435789672e-05,"train",580.0,"2021-11-28 09:43:01.032705","","","","","","",""
0.0,0.11529681086540222,8.050725500476129e-05,"train",600.0,"2021-11-28 09:43:04.678204","","","","","","",""
0.0,0.14321419596672058,8.054163238847075e-05,"train",620.0,"2021-11-28 09:43:08.729966","","","","","","",""
0.0,0.13201984763145447,8.057713646865677e-05,"train",640.0,"2021-11-28 09:43:12.643451","","","","","","",""
0.0,0.1449718326330185,8.061376720362593e-05,"train",660.0,"2021-11-28 09:43:16.289840","","","","","","",""
0.0,0.15817134082317352,8.065152455036316e-05,"train",680.0,"2021-11-28 09:43:20.235423","","","","","","",""
0.0,0.14143887162208557,8.069040846452914e-05,"train",700.0,"2021-11-28 09:43:24.122836","","","","","","",""
0.0,0.1125752329826355,8.073041890046292e-05,"train",720.0,"2021-11-28 09:43:27.687303","","","","","","",""
0.0,0.11354365944862366,8.077155581117995e-05,"train",740.0,"2021-11-28 09:43:31.547480","","","","","","",""
0.0,0.1697435826063156,8.081381914837272e-05,"train",760.0,"2021-11-28 09:43:35.354593","","","","","","",""
0.0,0.16125589609146118,8.085720886241146e-05,"train",780.0,"2021-11-28 09:43:38.970274","","","","","","",""
0.0,0.13405410945415497,8.09017249023432e-05,"train",800.0,"2021-11-28 09:43:42.780799","","","","","","",""
0.0,0.1446555107831955,8.094736721589251e-05,"train",820.0,"2021-11-28 09:43:46.644849","","","","","","",""
0.0,0.10756701976060867,8.099413574946205e-05,"train",840.0,"2021-11-28 09:43:50.279736","","","","","","",""
0.0,0.13682623207569122,8.104203044813026e-05,"train",860.0,"2021-11-28 09:43:54.138816","","","","","","",""
0.0,0.14450691640377045,8.109105125565503e-05,"train",880.0,"2021-11-28 09:43:57.951196","","","","","","",""
0.0,0.16905450820922852,8.114119811447064e-05,"train",900.0,"2021-11-28 09:44:01.483488","","","","","","",""
0.0,0.1362665593624115,8.11924709656893e-05,"train",920.0,"2021-11-28 09:44:05.301860","","","","","","",""
0.0,0.13420724868774414,8.124486974910136e-05,"train",940.0,"2021-11-28 09:44:09.124597","","","","","","",""
0.0,0.10812345892190933,8.129839440317445e-05,"train",960.0,"2021-11-28 09:44:12.662986","","","","","","",""
0.0,0.096992127597332,8.135304486505432e-05,"train",980.0,"2021-11-28 09:44:16.510944","","","","","","",""
0.0,0.16974858939647675,8.140882107056488e-05,"train",1000.0,"2021-11-28 09:44:20.416076","","","","","","",""
0.0,0.11088810861110687,8.146572295420775e-05,"train",1020.0,"2021-11-28 09:44:23.930510","","","","","","",""
0.0,0.172150656580925,8.152375044916268e-05,"train",1040.0,"2021-11-28 09:44:27.734242","","","","","","",""
0.0,0.15409517288208008,8.158290348728777e-05,"train",1060.0,"2021-11-28 09:44:31.552419","","","","","","",""
0.0,0.16498753428459167,8.164318199911928e-05,"train",1080.0,"2021-11-28 09:44:35.078728","","","","","","",""
0.0,0.12270591408014297,8.170458591387226e-05,"train",1100.0,"2021-11-28 09:44:38.893367","","","","","","",""
0.0,0.13038527965545654,8.176711515943944e-05,"train",1120.0,"2021-11-28 09:44:42.677753","","","","","","",""
0.0,0.16544906795024872,8.183076966239195e-05,"train",1140.0,"2021-11-28 09:44:46.186568","","","","","","",""
0.0,0.12538611888885498,8.189554934798118e-05,"train",1160.0,"2021-11-28 09:44:50.020111","","","","","","",""
0.0,0.10501860082149506,8.196145414013476e-05,"train",1180.0,"2021-11-28 09:44:53.808446","","","","","","",""
0.0,0.13649487495422363,8.202848396146167e-05,"train",1200.0,"2021-11-28 09:44:57.371388","","","","","","",""
0.0,0.12491707503795624,8.209663873324754e-05,"train",1220.0,"2021-11-28 09:45:01.190630","","","","","","",""
0.0,0.1061796247959137,8.216591837545808e-05,"train",1240.0,"2021-11-28 09:45:05.102871","","","","","","",""
0.0,0.11322054266929626,8.223632280673823e-05,"train",1260.0,"2021-11-28 09:45:08.591067","","","","","","",""
0.0,0.12632903456687927,8.230785194441128e-05,"train",1280.0,"2021-11-28 09:45:12.396897","","","","","","",""
0.0,0.1361284703016281,8.238050570448063e-05,"train",1300.0,"2021-11-28 09:45:16.195235","","","","","","",""
0.0,0.13716121017932892,8.245428400162824e-05,"train",1320.0,"2021-11-28 09:45:19.708298","","","","","","",""
0.0,0.11835604906082153,8.252918674921616e-05,"train",1340.0,"2021-11-28 09:45:23.520195","","","","","","",""
0.0,0.1416356861591339,8.260521385928588e-05,"train",1360.0,"2021-11-28 09:45:27.335243","","","","","","",""
0.0,0.11561352014541626,8.268236524255792e-05,"train",1380.0,"2021-11-28 09:45:30.868889","","","","","","",""
0.0,0.15961559116840363,8.276064080843352e-05,"train",1400.0,"2021-11-28 09:45:34.736703","","","","","","",""
0.0,0.1441834270954132,8.284004046499294e-05,"train",1420.0,"2021-11-28 09:45:38.598295","","","","","","",""
0.0,0.09552929550409317,8.292056411899717e-05,"train",1440.0,"2021-11-28 09:45:42.180705","","","","","","",""
0.0,0.10542622208595276,8.300221167588666e-05,"train",1460.0,"2021-11-28 09:45:46.102360","","","","","","",""
0.0,0.14345379173755646,8.308498303978258e-05,"train",1480.0,"2021-11-28 09:45:49.978662","","","","","","",""
0.0,0.1501317173242569,8.316887811348557e-05,"train",1500.0,"2021-11-28 09:45:53.647376","","","","","","",""
0.0,0.11980254203081131,8.325389679847764e-05,"train",1520.0,"2021-11-28 09:45:57.517040","","","","","","",""
0.0,0.1228870302438736,8.334003899492111e-05,"train",1540.0,"2021-11-28 09:46:01.397177","","","","","","",""
0.0,0.1197192594408989,8.342730460165842e-05,"train",1560.0,"2021-11-28 09:46:04.987064","","","","","","",""
0.0,0.09940573573112488,8.351569351621336e-05,"train",1580.0,"2021-11-28 09:46:08.907683","","","","","","",""
0.0,0.1183934435248375,8.360520563479006e-05,"train",1600.0,"2021-11-28 09:46:12.844608","","","","","","",""
0.0,0.10525891184806824,8.36958408522747e-05,"train",1620.0,"2021-11-28 09:46:16.413760","","","","","","",""
0.0,0.16613489389419556,8.378759906223351e-05,"train",1640.0,"2021-11-28 09:46:20.345837","","","","","","",""
0.0,0.11333836615085602,8.388048015691438e-05,"train",1660.0,"2021-11-28 09:46:24.193701","","","","","","",""
0.0,0.15293899178504944,8.397448402724657e-05,"train",1680.0,"2021-11-28 09:46:27.694384","","","","","","",""
0.0,0.10060957819223404,8.406961056284116e-05,"train",1700.0,"2021-11-28 09:46:31.568134","","","","","","",""
0.0,0.0941113531589508,8.41658596519902e-05,"train",1720.0,"2021-11-28 09:46:35.380716","","","","","","",""
0.0,0.13159887492656708,8.426323118166843e-05,"train",1740.0,"2021-11-28 09:46:38.926866","","","","","","",""
0.0,0.17339038848876953,8.436172503753156e-05,"train",1760.0,"2021-11-28 09:46:42.737420","","","","","","",""
0.0,0.11272383481264114,8.446134110391798e-05,"train",1780.0,"2021-11-28 09:46:46.644336","","","","","","",""
0.0,0.10045510530471802,8.456207926384814e-05,"train",1800.0,"2021-11-28 09:46:50.249682","","","","","","",""
0.0,0.09821197390556335,8.46639393990243e-05,"train",1820.0,"2021-11-28 09:46:54.226301","","","","","","",""
0.0,0.14914081990718842,8.476692138983206e-05,"train",1840.0,"2021-11-28 09:46:58.244713","","","","","","",""
0.0,0.13183458149433136,8.487102511533953e-05,"train",1860.0,"2021-11-28 09:47:01.777968","","","","","","",""
0.0,0.15106359124183655,8.49762504532964e-05,"train",1880.0,"2021-11-28 09:47:05.558868","","","","","","",""
0.0,0.14259900152683258,8.508259728013659e-05,"train",1900.0,"2021-11-28 09:47:09.362431","","","","","","",""
0.0,0.09267377853393555,8.519006547097626e-05,"train",1920.0,"2021-11-28 09:47:13.007335","","","","","","",""
0.0,0.1355568915605545,8.529865489961558e-05,"train",1940.0,"2021-11-28 09:47:16.842331","","","","","","",""
0.0,0.11846433579921722,8.540836543853634e-05,"train",1960.0,"2021-11-28 09:47:20.760695","","","","","","",""
0.0,0.10567913949489594,8.551919695890626e-05,"train",1980.0,"2021-11-28 09:47:24.406662","","","","","","",""
0.0,0.13158217072486877,8.563114933057424e-05,"train",2000.0,"2021-11-28 09:47:28.342624","","","","","","",""
0.0,0.11119875311851501,8.574422242207491e-05,"train",2020.0,"2021-11-28 09:47:32.270610","","","","","","",""
0.0,0.11929087340831757,8.58584161006256e-05,"train",2040.0,"2021-11-28 09:47:35.879127","","","","","","",""
0.0,0.09425442665815353,8.597373023212828e-05,"train",2060.0,"2021-11-28 09:47:39.662893","","","","","","",""
0.0,0.17384643852710724,8.60901646811687e-05,"train",2080.0,"2021-11-28 09:47:43.474430","","","","","","",""
0.0,0.15256214141845703,8.620771931101769e-05,"train",2100.0,"2021-11-28 09:47:47.044798","","","","","","",""
0.0,0.10269132256507874,8.632639398362986e-05,"train",2120.0,"2021-11-28 09:47:50.935459","","","","","","",""
0.0,0.14596255123615265,8.644618855964598e-05,"train",2140.0,"2021-11-28 09:47:54.748692","","","","","","",""
0.0,0.1182493269443512,8.656710289838975e-05,"train",2160.0,"2021-11-28 09:47:58.262367","","","","","","",""
0.0,0.09897647053003311,8.668913685787099e-05,"train",2180.0,"2021-11-28 09:48:02.099576","","","","","","",""
0.0,0.13487794995307922,8.681229029478487e-05,"train",2200.0,"2021-11-28 09:48:05.903861","","","","","","",""
0.0,0.08079725503921509,8.693656306451203e-05,"train",2220.0,"2021-11-28 09:48:09.499551","","","","","","",""
0.0,0.15062706172466278,8.706195502111778e-05,"train",2240.0,"2021-11-28 09:48:13.455450","","","","","","",""
0.0,0.1319623738527298,8.718846601735403e-05,"train",2260.0,"2021-11-28 09:48:17.311830","","","","","","",""
0.0,0.09381459653377533,8.731609590465839e-05,"train",2280.0,"2021-11-28 09:48:20.929342","","","","","","",""
0.0,0.10556937009096146,8.744484453315445e-05,"train",2300.0,"2021-11-28 09:48:24.853252","","","","","","",""
0.0,0.14103838801383972,8.757471175165218e-05,"train",2320.0,"2021-11-28 09:48:28.770136","","","","","","",""
0.0,0.09427861124277115,8.770569740764746e-05,"train",2340.0,"2021-11-28 09:48:32.333157","","","","","","",""
0.0,0.10861232131719589,8.783780134732347e-05,"train",2360.0,"2021-11-28 09:48:36.127068","","","","","","",""
0.0,0.127231627702713,8.797102341555037e-05,"train",2380.0,"2021-11-28 09:48:39.956012","","","","","","",""
0.0,0.10510733723640442,8.810536345588431e-05,"train",2400.0,"2021-11-28 09:48:43.483340","","","","","","",""
0.0,0.11309050023555756,8.824082131056931e-05,"train",2420.0,"2021-11-28 09:48:47.375866","","","","","","",""
0.0,0.1276743859052658,8.837739682053623e-05,"train",2440.0,"2021-11-28 09:48:51.194370","","","","","","",""
0.0,0.11153235286474228,8.851508982540444e-05,"train",2460.0,"2021-11-28 09:48:54.749837","","","","","","",""
0.0,0.09166166186332703,8.865390016348038e-05,"train",2480.0,"2021-11-28 09:48:58.543412","","","","","","",""
0.0,0.12771323323249817,8.879382767175772e-05,"train",2500.0,"2021-11-28 09:49:02.430580","","","","","","",""
0.0,0.07629580795764923,8.893487218591956e-05,"train",2520.0,"2021-11-28 09:49:06.056106","","","","","","",""
0.0,0.152922123670578,8.907703354033621e-05,"train",2540.0,"2021-11-28 09:49:09.884338","","","","","","",""
0.0,0.1230345070362091,8.922031156806745e-05,"train",2560.0,"2021-11-28 09:49:13.737604","","","","","","",""
0.0,0.10938241332769394,8.936470610086092e-05,"train",2580.0,"2021-11-28 09:49:17.314556","","","","","","",""
0.0,0.10707350075244904,8.951021696915347e-05,"train",2600.0,"2021-11-28 09:49:21.176955","","","","","","",""
0.0,0.09474307298660278,8.965684400207073e-05,"train",2620.0,"2021-11-28 09:49:24.979316","","","","","","",""
0.0,0.11671138554811478,8.980458702742816e-05,"train",2640.0,"2021-11-28 09:49:28.518653","","","","","","",""
0.0,0.12809336185455322,8.995344587173085e-05,"train",2660.0,"2021-11-28 09:49:32.423858","","","","","","",""
0.0,0.11780743300914764,9.010342036017225e-05,"train",2680.0,"2021-11-28 09:49:36.320938","","","","","","",""
0.0,0.13986624777317047,9.025451031663737e-05,"train",2700.0,"2021-11-28 09:49:39.971555","","","","","","",""
0.0,0.13119758665561676,9.040671556370021e-05,"train",2720.0,"2021-11-28 09:49:43.824558","","","","","","",""
0.0,0.11773668974637985,9.05600359226255e-05,"train",2740.0,"2021-11-28 09:49:47.640237","","","","","","",""
0.0,0.10104066133499146,9.071447121336822e-05,"train",2760.0,"2021-11-28 09:49:51.274093","","","","","","",""
0.0,0.07505092769861221,9.087002125457455e-05,"train",2780.0,"2021-11-28 09:49:55.126961","","","","","","",""
0.0,0.09246628731489182,9.102668586358133e-05,"train",2800.0,"2021-11-28 09:49:58.944026","","","","","","",""
0.0,0.1027676910161972,9.118446485641661e-05,"train",2820.0,"2021-11-28 09:50:02.474458","","","","","","",""
0.0,0.07863316684961319,9.134335804779955e-05,"train",2840.0,"2021-11-28 09:50:06.302366","","","","","","",""
0.0,0.07348205894231796,9.150336525114134e-05,"train",2860.0,"2021-11-28 09:50:10.118407","","","","","","",""
0.0,0.10315730422735214,9.166448627854476e-05,"train",2880.0,"2021-11-28 09:50:13.654354","","","","","","",""
0.0,0.11425799876451492,9.18267209408046e-05,"train",2900.0,"2021-11-28 09:50:17.463560","","","","","","",""
0.0,0.1021508276462555,9.199006904740789e-05,"train",2920.0,"2021-11-28 09:50:21.319712","","","","","","",""
0.0,0.1202339455485344,9.21545304065339e-05,"train",2940.0,"2021-11-28 09:50:24.888489","","","","","","",""
0.0,0.1262972205877304,9.232010482505544e-05,"train",2960.0,"2021-11-28 09:50:28.754277","","","","","","",""
0.0,0.11482526361942291,9.24867921085371e-05,"train",2980.0,"2021-11-28 09:50:32.606084","","","","","","",""
0.0,0.1340274065732956,9.265459206123788e-05,"train",3000.0,"2021-11-28 09:50:36.198385","","","","","","",""
0.0,0.12779419124126434,9.282350448610904e-05,"train",3020.0,"2021-11-28 09:50:40.095929","","","","","","",""
0.0,0.11095084249973297,9.299352918479623e-05,"train",3040.0,"2021-11-28 09:50:43.925578","","","","","","",""
0.0,0.12423589080572128,9.316466595763796e-05,"train",3060.0,"2021-11-28 09:50:47.503626","","","","","","",""
0.0,0.12949860095977783,9.333691460366848e-05,"train",3080.0,"2021-11-28 09:50:51.413019","","","","","","",""
0.0,0.12657301127910614,9.351027492061469e-05,"train",3100.0,"2021-11-28 09:50:55.308075","","","","","","",""
0.0,0.09008413553237915,9.3684746704899e-05,"train",3120.0,"2021-11-28 09:50:58.918306","","","","","","",""
0.0,0.07778774946928024,9.386032975163862e-05,"train",3140.0,"2021-11-28 09:51:02.758257","","","","","","",""
0.0,0.1218486949801445,9.403702385464498e-05,"train",3160.0,"2021-11-28 09:51:06.601454","","","","","","",""
0.0,0.11886395514011383,9.421482880642585e-05,"train",3180.0,"2021-11-28 09:51:10.178760","","","","","","",""
0.0,0.13301509618759155,9.439374439818384e-05,"train",3200.0,"2021-11-28 09:51:14.021589","","","","","","",""
0.0,0.13271035254001617,9.457377041981749e-05,"train",3220.0,"2021-11-28 09:51:17.863814","","","","","","",""
0.0,0.1316787302494049,9.475490665992168e-05,"train",3240.0,"2021-11-28 09:51:21.507968","","","","","","",""
0.0,0.1619083136320114,9.493715290578657e-05,"train",3260.0,"2021-11-28 09:51:25.404661","","","","","","",""
0.0,0.1057293713092804,9.512050894340063e-05,"train",3280.0,"2021-11-28 09:51:29.331380","","","","","","",""
0.0,0.08817838877439499,9.530497455744716e-05,"train",3300.0,"2021-11-28 09:51:32.918416","","","","","","",""
0.0,0.08110660314559937,9.549054953130734e-05,"train",3320.0,"2021-11-28 09:51:36.745608","","","","","","",""
0.0,0.08514702320098877,9.567723364705999e-05,"train",3340.0,"2021-11-28 09:51:40.587928","","","","","","",""
0.0,0.1581161618232727,9.586502668548075e-05,"train",3360.0,"2021-11-28 09:51:44.226675","","","","","","",""
0.0,0.12423183023929596,9.605392842604397e-05,"train",3380.0,"2021-11-28 09:51:48.133459","","","","","","",""
0.0,0.1076718121767044,9.624393864692059e-05,"train",3400.0,"2021-11-28 09:51:52.080249","","","","","","",""
0.0,0.11132055521011353,9.643505712498114e-05,"train",3420.0,"2021-11-28 09:51:55.698723","","","","","","",""
0.0,0.12459562718868256,9.662728363579449e-05,"train",3440.0,"2021-11-28 09:51:59.506083","","","","","","",""
0.0,0.1363338828086853,9.682061795362757e-05,"train",3460.0,"2021-11-28 09:52:03.409366","","","","","","",""
0.0,0.1223088726401329,9.701505985144779e-05,"train",3480.0,"2021-11-28 09:52:06.940487","","","","","","",""
0.0,0.10280612856149673,9.721060910092044e-05,"train",3500.0,"2021-11-28 09:52:10.789507","","","","","","",""
0.0,0.09016461670398712,9.740726547241129e-05,"train",3520.0,"2021-11-28 09:52:14.635213","","","","","","",""
0.0,0.06337116658687592,9.760502873498592e-05,"train",3540.0,"2021-11-28 09:52:18.153228","","","","","","",""
0.0,0.1200593113899231,9.780389865640996e-05,"train",3560.0,"2021-11-28 09:52:21.985752","","","","","","",""
0.0,0.09665856510400772,9.800387500314952e-05,"train",3580.0,"2021-11-28 09:52:25.876970","","","","","","",""
0.0,0.09374711662530899,9.82049575403716e-05,"train",3600.0,"2021-11-28 09:52:29.489067","","","","","","",""
0.0,0.07556392252445221,9.840714603194371e-05,"train",3620.0,"2021-11-28 09:52:33.536362","","","","","","",""
0.0,0.1090255156159401,9.861044024043531e-05,"train",3640.0,"2021-11-28 09:52:37.444408","","","","","","",""
0.0,0.10797900706529617,9.88148399271166e-05,"train",3660.0,"2021-11-28 09:52:41.069975","","","","","","",""
0.0,0.08170794695615768,9.902034485196058e-05,"train",3680.0,"2021-11-28 09:52:44.986836","","","","","","",""
0.0,0.08112484216690063,9.922695477364144e-05,"train",3700.0,"2021-11-28 09:52:48.913277","","","","","","",""
0.0,0.07480281591415405,9.943466944953663e-05,"train",3720.0,"2021-11-28 09:52:52.530706","","","","","","",""
0.0,0.15446321666240692,9.964348863572515e-05,"train",3740.0,"2021-11-28 09:52:56.455947","","","","","","",""
0.0,0.09118381142616272,9.985341208699019e-05,"train",3760.0,"2021-11-28 09:53:00.373657","","","","","","",""
0.0,0.06657624244689941,0.00010006443955681756,"train",3780.0,"2021-11-28 09:53:03.987228","","","","","","",""
0.0,0.1081976369023323,0.0001002765707973966,"train",3800.0,"2021-11-28 09:53:07.915507","","","","","","",""
0.0,0.11876052618026733,0.00010048980555962036,"train",3820.0,"2021-11-28 09:53:11.841407","","","","","","",""
0.0,0.12923939526081085,0.00010070414359308714,"train",3840.0,"2021-11-28 09:53:15.485995","","","","","","",""
0.0,0.1380617469549179,0.0001009195846460979,"train",3860.0,"2021-11-28 09:53:19.453844","","","","","","",""
0.0,0.09804709255695343,0.00010113612846565905,"train",3880.0,"2021-11-28 09:53:23.344504","","","","","","",""
0.0,0.08005676418542862,0.0001013537747974831,"train",3900.0,"2021-11-28 09:53:26.853566","","","","","","",""
0.0,0.10371309518814087,0.00010157252338598632,"train",3920.0,"2021-11-28 09:53:30.689728","","","","","","",""
0.0,0.14592576026916504,0.00010179237397429149,"train",3940.0,"2021-11-28 09:53:34.491204","","","","","","",""
0.0,0.10611090809106827,0.00010201332630422645,"train",3960.0,"2021-11-28 09:53:38.021437","","","","","","",""
0.0,0.11122754961252213,0.00010223538011632644,"train",3980.0,"2021-11-28 09:53:41.806663","","","","","","",""
0.0,0.1069415956735611,0.00010245853514983258,"train",4000.0,"2021-11-28 09:53:45.589072","","","","","","",""
0.0,0.12072967737913132,0.0001026827911426928,"train",4020.0,"2021-11-28 09:53:49.088604","","","","","","",""
0.0,0.12386557459831238,0.00010290814783156174,"train",4040.0,"2021-11-28 09:53:52.879955","","","","","","",""
0.0,0.1228000819683075,0.00010313460495180258,"train",4060.0,"2021-11-28 09:53:56.669565","","","","","","",""
0.0,0.07526355236768723,0.00010336216223748545,"train",4080.0,"2021-11-28 09:54:00.173528","","","","","","",""
0.0,0.06897503137588501,0.00010359081942138879,"train",4100.0,"2021-11-28 09:54:03.994906","","","","","","",""
0.0,0.08508803695440292,0.00010382057623499951,"train",4120.0,"2021-11-28 09:54:07.906630","","","","","","",""
0.0,0.13042640686035156,0.00010405143240851283,"train",4140.0,"2021-11-28 09:54:11.492911","","","","","","",""
0.0,0.095187246799469,0.0001042833876708333,"train",4160.0,"2021-11-28 09:54:15.379682","","","","","","",""
0.0,0.1137426570057869,0.00010451644174957488,"train",4180.0,"2021-11-28 09:54:19.329416","","","","","","",""
0.0,0.11442777514457703,0.00010475059437106129,"train",4200.0,"2021-11-28 09:54:22.950950","","","","","","",""
0.0,0.05764155089855194,0.00010498584526032564,"train",4220.0,"2021-11-28 09:54:26.855641","","","","","","",""
0.0,0.08446656912565231,0.00010522219414111191,"train",4240.0,"2021-11-28 09:54:30.777458","","","","","","",""
0.0,0.0736178532242775,0.00010545964073587432,"train",4260.0,"2021-11-28 09:54:34.402529","","","","","","",""
0.0,0.15301649272441864,0.0001056981847657784,"train",4280.0,"2021-11-28 09:54:38.205037","","","","","","",""
0.0,"","","val",4295.0,"2021-11-28 09:55:17.336697",0.40281804476400324,0.24350736701690387,0.8052244505840616,0.3089255591121361,0.16330457714079763,0.15816698057784875,0.10921700475893391
1.0,0.11586204171180725,0.00010593782595070059,"train",4300.0,"2021-11-28 09:55:21.010640","","","","","","",""
1.0,0.13570359349250793,0.00010617856400922925,"train",4320.0,"2021-11-28 09:55:24.570270","","","","","","",""
1.0,0.1199820265173912,0.00010642039865866432,"train",4340.0,"2021-11-28 09:55:28.223161","","","","","","",""
1.0,0.12339995056390762,0.00010666332961501855,"train",4360.0,"2021-11-28 09:55:31.842585","","","","","","",""
1.0,0.11226704716682434,0.0001069073565930171,"train",4380.0,"2021-11-28 09:55:35.477702","","","","","","",""
1.0,0.10461164265871048,0.00010715247930609753,"train",4400.0,"2021-11-28 09:55:39.119040","","","","","","",""
1.0,0.11037661135196686,0.0001073986974664111,"train",4420.0,"2021-11-28 09:55:42.655038","","","","","","",""
1.0,0.10364912450313568,0.00010764601078482321,"train",4440.0,"2021-11-28 09:55:46.161639","","","","","","",""
1.0,0.0662408173084259,0.00010789441897091187,"train",4460.0,"2021-11-28 09:55:49.677443","","","","","","",""
1.0,0.1019476056098938,0.00010814392173297055,"train",4480.0,"2021-11-28 09:55:53.243980","","","","","","",""
1.0,0.06413768231868744,0.00010839451877800725,"train",4500.0,"2021-11-28 09:55:57.183732","","","","","","",""
1.0,0.1054459735751152,0.00010864620981174437,"train",4520.0,"2021-11-28 09:56:00.785021","","","","","","",""
1.0,0.15348927676677704,0.00010889899453861993,"train",4540.0,"2021-11-28 09:56:04.409656","","","","","","",""
1.0,0.10923059284687042,0.00010915287266178783,"train",4560.0,"2021-11-28 09:56:08.019886","","","","","","",""
1.0,0.12898258864879608,0.00010940784388311763,"train",4580.0,"2021-11-28 09:56:11.634908","","","","","","",""
1.0,0.10753294825553894,0.00010966390790319541,"train",4600.0,"2021-11-28 09:56:15.234951","","","","","","",""
1.0,0.10594659298658371,0.0001099210644213242,"train",4620.0,"2021-11-28 09:56:18.831716","","","","","","",""
1.0,0.10651347786188126,0.00011017931313552377,"train",4640.0,"2021-11-28 09:56:22.385335","","","","","","",""
1.0,0.16223256289958954,0.00011043865374253128,"train",4660.0,"2021-11-28 09:56:26.089747","","","","","","",""
1.0,0.09509211778640747,0.00011069908593780192,"train",4680.0,"2021-11-28 09:56:29.724077","","","","","","",""
1.0,0.11242572218179703,0.00011096060941550895,"train",4700.0,"2021-11-28 09:56:33.679324","","","","","","",""
1.0,0.09699872881174088,0.0001112232238685445,"train",4720.0,"2021-11-28 09:56:37.262023","","","","","","",""
1.0,0.1443653702735901,0.00011148692898851854,"train",4740.0,"2021-11-28 09:56:40.784635","","","","","","",""
1.0,0.11546971648931503,0.00011175172446576103,"train",4760.0,"2021-11-28 09:56:44.301092","","","","","","",""
1.0,0.13080409169197083,0.00011201760998932192,"train",4780.0,"2021-11-28 09:56:47.820318","","","","","","",""
1.0,0.08799604326486588,0.00011228458524697028,"train",4800.0,"2021-11-28 09:56:51.326424","","","","","","",""
1.0,0.11615423858165741,0.00011255264992519561,"train",4820.0,"2021-11-28 09:56:54.854704","","","","","","",""
1.0,0.14799156785011292,0.00011282180370920849,"train",4840.0,"2021-11-28 09:56:58.360060","","","","","","",""
1.0,0.10772809386253357,0.00011309204628294034,"train",4860.0,"2021-11-28 09:57:01.928505","","","","","","",""
1.0,0.10710988938808441,0.0001133633773290441,"train",4880.0,"2021-11-28 09:57:05.506986","","","","","","",""
1.0,0.0986909344792366,0.00011363579652889423,"train",4900.0,"2021-11-28 09:57:09.104236","","","","","","",""
1.0,0.08925514668226242,0.00011390930356258776,"train",4920.0,"2021-11-28 09:57:12.986531","","","","","","",""
1.0,0.10553906857967377,0.00011418389810894411,"train",4940.0,"2021-11-28 09:57:16.605355","","","","","","",""
1.0,0.11645534634590149,0.00011445957984550551,"train",4960.0,"2021-11-28 09:57:20.229586","","","","","","",""
1.0,0.10751697421073914,0.00011473634844853765,"train",4980.0,"2021-11-28 09:57:23.845847","","","","","","",""
1.0,0.10899011045694351,0.00011501420359302968,"train",5000.0,"2021-11-28 09:57:27.463784","","","","","","",""
1.0,0.13879519701004028,0.0001152931449526955,"train",5020.0,"2021-11-28 09:57:31.172696","","","","","","",""
1.0,0.07573933154344559,0.00011557317219997249,"train",5040.0,"2021-11-28 09:57:34.775288","","","","","","",""
1.0,0.10496218502521515,0.00011585428500602343,"train",5060.0,"2021-11-28 09:57:38.371118","","","","","","",""
1.0,0.11891752481460571,0.00011613648304073629,"train",5080.0,"2021-11-28 09:57:41.978732","","","","","","",""
1.0,0.11539144068956375,0.00011641976597272447,"train",5100.0,"2021-11-28 09:57:45.554707","","","","","","",""
1.0,0.08526959270238876,0.00011670413346932785,"train",5120.0,"2021-11-28 09:57:49.080990","","","","","","",""
1.0,0.06092428043484688,0.00011698958519661194,"train",5140.0,"2021-11-28 09:57:52.928342","","","","","","",""
1.0,0.1132207065820694,0.00011727612081936963,"train",5160.0,"2021-11-28 09:57:56.445689","","","","","","",""
1.0,0.08752560615539551,0.00011756374000112049,"train",5180.0,"2021-11-28 09:57:59.950505","","","","","","",""
1.0,0.1027834489941597,0.00011785244240411236,"train",5200.0,"2021-11-28 09:58:03.512510","","","","","","",""
1.0,0.14456254243850708,0.00011814222768932086,"train",5220.0,"2021-11-28 09:58:07.142651","","","","","","",""
1.0,0.0990782380104065,0.00011843309551644874,"train",5240.0,"2021-11-28 09:58:10.791910","","","","","","",""
1.0,0.0725405216217041,0.00011872504554392982,"train",5260.0,"2021-11-28 09:58:14.384236","","","","","","",""
1.0,0.12710627913475037,0.00011901807742892507,"train",5280.0,"2021-11-28 09:58:17.983906","","","","","","",""
1.0,0.09074142575263977,0.00011931219082732562,"train",5300.0,"2021-11-28 09:58:21.587452","","","","","","",""
1.0,0.125717431306839,0.00011960738539375303,"train",5320.0,"2021-11-28 09:58:25.204934","","","","","","",""
1.0,0.10206130146980286,0.00011990366078155901,"train",5340.0,"2021-11-28 09:58:28.852062","","","","","","",""
1.0,0.11657509207725525,0.00012020101664282591,"train",5360.0,"2021-11-28 09:58:32.810110","","","","","","",""
1.0,0.09641999751329422,0.00012049945262836712,"train",5380.0,"2021-11-28 09:58:36.456976","","","","","","",""
1.0,0.1330074667930603,0.00012079896838772817,"train",5400.0,"2021-11-28 09:58:40.091878","","","","","","",""
1.0,0.10532893985509872,0.00012109956356918627,"train",5420.0,"2021-11-28 09:58:43.701956","","","","","","",""
1.0,0.10672803223133087,0.0001214012378197508,"train",5440.0,"2021-11-28 09:58:47.283399","","","","","","",""
1.0,0.1138206273317337,0.00012170399078516455,"train",5460.0,"2021-11-28 09:58:50.876387","","","","","","",""
1.0,0.07693313807249069,0.00012200782210990309,"train",5480.0,"2021-11-28 09:58:54.456050","","","","","","",""
1.0,0.11645197123289108,0.00012231273143717587,"train",5500.0,"2021-11-28 09:58:58.037512","","","","","","",""
1.0,0.0841921865940094,0.00012261871840892687,"train",5520.0,"2021-11-28 09:59:01.606807","","","","","","",""
1.0,0.12950840592384338,0.00012292578266583326,"train",5540.0,"2021-11-28 09:59:05.161152","","","","","","",""
1.0,0.06914468109607697,0.00012323392384730892,"train",5560.0,"2021-11-28 09:59:08.672611","","","","","","",""
1.0,0.08997754007577896,0.00012354314159150202,"train",5580.0,"2021-11-28 09:59:12.450037","","","","","","",""
1.0,0.11175121366977692,0.00012385343553529614,"train",5600.0,"2021-11-28 09:59:15.954338","","","","","","",""
1.0,0.09222163259983063,0.00012416480531431237,"train",5620.0,"2021-11-28 09:59:19.530864","","","","","","",""
1.0,0.11693143099546432,0.00012447725056290745,"train",5640.0,"2021-11-28 09:59:23.197070","","","","","","",""
1.0,0.0767025575041771,0.00012479077091417522,"train",5660.0,"2021-11-28 09:59:26.792921","","","","","","",""
1.0,0.10940960794687271,0.0001251053659999475,"train",5680.0,"2021-11-28 09:59:30.326045","","","","","","",""
1.0,0.11847415566444397,0.00012542103545079347,"train",5700.0,"2021-11-28 09:59:33.903618","","","","","","",""
1.0,0.07526589930057526,0.00012573777889602158,"train",5720.0,"2021-11-28 09:59:37.435845","","","","","","",""
1.0,0.09067709743976593,0.00012605559596367828,"train",5740.0,"2021-11-28 09:59:41.055093","","","","","","",""
1.0,0.0852418839931488,0.0001263744862805493,"train",5760.0,"2021-11-28 09:59:44.651529","","","","","","",""
1.0,0.07485737651586533,0.00012669444947216034,"train",5780.0,"2021-11-28 09:59:48.285021","","","","","","",""
1.0,0.0781845971941948,0.0001270154851627772,"train",5800.0,"2021-11-28 09:59:52.231614","","","","","","",""
1.0,0.11447639018297195,0.0001273375929754059,"train",5820.0,"2021-11-28 09:59:55.799934","","","","","","",""
1.0,0.09057258069515228,0.0001276607725317941,"train",5840.0,"2021-11-28 09:59:59.308775","","","","","","",""
1.0,0.10895396023988724,0.00012798502345243027,"train",5860.0,"2021-11-28 10:00:02.818797","","","","","","",""
1.0,0.06695661693811417,0.00012831034535654541,"train",5880.0,"2021-11-28 10:00:06.339231","","","","","","",""
1.0,0.0990484282374382,0.0001286367378621118,"train",5900.0,"2021-11-28 10:00:09.814415","","","","","","",""
1.0,0.11115246266126633,0.00012896420058584553,"train",5920.0,"2021-11-28 10:00:13.350767","","","","","","",""
1.0,0.13154934346675873,0.0001292927331432059,"train",5940.0,"2021-11-28 10:00:16.926347","","","","","","",""
1.0,0.11049696803092957,0.00012962233514839496,"train",5960.0,"2021-11-28 10:00:20.565971","","","","","","",""
1.0,0.14882509410381317,0.00012995300621436012,"train",5980.0,"2021-11-28 10:00:24.088142","","","","","","",""
1.0,0.10466417670249939,0.00013028474595279242,"train",6000.0,"2021-11-28 10:00:27.890489","","","","","","",""
1.0,0.1054781824350357,0.00013061755397412848,"train",6020.0,"2021-11-28 10:00:31.431542","","","","","","",""
1.0,0.1089961901307106,0.00013095142988755006,"train",6040.0,"2021-11-28 10:00:34.975091","","","","","","",""
1.0,0.06898654252290726,0.00013128637330098538,"train",6060.0,"2021-11-28 10:00:38.507293","","","","","","",""
1.0,0.07502210140228271,0.00013162238382110865,"train",6080.0,"2021-11-28 10:00:42.082656","","","","","","",""
1.0,0.155966654419899,0.0001319594610533412,"train",6100.0,"2021-11-28 10:00:45.644774","","","","","","",""
1.0,0.14908452332019806,0.00013229760460185184,"train",6120.0,"2021-11-28 10:00:49.142753","","","","","","",""
1.0,0.10308554768562317,0.00013263681406955655,"train",6140.0,"2021-11-28 10:00:52.641154","","","","","","",""
1.0,0.12414974719285965,0.0001329770890581203,"train",6160.0,"2021-11-28 10:00:56.143423","","","","","","",""
1.0,0.08623594045639038,0.0001333184291679567,"train",6180.0,"2021-11-28 10:00:59.684244","","","","","","",""
1.0,0.09758714586496353,0.0001336608339982282,"train",6200.0,"2021-11-28 10:01:03.197610","","","","","","",""
1.0,0.07501354813575745,0.00013400430314684754,"train",6220.0,"2021-11-28 10:01:07.027025","","","","","","",""
1.0,0.15909159183502197,0.000134348836210477,"train",6240.0,"2021-11-28 10:01:10.548508","","","","","","",""
1.0,0.07487401366233826,0.00013469443278452987,"train",6260.0,"2021-11-28 10:01:14.080774","","","","","","",""
1.0,0.07287940382957458,0.00013504109246317017,"train",6280.0,"2021-11-28 10:01:17.598323","","","","","","",""
1.0,0.12936954200267792,0.00013538881483931447,"train",6300.0,"2021-11-28 10:01:21.167976","","","","","","",""
1.0,0.0905948281288147,0.00013573759950463032,"train",6320.0,"2021-11-28 10:01:24.705861","","","","","","",""
1.0,0.12138904631137848,0.00013608744604953803,"train",6340.0,"2021-11-28 10:01:28.271910","","","","","","",""
1.0,0.09791776537895203,0.0001364383540632117,"train",6360.0,"2021-11-28 10:01:31.860716","","","","","","",""
1.0,0.08511035889387131,0.00013679032313357797,"train",6380.0,"2021-11-28 10:01:35.398147","","","","","","",""
1.0,0.10015244781970978,0.00013714335284731815,"train",6400.0,"2021-11-28 10:01:38.955254","","","","","","",""
1.0,0.11497540026903152,0.00013749744278986759,"train",6420.0,"2021-11-28 10:01:42.619288","","","","","","",""
1.0,0.12705206871032715,0.00013785259254541675,"train",6440.0,"2021-11-28 10:01:46.564355","","","","","","",""
1.0,0.09407251328229904,0.0001382088016969119,"train",6460.0,"2021-11-28 10:01:50.189201","","","","","","",""
1.0,0.10084421932697296,0.00013856606982605478,"train",6480.0,"2021-11-28 10:01:53.864560","","","","","","",""
1.0,0.10190898180007935,0.00013892439651330408,"train",6500.0,"2021-11-28 10:01:57.552410","","","","","","",""
1.0,0.08740800619125366,0.00013928378133787442,"train",6520.0,"2021-11-28 10:02:01.185302","","","","","","",""
1.0,0.09016167372465134,0.000139644223877739,"train",6540.0,"2021-11-28 10:02:04.779256","","","","","","",""
1.0,0.15044836699962616,0.00014000572370962837,"train",6560.0,"2021-11-28 10:02:08.310320","","","","","","",""
1.0,0.12229152023792267,0.00014036828040903137,"train",6580.0,"2021-11-28 10:02:11.842506","","","","","","",""
1.0,0.104779452085495,0.00014073189355019613,"train",6600.0,"2021-11-28 10:02:15.384949","","","","","","",""
1.0,0.12643517553806305,0.00014109656270613023,"train",6620.0,"2021-11-28 10:02:18.897127","","","","","","",""
1.0,0.09500263631343842,0.00014146228744860048,"train",6640.0,"2021-11-28 10:02:22.419702","","","","","","",""
1.0,0.039573442190885544,0.00014182906734813488,"train",6660.0,"2021-11-28 10:02:26.268652","","","","","","",""
1.0,0.06629817187786102,0.0001421969019740222,"train",6680.0,"2021-11-28 10:02:29.829571","","","","","","",""
1.0,0.10802830010652542,0.00014256579089431216,"train",6700.0,"2021-11-28 10:02:33.396489","","","","","","",""
1.0,0.10106901079416275,0.00014293573367581722,"train",6720.0,"2021-11-28 10:02:37.028404","","","","","","",""
1.0,0.11552076041698456,0.00014330672988411143,"train",6740.0,"2021-11-28 10:02:40.672798","","","","","","",""
1.0,0.13760961592197418,0.00014367877908353244,"train",6760.0,"2021-11-28 10:02:44.299555","","","","","","",""
1.0,0.10818181931972504,0.00014405188083718083,"train",6780.0,"2021-11-28 10:02:47.945199","","","","","","",""
1.0,0.09965887665748596,0.00014442603470692181,"train",6800.0,"2021-11-28 10:02:51.603932","","","","","","",""
1.0,0.06601760536432266,0.00014480124025338442,"train",6820.0,"2021-11-28 10:02:55.275735","","","","","","",""
1.0,0.06557705998420715,0.0001451774970359634,"train",6840.0,"2021-11-28 10:02:58.902429","","","","","","",""
1.0,0.09936085343360901,0.0001455548046128182,"train",6860.0,"2021-11-28 10:03:02.557450","","","","","","",""
1.0,0.08293160051107407,0.00014593316254087507,"train",6880.0,"2021-11-28 10:03:06.406729","","","","","","",""
1.0,0.09036170691251755,0.00014631257037582644,"train",6900.0,"2021-11-28 10:03:09.926110","","","","","","",""
1.0,0.10478746145963669,0.00014669302767213177,"train",6920.0,"2021-11-28 10:03:13.514926","","","","","","",""
1.0,0.05991804972290993,0.00014707453398301847,"train",6940.0,"2021-11-28 10:03:17.220895","","","","","","",""
1.0,0.13426832854747772,0.00014745708886048162,"train",6960.0,"2021-11-28 10:03:20.876393","","","","","","",""
1.0,0.13618111610412598,0.0001478406918552855,"train",6980.0,"2021-11-28 10:03:24.521264","","","","","","",""
1.0,0.12245125323534012,0.00014822534251696324,"train",7000.0,"2021-11-28 10:03:28.156124","","","","","","",""
1.0,0.09439509361982346,0.00014861104039381773,"train",7020.0,"2021-11-28 10:03:31.728891","","","","","","",""
1.0,0.08380220830440521,0.00014899778503292202,"train",7040.0,"2021-11-28 10:03:35.245135","","","","","","",""
1.0,0.11631812900304794,0.0001493855759801203,"train",7060.0,"2021-11-28 10:03:38.768117","","","","","","",""
1.0,0.10121104121208191,0.00014977441278002748,"train",7080.0,"2021-11-28 10:03:42.314445","","","","","","",""
1.0,0.10262387245893478,0.00015016429497603117,"train",7100.0,"2021-11-28 10:03:46.162217","","","","","","",""
1.0,0.0844096913933754,0.00015055522211029036,"train",7120.0,"2021-11-28 10:03:49.692464","","","","","","",""
1.0,0.07280256599187851,0.00015094719372373802,"train",7140.0,"2021-11-28 10:03:53.340059","","","","","","",""
1.0,0.07226985692977905,0.0001513402093560796,"train",7160.0,"2021-11-28 10:03:56.983526","","","","","","",""
1.0,0.08799532800912857,0.00015173426854579513,"train",7180.0,"2021-11-28 10:04:00.628320","","","","","","",""
1.0,0.12558409571647644,0.00015212937083013893,"train",7200.0,"2021-11-28 10:04:04.238339","","","","","","",""
1.0,0.07244104146957397,0.00015252551574514075,"train",7220.0,"2021-11-28 10:04:07.765755","","","","","","",""
1.0,0.0747017040848732,0.00015292270282560587,"train",7240.0,"2021-11-28 10:04:11.300271","","","","","","",""
1.0,0.0764070674777031,0.00015332093160511507,"train",7260.0,"2021-11-28 10:04:14.832572","","","","","","",""
1.0,0.12167839705944061,0.0001537202016160268,"train",7280.0,"2021-11-28 10:04:18.374032","","","","","","",""
1.0,0.1179245263338089,0.00015412051238947655,"train",7300.0,"2021-11-28 10:04:22.239603","","","","","","",""
1.0,0.04457007348537445,0.0001545218634553772,"train",7320.0,"2021-11-28 10:04:25.834917","","","","","","",""
1.0,0.1288388967514038,0.00015492425434242047,"train",7340.0,"2021-11-28 10:04:29.393233","","","","","","",""
1.0,0.10052262991666794,0.00015532768457807676,"train",7360.0,"2021-11-28 10:04:32.931700","","","","","","",""
1.0,0.06027274206280708,0.00015573215368859593,"train",7380.0,"2021-11-28 10:04:36.536176","","","","","","",""
1.0,0.08068927377462387,0.0001561376611990083,"train",7400.0,"2021-11-28 10:04:40.169580","","","","","","",""
1.0,0.10272248089313507,0.00015654420663312445,"train",7420.0,"2021-11-28 10:04:43.704077","","","","","","",""
1.0,0.1321903020143509,0.00015695178951353615,"train",7440.0,"2021-11-28 10:04:47.226834","","","","","","",""
1.0,0.0748927891254425,0.0001573604093616165,"train",7460.0,"2021-11-28 10:04:50.774341","","","","","","",""
1.0,0.07157959043979645,0.00015777006569752164,"train",7480.0,"2021-11-28 10:04:54.358504","","","","","","",""
1.0,0.08709922432899475,0.00015818075804019047,"train",7500.0,"2021-11-28 10:04:57.906620","","","","","","",""
1.0,0.11661506444215775,0.00015859248590734446,"train",7520.0,"2021-11-28 10:05:01.816561","","","","","","",""
1.0,0.10212458670139313,0.00015900524881548995,"train",7540.0,"2021-11-28 10:05:05.447346","","","","","","",""
1.0,0.09154415130615234,0.00015941904627991745,"train",7560.0,"2021-11-28 10:05:09.086906","","","","","","",""
1.0,0.07951142638921738,0.00015983387781470294,"train",7580.0,"2021-11-28 10:05:12.615824","","","","","","",""
1.0,0.1141287162899971,0.00016024974293270744,"train",7600.0,"2021-11-28 10:05:16.125888","","","","","","",""
1.0,0.10389973223209381,0.00016066664114557853,"train",7620.0,"2021-11-28 10:05:19.659857","","","","","","",""
1.0,0.11820484697818756,0.00016108457196375102,"train",7640.0,"2021-11-28 10:05:23.187095","","","","","","",""
1.0,0.12790603935718536,0.0001615035348964465,"train",7660.0,"2021-11-28 10:05:26.721950","","","","","","",""
1.0,0.09191153943538666,0.0001619235294516748,"train",7680.0,"2021-11-28 10:05:30.242413","","","","","","",""
1.0,0.12251067906618118,0.00016234455513623475,"train",7700.0,"2021-11-28 10:05:33.748517","","","","","","",""
1.0,0.09149733185768127,0.0001627666114557135,"train",7720.0,"2021-11-28 10:05:37.290187","","","","","","",""
1.0,0.10436509549617767,0.00016318969791448857,"train",7740.0,"2021-11-28 10:05:41.163003","","","","","","",""
1.0,0.09858683496713638,0.00016361381401572696,"train",7760.0,"2021-11-28 10:05:44.655409","","","","","","",""
1.0,0.1354762315750122,0.0001640389592613878,"train",7780.0,"2021-11-28 10:05:48.146494","","","","","","",""
1.0,0.13351164758205414,0.00016446513315222116,"train",7800.0,"2021-11-28 10:05:51.647922","","","","","","",""
1.0,0.09187429398298264,0.00016489233518776842,"train",7820.0,"2021-11-28 10:05:55.152144","","","","","","",""
1.0,0.08928091078996658,0.00016532056486636445,"train",7840.0,"2021-11-28 10:05:58.668318","","","","","","",""
1.0,0.11649536341428757,0.00016574982168513744,"train",7860.0,"2021-11-28 10:06:02.159445","","","","","","",""
1.0,0.12019102275371552,0.0001661801051400086,"train",7880.0,"2021-11-28 10:06:05.762146","","","","","","",""
1.0,0.14451120793819427,0.0001666114147256942,"train",7900.0,"2021-11-28 10:06:09.362079","","","","","","",""
1.0,0.09316248446702957,0.00016704374993570551,"train",7920.0,"2021-11-28 10:06:13.017992","","","","","","",""
1.0,0.14708399772644043,0.00016747711026234924,"train",7940.0,"2021-11-28 10:06:16.663457","","","","","","",""
1.0,0.08815577626228333,0.0001679114951967282,"train",7960.0,"2021-11-28 10:06:20.583528","","","","","","",""
1.0,0.1371740847826004,0.00016834690422874179,"train",7980.0,"2021-11-28 10:06:24.134691","","","","","","",""
1.0,0.10060030221939087,0.00016878333684708802,"train",8000.0,"2021-11-28 10:06:27.636253","","","","","","",""
1.0,0.09245871007442474,0.00016922079253926152,"train",8020.0,"2021-11-28 10:06:31.274395","","","","","","",""
1.0,0.0628400593996048,0.0001696592707915558,"train",8040.0,"2021-11-28 10:06:34.910387","","","","","","",""
1.0,0.10923868417739868,0.00017009877108906395,"train",8060.0,"2021-11-28 10:06:38.512510","","","","","","",""
1.0,0.10563267767429352,0.00017053929291567884,"train",8080.0,"2021-11-28 10:06:42.121147","","","","","","",""
1.0,0.06486581265926361,0.00017098083575409337,"train",8100.0,"2021-11-28 10:06:45.769167","","","","","","",""
1.0,0.06615297496318817,0.00017142339908580192,"train",8120.0,"2021-11-28 10:06:49.422550","","","","","","",""
1.0,0.07852518558502197,0.00017186698239110045,"train",8140.0,"2021-11-28 10:06:53.149281","","","","","","",""
1.0,0.06990572810173035,0.0001723115851490866,"train",8160.0,"2021-11-28 10:06:56.783295","","","","","","",""
1.0,0.10927492380142212,0.00017275720683766153,"train",8180.0,"2021-11-28 10:07:00.690025","","","","","","",""
1.0,0.1000199019908905,0.0001732038469335294,"train",8200.0,"2021-11-28 10:07:04.212706","","","","","","",""
1.0,0.0684344619512558,0.00017365150491219835,"train",8220.0,"2021-11-28 10:07:07.731099","","","","","","",""
1.0,0.08719620853662491,0.0001741001802479825,"train",8240.0,"2021-11-28 10:07:11.254519","","","","","","",""
1.0,0.0800015777349472,0.0001745498724139993,"train",8260.0,"2021-11-28 10:07:14.782107","","","","","","",""
1.0,0.1064065471291542,0.00017500058088217333,"train",8280.0,"2021-11-28 10:07:18.313009","","","","","","",""
1.0,0.08727414906024933,0.00017545230512323613,"train",8300.0,"2021-11-28 10:07:21.847298","","","","","","",""
1.0,0.0837375745177269,0.00017590504460672529,"train",8320.0,"2021-11-28 10:07:25.388472","","","","","","",""
1.0,0.08863293379545212,0.00017635879880098645,"train",8340.0,"2021-11-28 10:07:28.985410","","","","","","",""
1.0,0.11643734574317932,0.00017681356717317459,"train",8360.0,"2021-11-28 10:07:32.619408","","","","","","",""
1.0,0.07669231295585632,0.00017726934918925268,"train",8380.0,"2021-11-28 10:07:36.249252","","","","","","",""
1.0,0.1022055372595787,0.0001777261443139937,"train",8400.0,"2021-11-28 10:07:40.100023","","","","","","",""
1.0,0.08016796410083771,0.00017818395201098128,"train",8420.0,"2021-11-28 10:07:43.632957","","","","","","",""
1.0,0.08809247612953186,0.00017864277174260918,"train",8440.0,"2021-11-28 10:07:47.157522","","","","","","",""
1.0,0.09150677919387817,0.0001791026029700838,"train",8460.0,"2021-11-28 10:07:50.685776","","","","","","",""
1.0,0.09375141561031342,0.00017956344515342258,"train",8480.0,"2021-11-28 10:07:54.244303","","","","","","",""
1.0,0.09674014896154404,0.00018002529775145706,"train",8500.0,"2021-11-28 10:07:57.785424","","","","","","",""
1.0,0.10100282728672028,0.00018048816022183116,"train",8520.0,"2021-11-28 10:08:01.309019","","","","","","",""
1.0,0.14355500042438507,0.0001809520320210031,"train",8540.0,"2021-11-28 10:08:04.863253","","","","","","",""
1.0,0.10196556150913239,0.0001814169126042465,"train",8560.0,"2021-11-28 10:08:08.438103","","","","","","",""
1.0,0.09789351373910904,0.00018188280142564977,"train",8580.0,"2021-11-28 10:08:11.964765","","","","","","",""
1.0,"","","val",8590.0,"2021-11-28 10:08:47.305091",0.42351849704279254,0.31843945811683066,0.858557500066826,0.4039737335134753,0.22372956864001634,0.21752378320832597,0.14713677789849072
2.0,0.07373424619436264,0.00018234969793811708,"train",8600.0,"2021-11-28 10:08:52.322285","","","","","","",""
2.0,0.0801830142736435,0.00018281760159337,"train",8620.0,"2021-11-28 10:08:55.956625","","","","","","",""
2.0,0.08488893508911133,0.00018328651184194747,"train",8640.0,"2021-11-28 10:08:59.788212","","","","","","",""
2.0,0.0909203588962555,0.00018375642813320508,"train",8660.0,"2021-11-28 10:09:03.633002","","","","","","",""
2.0,0.0905403420329094,0.00018422734991531886,"train",8680.0,"2021-11-28 10:09:07.194713","","","","","","",""
2.0,0.10864774137735367,0.00018469927663528236,"train",8700.0,"2021-11-28 10:09:11.085735","","","","","","",""
2.0,0.11806657165288925,0.00018517220773891022,"train",8720.0,"2021-11-28 10:09:14.978869","","","","","","",""
2.0,0.05975031107664108,0.00018564614267083698,"train",8740.0,"2021-11-28 10:09:18.565013","","","","","","",""
2.0,0.1342097520828247,0.00018612108087451892,"train",8760.0,"2021-11-28 10:09:22.393059","","","","","","",""
2.0,0.10179394483566284,0.00018659702179223375,"train",8780.0,"2021-11-28 10:09:26.286420","","","","","","",""
2.0,0.08036674559116364,0.00018707396486508155,"train",8800.0,"2021-11-28 10:09:29.900550","","","","","","",""
2.0,0.11721246689558029,0.00018755190953298646,"train",8820.0,"2021-11-28 10:09:33.817635","","","","","","",""
2.0,0.16468273103237152,0.00018803085523469497,"train",8840.0,"2021-11-28 10:09:37.778948","","","","","","",""
2.0,0.057035431265830994,0.00018851080140777957,"train",8860.0,"2021-11-28 10:09:41.374373","","","","","","",""
2.0,0.10771136730909348,0.00018899174748863686,"train",8880.0,"2021-11-28 10:09:45.243707","","","","","","",""
2.0,0.10398786514997482,0.00018947369291248965,"train",8900.0,"2021-11-28 10:09:49.178600","","","","","","",""
2.0,0.09353223443031311,0.00018995663711338724,"train",8920.0,"2021-11-28 10:09:52.818608","","","","","","",""
2.0,0.09278633445501328,0.00019044057952420624,"train",8940.0,"2021-11-28 10:09:56.741968","","","","","","",""
2.0,0.1028963029384613,0.00019092551957665014,"train",8960.0,"2021-11-28 10:10:00.649559","","","","","","",""
2.0,0.11059441417455673,0.00019141145670125196,"train",8980.0,"2021-11-28 10:10:04.198408","","","","","","",""
2.0,0.0767892450094223,0.00019189839032737375,"train",9000.0,"2021-11-28 10:10:08.061517","","","","","","",""
2.0,0.13129925727844238,0.00019238631988320598,"train",9020.0,"2021-11-28 10:10:11.887438","","","","","","",""
2.0,0.10742618888616562,0.0001928752447957721,"train",9040.0,"2021-11-28 10:10:15.411777","","","","","","",""
2.0,0.08332628756761551,0.00019336516449092438,"train",9060.0,"2021-11-28 10:10:19.244038","","","","","","",""
2.0,0.08766521513462067,0.00019385607839334808,"train",9080.0,"2021-11-28 10:10:23.159545","","","","","","",""
2.0,0.10427631437778473,0.00019434798592656076,"train",9100.0,"2021-11-28 10:10:26.806350","","","","","","",""
2.0,0.13119925558567047,0.00019484088651291294,"train",9120.0,"2021-11-28 10:10:30.771864","","","","","","",""
2.0,0.08596840500831604,0.00019533477957358897,"train",9140.0,"2021-11-28 10:10:34.665245","","","","","","",""
2.0,0.10161476582288742,0.00019582966452860815,"train",9160.0,"2021-11-28 10:10:38.312069","","","","","","",""
2.0,0.10752386599779129,0.00019632554079682487,"train",9180.0,"2021-11-28 10:10:42.281928","","","","","","",""
2.0,0.1177179291844368,0.0001968224077959291,"train",9200.0,"2021-11-28 10:10:46.236586","","","","","","",""
2.0,0.10341277718544006,0.00019732026494244772,"train",9220.0,"2021-11-28 10:10:49.810355","","","","","","",""
2.0,0.12048877775669098,0.0001978191116517444,"train",9240.0,"2021-11-28 10:10:53.711545","","","","","","",""
2.0,0.05005086213350296,0.00019831894733802168,"train",9260.0,"2021-11-28 10:10:57.691439","","","","","","",""
2.0,0.07700126618146896,0.0001988197714143194,"train",9280.0,"2021-11-28 10:11:01.401115","","","","","","",""
2.0,0.09142065048217773,0.00019932158329251837,"train",9300.0,"2021-11-28 10:11:05.316728","","","","","","",""
2.0,0.09494596719741821,0.0001998243823833378,"train",9320.0,"2021-11-28 10:11:09.223962","","","","","","",""
2.0,0.11450499296188354,0.00020032816809633855,"train",9340.0,"2021-11-28 10:11:12.861379","","","","","","",""
2.0,0.13118140399456024,0.00020083293983992308,"train",9360.0,"2021-11-28 10:11:16.768652","","","","","","",""
2.0,0.0699346736073494,0.0002013386970213353,"train",9380.0,"2021-11-28 10:11:20.685545","","","","","","",""
2.0,0.10536862164735794,0.00020184543904666163,"train",9400.0,"2021-11-28 10:11:24.362380","","","","","","",""
2.0,0.08992721885442734,0.00020235316532083336,"train",9420.0,"2021-11-28 10:11:28.297075","","","","","","",""
2.0,0.08035798370838165,0.00020286187524762495,"train",9440.0,"2021-11-28 10:11:32.179453","","","","","","",""
2.0,0.06632767617702484,0.00020337156822965554,"train",9460.0,"2021-11-28 10:11:35.819085","","","","","","",""
2.0,0.11187029629945755,0.00020388224366839043,"train",9480.0,"2021-11-28 10:11:39.780739","","","","","","",""
2.0,0.07965832948684692,0.0002043939009641416,"train",9500.0,"2021-11-28 10:11:43.646596","","","","","","",""
2.0,0.1064508706331253,0.0002049065395160665,"train",9520.0,"2021-11-28 10:11:47.226453","","","","","","",""
2.0,0.05990954861044884,0.00020542015872217212,"train",9540.0,"2021-11-28 10:11:51.154143","","","","","","",""
2.0,0.08704816550016403,0.0002059347579793124,"train",9560.0,"2021-11-28 10:11:55.134572","","","","","","",""
2.0,0.06019362434744835,0.00020645033668319126,"train",9580.0,"2021-11-28 10:11:58.697089","","","","","","",""
2.0,0.07797505706548691,0.00020696689422836263,"train",9600.0,"2021-11-28 10:12:02.584797","","","","","","",""
2.0,0.10987643152475357,0.00020748443000822995,"train",9620.0,"2021-11-28 10:12:06.408371","","","","","","",""
2.0,0.07254975289106369,0.00020800294341504844,"train",9640.0,"2021-11-28 10:12:09.952880","","","","","","",""
2.0,0.07431504130363464,0.00020852243383992562,"train",9660.0,"2021-11-28 10:12:13.774610","","","","","","",""
2.0,0.10598276555538177,0.0002090429006728219,"train",9680.0,"2021-11-28 10:12:17.609213","","","","","","",""
2.0,0.10617632418870926,0.00020956434330254977,"train",9700.0,"2021-11-28 10:12:21.226690","","","","","","",""
2.0,0.05978907272219658,0.0002100867611167774,"train",9720.0,"2021-11-28 10:12:25.164721","","","","","","",""
2.0,0.07951782643795013,0.0002106101535020268,"train",9740.0,"2021-11-28 10:12:29.042111","","","","","","",""
2.0,0.14577509462833405,0.00021113451984367568,"train",9760.0,"2021-11-28 10:12:32.593529","","","","","","",""
2.0,0.12480968236923218,0.00021165985952595833,"train",9780.0,"2021-11-28 10:12:36.469153","","","","","","",""
2.0,0.09050415456295013,0.0002121861719319659,"train",9800.0,"2021-11-28 10:12:40.373402","","","","","","",""
2.0,0.0864366665482521,0.00021271345644364743,"train",9820.0,"2021-11-28 10:12:44.011543","","","","","","",""
2.0,0.08861177414655685,0.00021324171244180984,"train",9840.0,"2021-11-28 10:12:47.867449","","","","","","",""
2.0,0.12136732041835785,0.00021377093930611993,"train",9860.0,"2021-11-28 10:12:51.684399","","","","","","",""
2.0,0.12663879990577698,0.0002143011364151039,"train",9880.0,"2021-11-28 10:12:55.231043","","","","","","",""
2.0,0.11025507748126984,0.0002148323031461489,"train",9900.0,"2021-11-28 10:12:59.108814","","","","","","",""
2.0,0.0634508952498436,0.00021536443887550344,"train",9920.0,"2021-11-28 10:13:02.984453","","","","","","",""
2.0,0.09889880567789078,0.00021589754297827806,"train",9940.0,"2021-11-28 10:13:06.577775","","","","","","",""
2.0,0.10651212930679321,0.00021643161482844554,"train",9960.0,"2021-11-28 10:13:10.433183","","","","","","",""
2.0,0.07149431854486465,0.0002169666537988437,"train",9980.0,"2021-11-28 10:13:14.260254","","","","","","",""
2.0,0.08318205922842026,0.00021750265926117284,"train",10000.0,"2021-11-28 10:13:17.862329","","","","","","",""
2.0,0.0826333686709404,0.00021803963058600003,"train",10020.0,"2021-11-28 10:13:21.669301","","","","","","",""
2.0,0.12996213138103485,0.00021857756714275677,"train",10040.0,"2021-11-28 10:13:25.483556","","","","","","",""
2.0,0.0863359197974205,0.00021911646829974197,"train",10060.0,"2021-11-28 10:13:29.022483","","","","","","",""
2.0,0.07874161005020142,0.00021965633342412114,"train",10080.0,"2021-11-28 10:13:32.840390","","","","","","",""
2.0,0.0853552520275116,0.00022019716188192832,"train",10100.0,"2021-11-28 10:13:36.727686","","","","","","",""
2.0,0.12026926875114441,0.00022073895303806605,"train",10120.0,"2021-11-28 10:13:40.301205","","","","","","",""
2.0,0.07766178250312805,0.00022128170625630651,"train",10140.0,"2021-11-28 10:13:44.205548","","","","","","",""
2.0,0.10082322359085083,0.00022182542089929213,"train",10160.0,"2021-11-28 10:13:48.154763","","","","","","",""
2.0,0.0947636142373085,0.00022237009632853602,"train",10180.0,"2021-11-28 10:13:51.703209","","","","","","",""
2.0,0.06411582976579666,0.00022291573190442331,"train",10200.0,"2021-11-28 10:13:55.554120","","","","","","",""
2.0,0.08982832729816437,0.00022346232698621155,"train",10220.0,"2021-11-28 10:13:59.387109","","","","","","",""
2.0,0.0778479129076004,0.0002240098809320316,"train",10240.0,"2021-11-28 10:14:02.998170","","","","","","",""
2.0,0.0985945612192154,0.00022455839309888843,"train",10260.0,"2021-11-28 10:14:06.904554","","","","","","",""
2.0,0.08454819768667221,0.00022510786284266125,"train",10280.0,"2021-11-28 10:14:10.813627","","","","","","",""
2.0,0.06579680740833282,0.00022565828951810556,"train",10300.0,"2021-11-28 10:14:14.419695","","","","","","",""
2.0,0.04802057892084122,0.00022620967247885277,"train",10320.0,"2021-11-28 10:14:18.362859","","","","","","",""
2.0,0.07314354926347733,0.00022676201107741083,"train",10340.0,"2021-11-28 10:14:22.341433","","","","","","",""
2.0,0.08223874121904373,0.0002273153046651662,"train",10360.0,"2021-11-28 10:14:25.959715","","","","","","",""
2.0,0.040981508791446686,0.00022786955259238365,"train",10380.0,"2021-11-28 10:14:29.852776","","","","","","",""
2.0,0.11509371548891068,0.00022842475420820703,"train",10400.0,"2021-11-28 10:14:33.758255","","","","","","",""
2.0,0.06963243335485458,0.00022898090886066071,"train",10420.0,"2021-11-28 10:14:37.361292","","","","","","",""
2.0,0.1016528531908989,0.0002295380158966495,"train",10440.0,"2021-11-28 10:14:41.237187","","","","","","",""
2.0,0.09007063508033752,0.00023009607466196015,"train",10460.0,"2021-11-28 10:14:45.132618","","","","","","",""
2.0,0.08161510527133942,0.00023065508450126142,"train",10480.0,"2021-11-28 10:14:48.790090","","","","","","",""
2.0,0.06311473995447159,0.00023121504475810553,"train",10500.0,"2021-11-28 10:14:52.717225","","","","","","",""
2.0,0.08301370590925217,0.00023177595477492843,"train",10520.0,"2021-11-28 10:14:56.598645","","","","","","",""
2.0,0.08578813076019287,0.00023233781389305104,"train",10540.0,"2021-11-28 10:15:00.190129","","","","","","",""
2.0,0.08425430208444595,0.00023290062145267954,"train",10560.0,"2021-11-28 10:15:04.083814","","","","","","",""
2.0,0.09838245064020157,0.0002334643767929064,"train",10580.0,"2021-11-28 10:15:07.949585","","","","","","",""
2.0,0.07934010028839111,0.0002340290792517104,"train",10600.0,"2021-11-28 10:15:11.508700","","","","","","",""
2.0,0.06043151021003723,0.00023459472816595968,"train",10620.0,"2021-11-28 10:15:15.356798","","","","","","",""
2.0,0.0924614891409874,0.00023516132287140952,"train",10640.0,"2021-11-28 10:15:19.194379","","","","","","",""
2.0,0.06448957324028015,0.00023572886270270543,"train",10660.0,"2021-11-28 10:15:22.766482","","","","","","",""
2.0,0.09067779779434204,0.0002362973469933825,"train",10680.0,"2021-11-28 10:15:26.681884","","","","","","",""
2.0,0.07885824143886566,0.00023686677507586706,"train",10700.0,"2021-11-28 10:15:30.641100","","","","","","",""
2.0,0.09814079105854034,0.000237437146281477,"train",10720.0,"2021-11-28 10:15:34.301293","","","","","","",""
2.0,0.06136729568243027,0.0002380084599404226,"train",10740.0,"2021-11-28 10:15:38.306605","","","","","","",""
2.0,0.0773220807313919,0.00023858071538180778,"train",10760.0,"2021-11-28 10:15:42.202604","","","","","","",""
2.0,0.07357292622327805,0.00023915391193362993,"train",10780.0,"2021-11-28 10:15:45.826984","","","","","","",""
2.0,0.08117745816707611,0.0002397280489227821,"train",10800.0,"2021-11-28 10:15:49.665368","","","","","","",""
2.0,0.09429166465997696,0.00024030312567505205,"train",10820.0,"2021-11-28 10:15:53.518232","","","","","","",""
2.0,0.07094594091176987,0.00024087914151512476,"train",10840.0,"2021-11-28 10:15:57.083323","","","","","","",""
2.0,0.07570932060480118,0.0002414560957665823,"train",10860.0,"2021-11-28 10:16:01.002040","","","","","","",""
2.0,0.08080358058214188,0.00024203398775190415,"train",10880.0,"2021-11-28 10:16:04.936730","","","","","","",""
2.0,0.1271497756242752,0.0002426128167924693,"train",10900.0,"2021-11-28 10:16:08.604961","","","","","","",""
2.0,0.08910619467496872,0.00024319258220855582,"train",10920.0,"2021-11-28 10:16:12.469398","","","","","","",""
2.0,0.12330202758312225,0.00024377328331934268,"train",10940.0,"2021-11-28 10:16:16.297680","","","","","","",""
2.0,0.0927477478981018,0.0002443549194429096,"train",10960.0,"2021-11-28 10:16:19.940321","","","","","","",""
2.0,0.10203374922275543,0.0002449374898962388,"train",10980.0,"2021-11-28 10:16:23.874973","","","","","","",""
2.0,0.10650856792926788,0.00024552099399521507,"train",11000.0,"2021-11-28 10:16:27.793264","","","","","","",""
2.0,0.06756550818681717,0.0002461054310546266,"train",11020.0,"2021-11-28 10:16:31.450270","","","","","","",""
2.0,0.10645561665296555,0.0002466908003881665,"train",11040.0,"2021-11-28 10:16:35.354237","","","","","","",""
2.0,0.09593712538480759,0.0002472771013084325,"train",11060.0,"2021-11-28 10:16:39.269406","","","","","","",""
2.0,0.09123627096414566,0.000247864333126929,"train",11080.0,"2021-11-28 10:16:42.915767","","","","","","",""
2.0,0.07871905714273453,0.0002484524951540663,"train",11100.0,"2021-11-28 10:16:46.779440","","","","","","",""
2.0,0.1393071413040161,0.0002490415866991636,"train",11120.0,"2021-11-28 10:16:50.611313","","","","","","",""
2.0,0.09140076488256454,0.00024963160707044746,"train",11140.0,"2021-11-28 10:16:54.206448","","","","","","",""
2.0,0.08776461333036423,0.0002502225555750545,"train",11160.0,"2021-11-28 10:16:58.077248","","","","","","",""
2.0,0.11224300414323807,0.00025081443151903126,"train",11180.0,"2021-11-28 10:17:01.963342","","","","","","",""
2.0,0.09946154057979584,0.00025140723420733423,"train",11200.0,"2021-11-28 10:17:05.554834","","","","","","",""
2.0,0.08808796852827072,0.00025200096294383345,"train",11220.0,"2021-11-28 10:17:09.458341","","","","","","",""
2.0,0.1272759586572647,0.00025259561703130993,"train",11240.0,"2021-11-28 10:17:13.378807","","","","","","",""
2.0,0.08400992304086685,0.00025319119577145877,"train",11260.0,"2021-11-28 10:17:16.920064","","","","","","",""
2.0,0.05455891788005829,0.00025378769846488847,"train",11280.0,"2021-11-28 10:17:20.755395","","","","","","",""
2.0,0.1227131187915802,0.00025438512441112397,"train",11300.0,"2021-11-28 10:17:24.581904","","","","","","",""
2.0,0.0732513964176178,0.0002549834729086045,"train",11320.0,"2021-11-28 10:17:28.166128","","","","","","",""
2.0,0.10070361942052841,0.00025558274325468704,"train",11340.0,"2021-11-28 10:17:31.993098","","","","","","",""
2.0,0.17077644169330597,0.00025618293474564567,"train",11360.0,"2021-11-28 10:17:35.871022","","","","","","",""
2.0,0.08102164417505264,0.000256784046676672,"train",11380.0,"2021-11-28 10:17:39.492428","","","","","","",""
2.0,0.04514779523015022,0.000257386078341878,"train",11400.0,"2021-11-28 10:17:43.308603","","","","","","",""
2.0,0.10531213134527206,0.0002579890290342953,"train",11420.0,"2021-11-28 10:17:47.156073","","","","","","",""
2.0,0.07542001456022263,0.0002585928980458755,"train",11440.0,"2021-11-28 10:17:50.787328","","","","","","",""
2.0,0.08562598377466202,0.0002591976846674927,"train",11460.0,"2021-11-28 10:17:54.736150","","","","","","",""
2.0,0.08131244033575058,0.0002598033881889431,"train",11480.0,"2021-11-28 10:17:58.705449","","","","","","",""
2.0,0.0833386704325676,0.000260410007898946,"train",11500.0,"2021-11-28 10:18:02.424832","","","","","","",""
2.0,0.0876065269112587,0.0002610175430851453,"train",11520.0,"2021-11-28 10:18:06.399376","","","","","","",""
2.0,0.13647571206092834,0.0002616259930341095,"train",11540.0,"2021-11-28 10:18:10.406912","","","","","","",""
2.0,0.08246893435716629,0.00026223535703133244,"train",11560.0,"2021-11-28 10:18:13.962885","","","","","","",""
2.0,0.0973954126238823,0.0002628456343612361,"train",11580.0,"2021-11-28 10:18:17.783638","","","","","","",""
2.0,0.0828288346529007,0.00026345682430716833,"train",11600.0,"2021-11-28 10:18:21.584577","","","","","","",""
2.0,0.11205091327428818,0.0002640689261514059,"train",11620.0,"2021-11-28 10:18:25.101470","","","","","","",""
2.0,0.10294204950332642,0.00026468193917515465,"train",11640.0,"2021-11-28 10:18:28.951903","","","","","","",""
2.0,0.08793099224567413,0.00026529586265855096,"train",11660.0,"2021-11-28 10:18:32.837706","","","","","","",""
2.0,0.1300739347934723,0.0002659106958806611,"train",11680.0,"2021-11-28 10:18:36.438863","","","","","","",""
2.0,0.10537434369325638,0.00026652643811948384,"train",11700.0,"2021-11-28 10:18:40.427520","","","","","","",""
2.0,0.09787249565124512,0.00026714308865195,"train",11720.0,"2021-11-28 10:18:44.386429","","","","","","",""
2.0,0.07422365248203278,0.000267760646753924,"train",11740.0,"2021-11-28 10:18:47.961720","","","","","","",""
2.0,0.11210419982671738,0.00026837911170020444,"train",11760.0,"2021-11-28 10:18:51.792564","","","","","","",""
2.0,0.11683280766010284,0.0002689984827645251,"train",11780.0,"2021-11-28 10:18:55.709866","","","","","","",""
2.0,0.1009151041507721,0.0002696187592195556,"train",11800.0,"2021-11-28 10:18:59.377001","","","","","","",""
2.0,0.09421879053115845,0.00027023994033690234,"train",11820.0,"2021-11-28 10:19:03.332852","","","","","","",""
2.0,0.05366997420787811,0.0002708620253871095,"train",11840.0,"2021-11-28 10:19:07.286212","","","","","","",""
2.0,0.12123618274927139,0.00027148501363965984,"train",11860.0,"2021-11-28 10:19:10.961624","","","","","","",""
2.0,0.07936815172433853,0.00027210890436297455,"train",11880.0,"2021-11-28 10:19:14.955209","","","","","","",""
2.0,0.11171653121709824,0.0002727336968244168,"train",11900.0,"2021-11-28 10:19:18.930766","","","","","","",""
2.0,0.10867362469434738,0.00027335939029028916,"train",11920.0,"2021-11-28 10:19:22.627329","","","","","","",""
2.0,0.15125194191932678,0.0002739859840258372,"train",11940.0,"2021-11-28 10:19:26.552239","","","","","","",""
2.0,0.060533925890922546,0.00027461347729524884,"train",11960.0,"2021-11-28 10:19:30.450814","","","","","","",""
2.0,0.12661756575107574,0.00027524186936165587,"train",11980.0,"2021-11-28 10:19:34.090873","","","","","","",""
2.0,0.0819094181060791,0.00027587115948713445,"train",12000.0,"2021-11-28 10:19:37.919729","","","","","","",""
2.0,0.1085474044084549,0.00027650134693270605,"train",12020.0,"2021-11-28 10:19:41.818167","","","","","","",""
2.0,0.06959071010351181,0.0002771324309583389,"train",12040.0,"2021-11-28 10:19:45.383476","","","","","","",""
2.0,0.09850718826055527,0.00027776441082294793,"train",12060.0,"2021-11-28 10:19:49.234390","","","","","","",""
2.0,0.07405832409858704,0.00027839728578439625,"train",12080.0,"2021-11-28 10:19:53.206778","","","","","","",""
2.0,0.0714811384677887,0.0002790310550994956,"train",12100.0,"2021-11-28 10:19:56.836938","","","","","","",""
2.0,0.1339331567287445,0.0002796657180240082,"train",12120.0,"2021-11-28 10:20:00.779552","","","","","","",""
2.0,0.06080722436308861,0.0002803012738126459,"train",12140.0,"2021-11-28 10:20:04.736874","","","","","","",""
2.0,0.08973671495914459,0.0002809377217190725,"train",12160.0,"2021-11-28 10:20:08.432392","","","","","","",""
2.0,0.08718037605285645,0.00028157506099590456,"train",12180.0,"2021-11-28 10:20:12.372078","","","","","","",""
2.0,0.07567328214645386,0.00028221329089471166,"train",12200.0,"2021-11-28 10:20:16.320828","","","","","","",""
2.0,0.10818173736333847,0.0002828524106660169,"train",12220.0,"2021-11-28 10:20:19.934290","","","","","","",""
2.0,0.07740216702222824,0.0002834924195592994,"train",12240.0,"2021-11-28 10:20:23.769642","","","","","","",""
2.0,0.08293678611516953,0.0002841333168229936,"train",12260.0,"2021-11-28 10:20:27.638738","","","","","","",""
2.0,0.10731054097414017,0.00028477510170449066,"train",12280.0,"2021-11-28 10:20:31.428736","","","","","","",""
2.0,0.13466902077198029,0.0002854177734501397,"train",12300.0,"2021-11-28 10:20:35.412841","","","","","","",""
2.0,0.0947171226143837,0.0002860613313052482,"train",12320.0,"2021-11-28 10:20:39.377676","","","","","","",""
2.0,0.11113236844539642,0.000286705774514083,"train",12340.0,"2021-11-28 10:20:43.043297","","","","","","",""
2.0,0.037161607295274734,0.0002873511023198719,"train",12360.0,"2021-11-28 10:20:46.991735","","","","","","",""
2.0,0.12985944747924805,0.00028799731396480306,"train",12380.0,"2021-11-28 10:20:50.916262","","","","","","",""
2.0,0.05405525118112564,0.00028864440869002714,"train",12400.0,"2021-11-28 10:20:54.438652","","","","","","",""
2.0,0.08342373371124268,0.00028929238573565785,"train",12420.0,"2021-11-28 10:20:58.252860","","","","","","",""
2.0,0.07015072554349899,0.0002899412443407724,"train",12440.0,"2021-11-28 10:21:02.073526","","","","","","",""
2.0,0.1095181554555893,0.0002905909837434134,"train",12460.0,"2021-11-28 10:21:05.597715","","","","","","",""
2.0,0.07016728818416595,0.00029124160318058884,"train",12480.0,"2021-11-28 10:21:09.388740","","","","","","",""
2.0,0.07813028246164322,0.0002918931018882729,"train",12500.0,"2021-11-28 10:21:13.243443","","","","","","",""
2.0,0.06794704496860504,0.000292545479101408,"train",12520.0,"2021-11-28 10:21:16.828251","","","","","","",""
2.0,0.08937866985797882,0.0002931987340539042,"train",12540.0,"2021-11-28 10:21:20.660364","","","","","","",""
2.0,0.0799054428935051,0.00029385286597864127,"train",12560.0,"2021-11-28 10:21:24.473691","","","","","","",""
2.0,0.08570713549852371,0.000294507874107469,"train",12580.0,"2021-11-28 10:21:28.136873","","","","","","",""
2.0,0.11232572048902512,0.0002951637576712083,"train",12600.0,"2021-11-28 10:21:32.034384","","","","","","",""
2.0,0.09664763510227203,0.000295820515899652,"train",12620.0,"2021-11-28 10:21:35.977394","","","","","","",""
2.0,0.10494524240493774,0.0002964781480215657,"train",12640.0,"2021-11-28 10:21:39.576803","","","","","","",""
2.0,0.07100313156843185,0.000297136653264689,"train",12660.0,"2021-11-28 10:21:43.495757","","","","","","",""
2.0,0.11781802773475647,0.00029779603085573606,"train",12680.0,"2021-11-28 10:21:47.465964","","","","","","",""
2.0,0.12092147022485733,0.0002984562800203965,"train",12700.0,"2021-11-28 10:21:51.103712","","","","","","",""
2.0,0.0753500759601593,0.00029911739998333725,"train",12720.0,"2021-11-28 10:21:55.020032","","","","","","",""
2.0,0.047663819044828415,0.0002997793899682014,"train",12740.0,"2021-11-28 10:21:58.965050","","","","","","",""
2.0,0.0869799256324768,0.0003004422491976115,"train",12760.0,"2021-11-28 10:22:02.652741","","","","","","",""
2.0,0.12475261837244034,0.000301105976893168,"train",12780.0,"2021-11-28 10:22:06.578949","","","","","","",""
2.0,0.08236279338598251,0.0003017705722754532,"train",12800.0,"2021-11-28 10:22:10.513913","","","","","","",""
2.0,0.1100274994969368,0.00030243603456402927,"train",12820.0,"2021-11-28 10:22:14.170650","","","","","","",""
2.0,0.07612549513578415,0.0003031023629774406,"train",12840.0,"2021-11-28 10:22:18.104887","","","","","","",""
2.0,0.07365213334560394,0.0003037695567332148,"train",12860.0,"2021-11-28 10:22:22.065023","","","","","","",""
2.0,0.08348561823368073,0.00030443761504786297,"train",12880.0,"2021-11-28 10:22:25.728184","","","","","","",""
2.0,"","","val",12885.0,"2021-11-28 10:23:00.859677",0.4728632726429317,0.3761274104800616,0.8793541943584668,0.4520847919073955,0.3025840836053297,0.29767410090583335,0.19360995598480926
3.0,0.06347696483135223,0.0003051065371368815,"train",12900.0,"2021-11-28 10:23:06.384285","","","","","","",""
3.0,0.10808411240577698,0.0003057763222147512,"train",12920.0,"2021-11-28 10:23:10.058531","","","","","","",""
3.0,0.1354750394821167,0.0003064469694949411,"train",12940.0,"2021-11-28 10:23:13.724460","","","","","","",""
3.0,0.07001473754644394,0.0003071184781899066,"train",12960.0,"2021-11-28 10:23:17.380293","","","","","","",""
3.0,0.05667807534337044,0.00030779084751109175,"train",12980.0,"2021-11-28 10:23:21.063640","","","","","","",""
3.0,0.06998904049396515,0.00030846407666893037,"train",13000.0,"2021-11-28 10:23:25.074817","","","","","","",""
3.0,0.08593195676803589,0.0003091381648728459,"train",13020.0,"2021-11-28 10:23:28.727168","","","","","","",""
3.0,0.10625738650560379,0.00030981311133125404,"train",13040.0,"2021-11-28 10:23:32.397239","","","","","","",""
3.0,0.06868448108434677,0.00031048891525156143,"train",13060.0,"2021-11-28 10:23:36.058295","","","","","","",""
3.0,0.10615017265081406,0.0003111655758401687,"train",13080.0,"2021-11-28 10:23:39.746878","","","","","","",""
3.0,0.08995380997657776,0.0003118430923024697,"train",13100.0,"2021-11-28 10:23:43.715807","","","","","","",""
3.0,0.12471522390842438,0.00031252146384285417,"train",13120.0,"2021-11-28 10:23:47.376063","","","","","","",""
3.0,0.10529591888189316,0.0003132006896647071,"train",13140.0,"2021-11-28 10:23:51.032266","","","","","","",""
3.0,0.06090320646762848,0.0003138807689704098,"train",13160.0,"2021-11-28 10:23:54.668178","","","","","","",""
3.0,0.08114607632160187,0.00031456170096134267,"train",13180.0,"2021-11-28 10:23:58.322434","","","","","","",""
3.0,0.06899450719356537,0.0003152434848378838,"train",13200.0,"2021-11-28 10:24:01.999577","","","","","","",""
3.0,0.06332852691411972,0.0003159261197994113,"train",13220.0,"2021-11-28 10:24:05.886355","","","","","","",""
3.0,0.09544911980628967,0.00031660960504430354,"train",13240.0,"2021-11-28 10:24:09.421876","","","","","","",""
3.0,0.13023164868354797,0.00031729393976994043,"train",13260.0,"2021-11-28 10:24:12.970447","","","","","","",""
3.0,0.07589902728796005,0.00031797912317270524,"train",13280.0,"2021-11-28 10:24:16.535141","","","","","","",""
3.0,0.05983457341790199,0.0003186651544479829,"train",13300.0,"2021-11-28 10:24:20.229791","","","","","","",""
3.0,0.065920889377594,0.0003193520327901642,"train",13320.0,"2021-11-28 10:24:24.196935","","","","","","",""
3.0,0.09524280577898026,0.0003200397573926445,"train",13340.0,"2021-11-28 10:24:27.842097","","","","","","",""
3.0,0.07406782358884811,0.00032072832744782596,"train",13360.0,"2021-11-28 10:24:31.473399","","","","","","",""
3.0,0.08081221580505371,0.00032141774214711704,"train",13380.0,"2021-11-28 10:24:35.100302","","","","","","",""
3.0,0.08585121482610703,0.0003221080006809349,"train",13400.0,"2021-11-28 10:24:38.773124","","","","","","",""
3.0,0.0910191759467125,0.0003227991022387057,"train",13420.0,"2021-11-28 10:24:42.426625","","","","","","",""
3.0,0.10183501988649368,0.00032349104600886596,"train",13440.0,"2021-11-28 10:24:46.375521","","","","","","",""
3.0,0.12423156946897507,0.0003241838311788623,"train",13460.0,"2021-11-28 10:24:50.085694","","","","","","",""
3.0,0.08506426215171814,0.0003248774569351543,"train",13480.0,"2021-11-28 10:24:53.683600","","","","","","",""
3.0,0.08378137648105621,0.00032557192246321386,"train",13500.0,"2021-11-28 10:24:57.354554","","","","","","",""
3.0,0.0946875736117363,0.0003262672269475266,"train",13520.0,"2021-11-28 10:25:00.988659","","","","","","",""
3.0,0.09750788658857346,0.0003269633695715934,"train",13540.0,"2021-11-28 10:25:04.827197","","","","","","",""
3.0,0.06950239092111588,0.0003276603495179307,"train",13560.0,"2021-11-28 10:25:08.373603","","","","","","",""
3.0,0.054921019822359085,0.0003283581659680719,"train",13580.0,"2021-11-28 10:25:11.924850","","","","","","",""
3.0,0.1262688934803009,0.00032905681810256756,"train",13600.0,"2021-11-28 10:25:15.498500","","","","","","",""
3.0,0.10282901674509048,0.00032975630510098685,"train",13620.0,"2021-11-28 10:25:19.173356","","","","","","",""
3.0,0.05184521898627281,0.00033045662614191937,"train",13640.0,"2021-11-28 10:25:22.840057","","","","","","",""
3.0,0.09354505687952042,0.000331157780402975,"train",13660.0,"2021-11-28 10:25:26.847578","","","","","","",""
3.0,0.08201711624860764,0.0003318597670607848,"train",13680.0,"2021-11-28 10:25:30.607527","","","","","","",""
3.0,0.09682410210371017,0.0003325625852910021,"train",13700.0,"2021-11-28 10:25:34.193032","","","","","","",""
3.0,0.07618600130081177,0.00033326623426830487,"train",13720.0,"2021-11-28 10:25:37.737001","","","","","","",""
3.0,0.048106689006090164,0.00033397071316639405,"train",13740.0,"2021-11-28 10:25:41.296375","","","","","","",""
3.0,0.10033146291971207,0.00033467602115799734,"train",13760.0,"2021-11-28 10:25:45.136925","","","","","","",""
3.0,0.08050316572189331,0.000335382157414868,"train",13780.0,"2021-11-28 10:25:48.682183","","","","","","",""
3.0,0.10551527887582779,0.0003360891211077867,"train",13800.0,"2021-11-28 10:25:52.238178","","","","","","",""
3.0,0.0943082869052887,0.0003367969114065634,"train",13820.0,"2021-11-28 10:25:55.788305","","","","","","",""
3.0,0.10500314086675644,0.0003375055274800361,"train",13840.0,"2021-11-28 10:25:59.339437","","","","","","",""
3.0,0.104133740067482,0.00033821496849607336,"train",13860.0,"2021-11-28 10:26:02.881605","","","","","","",""
3.0,0.0802631750702858,0.00033892523362157555,"train",13880.0,"2021-11-28 10:26:06.724069","","","","","","",""
3.0,0.07085610181093216,0.00033963632202247524,"train",13900.0,"2021-11-28 10:26:10.289908","","","","","","",""
3.0,0.09676536917686462,0.0003403482328637373,"train",13920.0,"2021-11-28 10:26:13.876658","","","","","","",""
3.0,0.07202309370040894,0.000341060965309362,"train",13940.0,"2021-11-28 10:26:17.453173","","","","","","",""
3.0,0.09978196024894714,0.0003417745185223845,"train",13960.0,"2021-11-28 10:26:21.044497","","","","","","",""
3.0,0.06438882648944855,0.00034248889166487535,"train",13980.0,"2021-11-28 10:26:24.659155","","","","","","",""
3.0,0.10922103375196457,0.0003432040838979428,"train",14000.0,"2021-11-28 10:26:28.520408","","","","","","",""
3.0,0.08501441776752472,0.0003439200943817337,"train",14020.0,"2021-11-28 10:26:32.078815","","","","","","",""
3.0,0.08623745292425156,0.00034463692227543327,"train",14040.0,"2021-11-28 10:26:35.725376","","","","","","",""
3.0,0.09341079741716385,0.0003453545667372671,"train",14060.0,"2021-11-28 10:26:39.293400","","","","","","",""
3.0,0.11528342962265015,0.00034607302692450247,"train",14080.0,"2021-11-28 10:26:42.908667","","","","","","",""
3.0,0.06853348016738892,0.00034679230199344724,"train",14100.0,"2021-11-28 10:26:46.826953","","","","","","",""
3.0,0.11015508323907852,0.00034751239109945416,"train",14120.0,"2021-11-28 10:26:50.336213","","","","","","",""
3.0,0.08083591610193253,0.0003482332933969186,"train",14140.0,"2021-11-28 10:26:53.897363","","","","","","",""
3.0,0.08482097089290619,0.0003489550080392821,"train",14160.0,"2021-11-28 10:26:57.438010","","","","","","",""
3.0,0.1360667496919632,0.00034967753417903136,"train",14180.0,"2021-11-28 10:27:00.988527","","","","","","",""
3.0,0.07980581372976303,0.0003504008709677008,"train",14200.0,"2021-11-28 10:27:04.641440","","","","","","",""
3.0,0.08513472229242325,0.00035112501755587265,"train",14220.0,"2021-11-28 10:27:08.597399","","","","","","",""
3.0,0.05329244211316109,0.0003518499730931781,"train",14240.0,"2021-11-28 10:27:12.275385","","","","","","",""
3.0,0.07085703313350677,0.0003525757367282983,"train",14260.0,"2021-11-28 10:27:15.895220","","","","","","",""
3.0,0.09576518833637238,0.00035330230760896564,"train",14280.0,"2021-11-28 10:27:19.431130","","","","","","",""
3.0,0.07360513508319855,0.00035402968488196435,"train",14300.0,"2021-11-28 10:27:23.098647","","","","","","",""
3.0,0.04625394567847252,0.00035475786769313244,"train",14320.0,"2021-11-28 10:27:27.047180","","","","","","",""
3.0,0.10225815325975418,0.0003554868551873607,"train",14340.0,"2021-11-28 10:27:30.764848","","","","","","",""
3.0,0.09208998084068298,0.00035621664650859635,"train",14360.0,"2021-11-28 10:27:34.381544","","","","","","",""
3.0,0.10404612869024277,0.0003569472407998419,"train",14380.0,"2021-11-28 10:27:37.919001","","","","","","",""
3.0,0.09918772429227829,0.0003576786372031567,"train",14400.0,"2021-11-28 10:27:41.462286","","","","","","",""
3.0,0.13414150476455688,0.00035841083485965816,"train",14420.0,"2021-11-28 10:27:45.040123","","","","","","",""
3.0,0.06270431727170944,0.00035914383290952426,"train",14440.0,"2021-11-28 10:27:48.980478","","","","","","",""
3.0,0.07879696041345596,0.00035987763049199106,"train",14460.0,"2021-11-28 10:27:52.635866","","","","","","",""
3.0,0.09899202734231949,0.0003606122267453568,"train",14480.0,"2021-11-28 10:27:56.231550","","","","","","",""
3.0,0.07897541671991348,0.0003613476208069819,"train",14500.0,"2021-11-28 10:27:59.876251","","","","","","",""
3.0,0.08245842903852463,0.00036208381181328914,"train",14520.0,"2021-11-28 10:28:03.532766","","","","","","",""
3.0,0.08843044191598892,0.0003628207988997667,"train",14540.0,"2021-11-28 10:28:07.388037","","","","","","",""
3.0,0.08414503186941147,0.0003635585812009662,"train",14560.0,"2021-11-28 10:28:10.941159","","","","","","",""
3.0,0.07677682489156723,0.00036429715785050716,"train",14580.0,"2021-11-28 10:28:14.524909","","","","","","",""
3.0,0.07212396711111069,0.00036503652798107553,"train",14600.0,"2021-11-28 10:28:18.115859","","","","","","",""
3.0,0.09746641665697098,0.0003657766907244253,"train",14620.0,"2021-11-28 10:28:21.706566","","","","","","",""
3.0,0.13051161170005798,0.00036651764521137956,"train",14640.0,"2021-11-28 10:28:25.337803","","","","","","",""
3.0,0.08940631151199341,0.00036725939057183246,"train",14660.0,"2021-11-28 10:28:29.265151","","","","","","",""
3.0,0.15306329727172852,0.000368001925934749,"train",14680.0,"2021-11-28 10:28:32.811768","","","","","","",""
3.0,0.09458278119564056,0.0003687452504281658,"train",14700.0,"2021-11-28 10:28:36.402614","","","","","","",""
3.0,0.1143682524561882,0.0003694893631791937,"train",14720.0,"2021-11-28 10:28:40.070436","","","","","","",""
3.0,0.07478104531764984,0.0003702342633140178,"train",14740.0,"2021-11-28 10:28:43.720431","","","","","","",""
3.0,0.07906980067491531,0.00037097994995789817,"train",14760.0,"2021-11-28 10:28:47.600821","","","","","","",""
3.0,0.08915910869836807,0.0003717264222351717,"train",14780.0,"2021-11-28 10:28:51.232587","","","","","","",""
3.0,0.05786985531449318,0.0003724736792692523,"train",14800.0,"2021-11-28 10:28:54.883451","","","","","","",""
3.0,0.12832283973693848,0.00037322172018263247,"train",14820.0,"2021-11-28 10:28:58.528325","","","","","","",""
3.0,0.1215529665350914,0.00037397054409688425,"train",14840.0,"2021-11-28 10:29:02.246683","","","","","","",""
3.0,0.0526970811188221,0.0003747201501326607,"train",14860.0,"2021-11-28 10:29:05.890244","","","","","","",""
3.0,0.07961102575063705,0.0003754705374096948,"train",14880.0,"2021-11-28 10:29:09.787991","","","","","","",""
3.0,0.09100483357906342,0.0003762217050468045,"train",14900.0,"2021-11-28 10:29:13.422983","","","","","","",""
3.0,0.08654358237981796,0.000376973652161889,"train",14920.0,"2021-11-28 10:29:16.955506","","","","","","",""
3.0,0.10630050301551819,0.00037772637787193393,"train",14940.0,"2021-11-28 10:29:20.556263","","","","","","",""
3.0,0.10430154204368591,0.00037847988129301006,"train",14960.0,"2021-11-28 10:29:24.207498","","","","","","",""
3.0,0.04937757924199104,0.00037923416154027464,"train",14980.0,"2021-11-28 10:29:27.896054","","","","","","",""
3.0,0.07094670087099075,0.00037998921772797243,"train",15000.0,"2021-11-28 10:29:31.776386","","","","","","",""
3.0,0.11287140101194382,0.0003807450489694377,"train",15020.0,"2021-11-28 10:29:35.322443","","","","","","",""
3.0,0.08359523862600327,0.0003815016543770944,"train",15040.0,"2021-11-28 10:29:38.861560","","","","","","",""
3.0,0.07846017926931381,0.0003822590330624569,"train",15060.0,"2021-11-28 10:29:42.408021","","","","","","",""
3.0,0.0453396774828434,0.00038301718413613194,"train",15080.0,"2021-11-28 10:29:46.049289","","","","","","",""
3.0,0.09165368229150772,0.0003837761067078194,"train",15100.0,"2021-11-28 10:29:49.996126","","","","","","",""
3.0,0.06442192941904068,0.00038453579988631265,"train",15120.0,"2021-11-28 10:29:53.577591","","","","","","",""
3.0,0.11587002128362656,0.00038529626277950067,"train",15140.0,"2021-11-28 10:29:57.154862","","","","","","",""
3.0,0.11301078647375107,0.0003860574944943684,"train",15160.0,"2021-11-28 10:30:00.694571","","","","","","",""
3.0,0.05758189037442207,0.0003868194941369972,"train",15180.0,"2021-11-28 10:30:04.220114","","","","","","",""
3.0,0.0618542917072773,0.00038758226081256797,"train",15200.0,"2021-11-28 10:30:07.754889","","","","","","",""
3.0,0.08708569407463074,0.0003883457936253599,"train",15220.0,"2021-11-28 10:30:11.604034","","","","","","",""
3.0,0.08512658625841141,0.0003891100916787527,"train",15240.0,"2021-11-28 10:30:15.231675","","","","","","",""
3.0,0.1032041609287262,0.0003898751540752281,"train",15260.0,"2021-11-28 10:30:18.890841","","","","","","",""
3.0,0.05367671698331833,0.0003906409799163692,"train",15280.0,"2021-11-28 10:30:22.585196","","","","","","",""
3.0,0.06064458191394806,0.0003914075683028632,"train",15300.0,"2021-11-28 10:30:26.270928","","","","","","",""
3.0,0.05593511089682579,0.0003921749183345019,"train",15320.0,"2021-11-28 10:30:30.189397","","","","","","",""
3.0,0.11111334711313248,0.0003929430291101828,"train",15340.0,"2021-11-28 10:30:33.847411","","","","","","",""
3.0,0.0627686083316803,0.0003937118997279093,"train",15360.0,"2021-11-28 10:30:37.391285","","","","","","",""
3.0,0.12526835501194,0.0003944815292847932,"train",15380.0,"2021-11-28 10:30:40.923860","","","","","","",""
3.0,0.06596031039953232,0.00039525191687705464,"train",15400.0,"2021-11-28 10:30:44.462549","","","","","","",""
3.0,0.12486348301172256,0.00039602306160002447,"train",15420.0,"2021-11-28 10:30:47.990342","","","","","","",""
3.0,0.09946627169847488,0.0003967949625481432,"train",15440.0,"2021-11-28 10:30:51.814695","","","","","","",""
3.0,0.07559485733509064,0.0003975676188149645,"train",15460.0,"2021-11-28 10:30:55.402233","","","","","","",""
3.0,0.09468889236450195,0.00039834102949315377,"train",15480.0,"2021-11-28 10:30:59.023946","","","","","","",""
3.0,0.07804876565933228,0.0003991151936744918,"train",15500.0,"2021-11-28 10:31:02.571712","","","","","","",""
3.0,0.08684772998094559,0.0003998901104498738,"train",15520.0,"2021-11-28 10:31:06.103669","","","","","","",""
3.0,0.07082889974117279,0.0004006657789093109,"train",15540.0,"2021-11-28 10:31:09.918535","","","","","","",""
3.0,0.052894920110702515,0.0004014421981419329,"train",15560.0,"2021-11-28 10:31:13.465235","","","","","","",""
3.0,0.0832739993929863,0.00040221936723598586,"train",15580.0,"2021-11-28 10:31:17.045196","","","","","","",""
3.0,0.08622695505619049,0.00040299728527883765,"train",15600.0,"2021-11-28 10:31:20.710833","","","","","","",""
3.0,0.07717575877904892,0.00040377595135697485,"train",15620.0,"2021-11-28 10:31:24.360881","","","","","","",""
3.0,0.0751776397228241,0.00040455536455600606,"train",15640.0,"2021-11-28 10:31:27.982398","","","","","","",""
3.0,0.10479015856981277,0.0004053355239606632,"train",15660.0,"2021-11-28 10:31:31.978660","","","","","","",""
3.0,0.09514286369085312,0.00040611642865480066,"train",15680.0,"2021-11-28 10:31:35.666245","","","","","","",""
3.0,0.07478233426809311,0.00040689807772139913,"train",15700.0,"2021-11-28 10:31:39.369231","","","","","","",""
3.0,0.0786588191986084,0.0004076804702425642,"train",15720.0,"2021-11-28 10:31:43.020488","","","","","","",""
3.0,0.08234967291355133,0.00040846360529952857,"train",15740.0,"2021-11-28 10:31:46.564159","","","","","","",""
3.0,0.06088096648454666,0.00040924748197265293,"train",15760.0,"2021-11-28 10:31:50.445731","","","","","","",""
3.0,0.058773189783096313,0.0004100320993414275,"train",15780.0,"2021-11-28 10:31:54.131855","","","","","","",""
3.0,0.07742168754339218,0.00041081745648447235,"train",15800.0,"2021-11-28 10:31:57.816915","","","","","","",""
3.0,0.10267801582813263,0.00041160355247953843,"train",15820.0,"2021-11-28 10:32:01.505625","","","","","","",""
3.0,0.07982204854488373,0.0004123903864035102,"train",15840.0,"2021-11-28 10:32:05.178713","","","","","","",""
3.0,0.06404495239257812,0.00041317795733240435,"train",15860.0,"2021-11-28 10:32:08.850721","","","","","","",""
3.0,0.09213699400424957,0.0004139662643413732,"train",15880.0,"2021-11-28 10:32:12.810524","","","","","","",""
3.0,0.07995935529470444,0.0004147553065047037,"train",15900.0,"2021-11-28 10:32:16.485859","","","","","","",""
3.0,0.08583106845617294,0.00041554508289582,"train",15920.0,"2021-11-28 10:32:20.168701","","","","","","",""
3.0,0.06803573668003082,0.0004163355925872838,"train",15940.0,"2021-11-28 10:32:23.847200","","","","","","",""
3.0,0.11541710048913956,0.00041712683465079626,"train",15960.0,"2021-11-28 10:32:27.491290","","","","","","",""
3.0,0.05452795326709747,0.0004179188081571978,"train",15980.0,"2021-11-28 10:32:31.105123","","","","","","",""
3.0,0.06432711333036423,0.00041871151217647007,"train",16000.0,"2021-11-28 10:32:34.994570","","","","","","",""
3.0,0.11734285205602646,0.0004195049457777376,"train",16020.0,"2021-11-28 10:32:38.630700","","","","","","",""
3.0,0.133205384016037,0.0004202991080292668,"train",16040.0,"2021-11-28 10:32:42.276634","","","","","","",""
3.0,0.13322216272354126,0.0004210939979984699,"train",16060.0,"2021-11-28 10:32:45.961899","","","","","","",""
3.0,0.060922734439373016,0.0004218896147519032,"train",16080.0,"2021-11-28 10:32:49.658580","","","","","","",""
3.0,0.08256956189870834,0.0004226859573552709,"train",16100.0,"2021-11-28 10:32:53.663082","","","","","","",""
3.0,0.07575609534978867,0.00042348302487342374,"train",16120.0,"2021-11-28 10:32:57.439701","","","","","","",""
3.0,0.10717476159334183,0.00042428081637036147,"train",16140.0,"2021-11-28 10:33:01.048020","","","","","","",""
3.0,0.0670333206653595,0.0004250793309092341,"train",16160.0,"2021-11-28 10:33:04.629318","","","","","","",""
3.0,0.08844032883644104,0.0004258785675523421,"train",16180.0,"2021-11-28 10:33:08.220950","","","","","","",""
3.0,0.07757309824228287,0.00042667852536113784,"train",16200.0,"2021-11-28 10:33:11.771755","","","","","","",""
3.0,0.07156341522932053,0.00042747920339622773,"train",16220.0,"2021-11-28 10:33:15.695543","","","","","","",""
3.0,0.10893502831459045,0.0004282806007173713,"train",16240.0,"2021-11-28 10:33:19.371683","","","","","","",""
3.0,0.11140379309654236,0.0004290827163834841,"train",16260.0,"2021-11-28 10:33:23.029507","","","","","","",""
3.0,0.035721149295568466,0.00042988554945263776,"train",16280.0,"2021-11-28 10:33:26.702288","","","","","","",""
3.0,0.07154233753681183,0.00043068909898206185,"train",16300.0,"2021-11-28 10:33:30.388981","","","","","","",""
3.0,0.05659525841474533,0.00043149336402814424,"train",16320.0,"2021-11-28 10:33:34.239021","","","","","","",""
3.0,0.06742306053638458,0.0004322983436464323,"train",16340.0,"2021-11-28 10:33:37.858385","","","","","","",""
3.0,0.05275212973356247,0.0004331040368916357,"train",16360.0,"2021-11-28 10:33:41.493825","","","","","","",""
3.0,0.0889224112033844,0.0004339104428176242,"train",16380.0,"2021-11-28 10:33:45.096357","","","","","","",""
3.0,0.10607565939426422,0.0004347175604774321,"train",16400.0,"2021-11-28 10:33:48.673707","","","","","","",""
3.0,0.12722329795360565,0.00043552538892325664,"train",16420.0,"2021-11-28 10:33:52.269538","","","","","","",""
3.0,0.08663967996835709,0.00043633392720646147,"train",16440.0,"2021-11-28 10:33:56.145006","","","","","","",""
3.0,0.11792680621147156,0.0004371431743775765,"train",16460.0,"2021-11-28 10:33:59.744813","","","","","","",""
3.0,0.10097628086805344,0.0004379531294862987,"train",16480.0,"2021-11-28 10:34:03.355413","","","","","","",""
3.0,0.10453236848115921,0.00043876379158149393,"train",16500.0,"2021-11-28 10:34:06.947805","","","","","","",""
3.0,0.13223083317279816,0.00043957515971119803,"train",16520.0,"2021-11-28 10:34:10.505569","","","","","","",""
3.0,0.058575309813022614,0.0004403872329226176,"train",16540.0,"2021-11-28 10:34:14.425586","","","","","","",""
3.0,0.1334758996963501,0.00044120001026213065,"train",16560.0,"2021-11-28 10:34:18.040138","","","","","","",""
3.0,0.1184728667140007,0.0004420134907752902,"train",16580.0,"2021-11-28 10:34:21.669922","","","","","","",""
3.0,0.11740230768918991,0.00044282767350682086,"train",16600.0,"2021-11-28 10:34:25.312048","","","","","","",""
3.0,0.09683960676193237,0.00044364255750062504,"train",16620.0,"2021-11-28 10:34:28.935555","","","","","","",""
3.0,0.08773825317621231,0.00044445814179978026,"train",16640.0,"2021-11-28 10:34:32.552941","","","","","","",""
3.0,0.10434646159410477,0.000445274425446542,"train",16660.0,"2021-11-28 10:34:36.459889","","","","","","",""
3.0,0.08849704265594482,0.00044609140748234455,"train",16680.0,"2021-11-28 10:34:40.087180","","","","","","",""
3.0,0.08910305052995682,0.00044690908694780193,"train",16700.0,"2021-11-28 10:34:43.668849","","","","","","",""
3.0,0.12116269767284393,0.00044772746288270957,"train",16720.0,"2021-11-28 10:34:47.266754","","","","","","",""
3.0,0.14269818365573883,0.00044854653432604454,"train",16740.0,"2021-11-28 10:34:50.815974","","","","","","",""
3.0,0.130417138338089,0.0004493663003159677,"train",16760.0,"2021-11-28 10:34:54.716170","","","","","","",""
3.0,0.1096128523349762,0.00045018675988982315,"train",16780.0,"2021-11-28 10:34:58.275386","","","","","","",""
3.0,0.12560062110424042,0.0004510079120841426,"train",16800.0,"2021-11-28 10:35:01.876311","","","","","","",""
3.0,0.06093360111117363,0.0004518297559346423,"train",16820.0,"2021-11-28 10:35:05.497905","","","","","","",""
3.0,0.07068144530057907,0.0004526522904762275,"train",16840.0,"2021-11-28 10:35:09.071933","","","","","","",""
3.0,0.08513842523097992,0.0004534755147429918,"train",16860.0,"2021-11-28 10:35:12.619220","","","","","","",""
3.0,0.07398833334445953,0.0004542994277682191,"train",16880.0,"2021-11-28 10:35:16.471454","","","","","","",""
3.0,0.11268773674964905,0.00045512402858438454,"train",16900.0,"2021-11-28 10:35:20.091076","","","","","","",""
3.0,0.07013609260320663,0.0004559493162231555,"train",16920.0,"2021-11-28 10:35:23.638421","","","","","","",""
3.0,0.045383989810943604,0.00045677528971539293,"train",16940.0,"2021-11-28 10:35:27.173052","","","","","","",""
3.0,0.06707926839590073,0.000457601948091152,"train",16960.0,"2021-11-28 10:35:30.709549","","","","","","",""
3.0,0.07599332183599472,0.00045842929037968405,"train",16980.0,"2021-11-28 10:35:34.263815","","","","","","",""
3.0,0.08513768017292023,0.00045925731560943726,"train",17000.0,"2021-11-28 10:35:38.196869","","","","","","",""
3.0,0.0820709690451622,0.00046008602280805727,"train",17020.0,"2021-11-28 10:35:41.849836","","","","","","",""
3.0,0.07743974775075912,0.0004609154110023902,"train",17040.0,"2021-11-28 10:35:45.494175","","","","","","",""
3.0,0.08460584282875061,0.0004617454792184804,"train",17060.0,"2021-11-28 10:35:49.078047","","","","","","",""
3.0,0.12799996137619019,0.0004625762264815758,"train",17080.0,"2021-11-28 10:35:52.623858","","","","","","",""
3.0,0.07058534771203995,0.0004634076518161257,"train",17100.0,"2021-11-28 10:35:56.466569","","","","","","",""
3.0,0.05589580908417702,0.000464239754245783,"train",17120.0,"2021-11-28 10:36:00.098933","","","","","","",""
3.0,0.07416166365146637,0.0004650725327934068,"train",17140.0,"2021-11-28 10:36:03.693521","","","","","","",""
3.0,0.07440364360809326,0.0004659059864810602,"train",17160.0,"2021-11-28 10:36:07.237074","","","","","","",""
3.0,0.07809809595346451,0.0004667401143300155,"train",17180.0,"2021-11-28 10:36:10.814512","","","","","","",""
3.0,"","","val",17180.0,"2021-11-28 10:36:44.471007",0.4870114809231126,0.42036472854926477,0.8925089626214296,0.4830167922863388,0.32636884956090717,0.3281933519050754,0.21261690511738035
4.0,0.07826016843318939,0.00046757491536075237,"train",17200.0,"2021-11-28 10:36:51.312227","","","","","","",""
4.0,0.11334918439388275,0.0004684103885929595,"train",17220.0,"2021-11-28 10:36:55.145556","","","","","","",""
4.0,0.05876408517360687,0.00046924653304553695,"train",17240.0,"2021-11-28 10:36:59.019776","","","","","","",""
4.0,0.10528776049613953,0.00047008334773659694,"train",17260.0,"2021-11-28 10:37:02.629013","","","","","","",""
4.0,0.04549069702625275,0.0004709208316834631,"train",17280.0,"2021-11-28 10:37:06.510620","","","","","","",""
4.0,0.09339425712823868,0.0004717589839026747,"train",17300.0,"2021-11-28 10:37:10.343150","","","","","","",""
4.0,0.062107447534799576,0.0004725978034099854,"train",17320.0,"2021-11-28 10:37:14.241861","","","","","","",""
4.0,0.07726682722568512,0.0004734372892203659,"train",17340.0,"2021-11-28 10:37:17.853587","","","","","","",""
4.0,0.11635170131921768,0.00047427744034800367,"train",17360.0,"2021-11-28 10:37:21.787197","","","","","","",""
4.0,0.07892221212387085,0.00047511825580630524,"train",17380.0,"2021-11-28 10:37:25.703519","","","","","","",""
4.0,0.10010431706905365,0.0004759597346078973,"train",17400.0,"2021-11-28 10:37:29.249220","","","","","","",""
4.0,0.07448963075876236,0.00047680187576462705,"train",17420.0,"2021-11-28 10:37:33.075291","","","","","","",""
4.0,0.088448166847229,0.00047764467828756473,"train",17440.0,"2021-11-28 10:37:36.976602","","","","","","",""
4.0,0.06800351291894913,0.00047848814118700285,"train",17460.0,"2021-11-28 10:37:40.986250","","","","","","",""
4.0,0.06424007564783096,0.00047933226347245876,"train",17480.0,"2021-11-28 10:37:44.630239","","","","","","",""
4.0,0.06842920929193497,0.00048017704415267634,"train",17500.0,"2021-11-28 10:37:48.475768","","","","","","",""
4.0,0.12210041284561157,0.00048102248223562535,"train",17520.0,"2021-11-28 10:37:52.353069","","","","","","",""
4.0,0.08007042855024338,0.000481868576728504,"train",17540.0,"2021-11-28 10:37:56.293585","","","","","","",""
4.0,0.07978851348161697,0.00048271532663773887,"train",17560.0,"2021-11-28 10:37:59.982916","","","","","","",""
4.0,0.11284933984279633,0.00048356273096898856,"train",17580.0,"2021-11-28 10:38:03.943488","","","","","","",""
4.0,0.09050022810697556,0.00048441078872714155,"train",17600.0,"2021-11-28 10:38:07.893195","","","","","","",""
4.0,0.05452761426568031,0.00048525949891631997,"train",17620.0,"2021-11-28 10:38:11.789005","","","","","","",""
4.0,0.08001243323087692,0.0004861088605398792,"train",17640.0,"2021-11-28 10:38:15.361196","","","","","","",""
4.0,0.08394254744052887,0.0004869588726004099,"train",17660.0,"2021-11-28 10:38:19.225813","","","","","","",""
4.0,0.09394559264183044,0.0004878095340997391,"train",17680.0,"2021-11-28 10:38:23.129901","","","","","","",""
4.0,0.09796712547540665,0.0004886608440389307,"train",17700.0,"2021-11-28 10:38:27.043488","","","","","","",""
4.0,0.07202650606632233,0.0004895128014182875,"train",17720.0,"2021-11-28 10:38:30.668284","","","","","","",""
4.0,0.13430464267730713,0.0004903654052373523,"train",17740.0,"2021-11-28 10:38:34.576696","","","","","","",""
4.0,0.07948767393827438,0.0004912186544949082,"train",17760.0,"2021-11-28 10:38:38.487918","","","","","","",""
4.0,0.0797276720404625,0.0004920725481889804,"train",17780.0,"2021-11-28 10:38:42.387479","","","","","","",""
4.0,0.07172122597694397,0.0004929270853168378,"train",17800.0,"2021-11-28 10:38:45.923107","","","","","","",""
4.0,0.10872573405504227,0.0004937822648749932,"train",17820.0,"2021-11-28 10:38:49.755468","","","","","","",""
4.0,0.09462831914424896,0.0004946380858592051,"train",17840.0,"2021-11-28 10:38:53.627558","","","","","","",""
4.0,0.09705262631177902,0.0004954945472644794,"train",17860.0,"2021-11-28 10:38:57.499303","","","","","","",""
4.0,0.07519936561584473,0.000496351648085069,"train",17880.0,"2021-11-28 10:39:01.029459","","","","","","",""
4.0,0.10242810100317001,0.0004972093873144767,"train",17900.0,"2021-11-28 10:39:04.885437","","","","","","",""
4.0,0.08623915910720825,0.0004980677639454549,"train",17920.0,"2021-11-28 10:39:08.772356","","","","","","",""
4.0,0.10098125040531158,0.0004989267769700083,"train",17940.0,"2021-11-28 10:39:12.370043","","","","","","",""
4.0,0.07986617088317871,0.0004997864253793935,"train",17960.0,"2021-11-28 10:39:16.316567","","","","","","",""
4.0,0.09511501342058182,0.0005006467081641215,"train",17980.0,"2021-11-28 10:39:20.278779","","","","","","",""
4.0,0.10388000309467316,0.0005015076243139584,"train",18000.0,"2021-11-28 10:39:24.164443","","","","","","",""
4.0,0.08282795548439026,0.0005023691728179255,"train",18020.0,"2021-11-28 10:39:27.802400","","","","","","",""
4.0,0.07571233063936234,0.0005032313526643032,"train",18040.0,"2021-11-28 10:39:31.808644","","","","","","",""
4.0,0.0992661863565445,0.0005040941628406295,"train",18060.0,"2021-11-28 10:39:35.636537","","","","","","",""
4.0,0.07991869002580643,0.0005049576023337021,"train",18080.0,"2021-11-28 10:39:39.450321","","","","","","",""
4.0,0.09496685862541199,0.0005058216701295801,"train",18100.0,"2021-11-28 10:39:43.070093","","","","","","",""
4.0,0.11013354361057281,0.0005066863652135845,"train",18120.0,"2021-11-28 10:39:47.004392","","","","","","",""
4.0,0.06532781571149826,0.0005075516865702999,"train",18140.0,"2021-11-28 10:39:50.871069","","","","","","",""
4.0,0.07990004122257233,0.0005084176331835754,"train",18160.0,"2021-11-28 10:39:54.818499","","","","","","",""
4.0,0.04728875309228897,0.0005092842040365256,"train",18180.0,"2021-11-28 10:39:58.485905","","","","","","",""
4.0,0.08056393265724182,0.0005101513981115326,"train",18200.0,"2021-11-28 10:40:02.370253","","","","","","",""
4.0,0.0841943547129631,0.0005110192143902459,"train",18220.0,"2021-11-28 10:40:06.243422","","","","","","",""
4.0,0.08436466753482819,0.0005118876518535849,"train",18240.0,"2021-11-28 10:40:10.141619","","","","","","",""
4.0,0.08097674697637558,0.0005127567094817399,"train",18260.0,"2021-11-28 10:40:13.750359","","","","","","",""
4.0,0.13409139215946198,0.0005136263862541718,"train",18280.0,"2021-11-28 10:40:17.777852","","","","","","",""
4.0,0.08528409153223038,0.0005144966811496151,"train",18300.0,"2021-11-28 10:40:21.660314","","","","","","",""
4.0,0.05138930678367615,0.0005153675931460788,"train",18320.0,"2021-11-28 10:40:25.505294","","","","","","",""
4.0,0.08488446474075317,0.0005162391212208467,"train",18340.0,"2021-11-28 10:40:29.065842","","","","","","",""
4.0,0.09577377140522003,0.0005171112643504792,"train",18360.0,"2021-11-28 10:40:32.981534","","","","","","",""
4.0,0.10554075986146927,0.0005179840215108144,"train",18380.0,"2021-11-28 10:40:36.927356","","","","","","",""
4.0,0.11288508772850037,0.0005188573916769697,"train",18400.0,"2021-11-28 10:40:40.824658","","","","","","",""
4.0,0.05778460204601288,0.0005197313738233421,"train",18420.0,"2021-11-28 10:40:44.465966","","","","","","",""
4.0,0.09256169945001602,0.000520605966923611,"train",18440.0,"2021-11-28 10:40:48.401593","","","","","","",""
4.0,0.07365944981575012,0.0005214811699507367,"train",18460.0,"2021-11-28 10:40:52.351160","","","","","","",""
4.0,0.06741901487112045,0.0005223569818769648,"train",18480.0,"2021-11-28 10:40:56.018218","","","","","","",""
4.0,0.07293715327978134,0.0005232334016738247,"train",18500.0,"2021-11-28 10:41:00.075842","","","","","","",""
4.0,0.0563434399664402,0.0005241104283121329,"train",18520.0,"2021-11-28 10:41:03.941436","","","","","","",""
4.0,0.10035533457994461,0.0005249880607619928,"train",18540.0,"2021-11-28 10:41:07.779053","","","","","","",""
4.0,0.07652294635772705,0.0005258662979927963,"train",18560.0,"2021-11-28 10:41:11.333851","","","","","","",""
4.0,0.09614434838294983,0.0005267451389732256,"train",18580.0,"2021-11-28 10:41:15.260500","","","","","","",""
4.0,0.10231933742761612,0.0005276245826712532,"train",18600.0,"2021-11-28 10:41:19.189073","","","","","","",""
4.0,0.07647682726383209,0.0005285046280541449,"train",18620.0,"2021-11-28 10:41:23.117177","","","","","","",""
4.0,0.12799784541130066,0.0005293852740884584,"train",18640.0,"2021-11-28 10:41:26.802482","","","","","","",""
4.0,0.073816679418087,0.0005302665197400478,"train",18660.0,"2021-11-28 10:41:30.680909","","","","","","",""
4.0,0.08924506604671478,0.0005311483639740616,"train",18680.0,"2021-11-28 10:41:34.528812","","","","","","",""
4.0,0.06222456321120262,0.0005320308057549458,"train",18700.0,"2021-11-28 10:41:38.521953","","","","","","",""
4.0,0.0867672860622406,0.0005329138440464455,"train",18720.0,"2021-11-28 10:41:42.236095","","","","","","",""
4.0,0.08377102017402649,0.0005337974778116042,"train",18740.0,"2021-11-28 10:41:46.124121","","","","","","",""
4.0,0.05216486379504204,0.0005346817060127664,"train",18760.0,"2021-11-28 10:41:49.952021","","","","","","",""
4.0,0.07138414680957794,0.0005355665276115798,"train",18780.0,"2021-11-28 10:41:53.871708","","","","","","",""
4.0,0.07203471660614014,0.0005364519415689932,"train",18800.0,"2021-11-28 10:41:57.517776","","","","","","",""
4.0,0.1470070630311966,0.0005373379468452614,"train",18820.0,"2021-11-28 10:42:01.419841","","","","","","",""
4.0,0.08402635902166367,0.0005382245423999437,"train",18840.0,"2021-11-28 10:42:05.276488","","","","","","",""
4.0,0.07066459208726883,0.0005391117271919073,"train",18860.0,"2021-11-28 10:42:09.190266","","","","","","",""
4.0,0.05342342332005501,0.0005399995001793268,"train",18880.0,"2021-11-28 10:42:12.766075","","","","","","",""
4.0,0.07076632976531982,0.0005408878603196858,"train",18900.0,"2021-11-28 10:42:16.627878","","","","","","",""
4.0,0.12944157421588898,0.0005417768065697792,"train",18920.0,"2021-11-28 10:42:20.484957","","","","","","",""
4.0,0.06749102473258972,0.0005426663378857136,"train",18940.0,"2021-11-28 10:42:24.386834","","","","","","",""
4.0,0.07418413460254669,0.0005435564532229071,"train",18960.0,"2021-11-28 10:42:28.038292","","","","","","",""
4.0,0.049489814788103104,0.0005444471515360942,"train",18980.0,"2021-11-28 10:42:31.898576","","","","","","",""
4.0,0.07061844319105148,0.0005453384317793228,"train",19000.0,"2021-11-28 10:42:35.769030","","","","","","",""
4.0,0.1008993461728096,0.000546230292905959,"train",19020.0,"2021-11-28 10:42:39.353131","","","","","","",""
4.0,0.09058398753404617,0.0005471227338686858,"train",19040.0,"2021-11-28 10:42:43.183587","","","","","","",""
4.0,0.06997279822826385,0.0005480157536195053,"train",19060.0,"2021-11-28 10:42:47.031185","","","","","","",""
4.0,0.08950883150100708,0.0005489093511097407,"train",19080.0,"2021-11-28 10:42:50.935082","","","","","","",""
4.0,0.06931674480438232,0.0005498035252900358,"train",19100.0,"2021-11-28 10:42:54.536214","","","","","","",""
4.0,0.07073672860860825,0.0005506982751103577,"train",19120.0,"2021-11-28 10:42:58.380628","","","","","","",""
4.0,0.09028524905443192,0.0005515935995199983,"train",19140.0,"2021-11-28 10:43:02.384245","","","","","","",""
4.0,0.054121777415275574,0.000552489497467573,"train",19160.0,"2021-11-28 10:43:06.367706","","","","","","",""
4.0,0.05226004496216774,0.0005533859679010249,"train",19180.0,"2021-11-28 10:43:10.011499","","","","","","",""
4.0,0.12354205548763275,0.0005542830097676247,"train",19200.0,"2021-11-28 10:43:13.866367","","","","","","",""
4.0,0.049760911613702774,0.0005551806220139717,"train",19220.0,"2021-11-28 10:43:17.696104","","","","","","",""
4.0,0.049193717539310455,0.0005560788035859957,"train",19240.0,"2021-11-28 10:43:21.512738","","","","","","",""
4.0,0.06857378780841827,0.0005569775534289578,"train",19260.0,"2021-11-28 10:43:25.059479","","","","","","",""
4.0,0.10316117107868195,0.000557876870487452,"train",19280.0,"2021-11-28 10:43:28.943595","","","","","","",""
4.0,0.05709543824195862,0.000558776753705406,"train",19300.0,"2021-11-28 10:43:32.829481","","","","","","",""
4.0,0.08023221790790558,0.0005596772020260825,"train",19320.0,"2021-11-28 10:43:36.691087","","","","","","",""
4.0,0.07522647082805634,0.0005605782143920809,"train",19340.0,"2021-11-28 10:43:40.255642","","","","","","",""
4.0,0.07818042486906052,0.0005614797897453383,"train",19360.0,"2021-11-28 10:43:44.129739","","","","","","",""
4.0,0.07519079744815826,0.00056238192702713,"train",19380.0,"2021-11-28 10:43:48.029276","","","","","","",""
4.0,0.09012702852487564,0.0005632846251780726,"train",19400.0,"2021-11-28 10:43:51.922274","","","","","","",""
4.0,0.07409917563199997,0.0005641878831381232,"train",19420.0,"2021-11-28 10:43:55.583963","","","","","","",""
4.0,0.0777374804019928,0.0005650916998465817,"train",19440.0,"2021-11-28 10:43:59.509827","","","","","","",""
4.0,0.07647158950567245,0.0005659960742420919,"train",19460.0,"2021-11-28 10:44:03.383842","","","","","","",""
4.0,0.04781653359532356,0.0005669010052626424,"train",19480.0,"2021-11-28 10:44:07.208117","","","","","","",""
4.0,0.07848116010427475,0.0005678064918455687,"train",19500.0,"2021-11-28 10:44:10.836392","","","","","","",""
4.0,0.12128891795873642,0.000568712532927554,"train",19520.0,"2021-11-28 10:44:14.678226","","","","","","",""
4.0,0.05168857052922249,0.0005696191274446294,"train",19540.0,"2021-11-28 10:44:18.492363","","","","","","",""
4.0,0.1093047708272934,0.000570526274332177,"train",19560.0,"2021-11-28 10:44:22.059628","","","","","","",""
4.0,0.06763338297605515,0.00057143397252493,"train",19580.0,"2021-11-28 10:44:25.909232","","","","","","",""
4.0,0.10351289808750153,0.0005723422209569738,"train",19600.0,"2021-11-28 10:44:29.856150","","","","","","",""
4.0,0.07152307033538818,0.0005732510185617484,"train",19620.0,"2021-11-28 10:44:33.854131","","","","","","",""
4.0,0.11280570179224014,0.0005741603642720481,"train",19640.0,"2021-11-28 10:44:37.527913","","","","","","",""
4.0,0.0629839301109314,0.0005750702570200242,"train",19660.0,"2021-11-28 10:44:41.464275","","","","","","",""
4.0,0.10513618588447571,0.0005759806957371853,"train",19680.0,"2021-11-28 10:44:45.400751","","","","","","",""
4.0,0.10016348212957382,0.0005768916793543991,"train",19700.0,"2021-11-28 10:44:49.260612","","","","","","",""
4.0,0.1068006306886673,0.0005778032068018929,"train",19720.0,"2021-11-28 10:44:52.801683","","","","","","",""
4.0,0.08182302117347717,0.0005787152770092561,"train",19740.0,"2021-11-28 10:44:56.677076","","","","","","",""
4.0,0.06822069734334946,0.00057962788890544,"train",19760.0,"2021-11-28 10:45:00.489319","","","","","","",""
4.0,0.0717596560716629,0.0005805410414187605,"train",19780.0,"2021-11-28 10:45:04.317431","","","","","","",""
4.0,0.0722913071513176,0.000581454733476898,"train",19800.0,"2021-11-28 10:45:07.863706","","","","","","",""
4.0,0.11170961707830429,0.0005823689640068999,"train",19820.0,"2021-11-28 10:45:11.707596","","","","","","",""
4.0,0.07562366873025894,0.0005832837319351808,"train",19840.0,"2021-11-28 10:45:15.590772","","","","","","",""
4.0,0.08256202191114426,0.0005841990361875246,"train",19860.0,"2021-11-28 10:45:19.481109","","","","","","",""
4.0,0.07761497795581818,0.0005851148756890849,"train",19880.0,"2021-11-28 10:45:23.119302","","","","","","",""
4.0,0.12123764306306839,0.0005860312493643875,"train",19900.0,"2021-11-28 10:45:27.099327","","","","","","",""
4.0,0.10166194289922714,0.00058694815613733,"train",19920.0,"2021-11-28 10:45:31.062779","","","","","","",""
4.0,0.06603322923183441,0.0005878655949311847,"train",19940.0,"2021-11-28 10:45:35.023483","","","","","","",""
4.0,0.09404269605875015,0.000588783564668599,"train",19960.0,"2021-11-28 10:45:38.706848","","","","","","",""
4.0,0.10013283789157867,0.0005897020642715968,"train",19980.0,"2021-11-28 10:45:42.670843","","","","","","",""
4.0,0.051383260637521744,0.0005906210926615793,"train",20000.0,"2021-11-28 10:45:46.619895","","","","","","",""
4.0,0.0576728917658329,0.0005915406487593273,"train",20020.0,"2021-11-28 10:45:50.606506","","","","","","",""
4.0,0.11045736819505692,0.0005924607314850016,"train",20040.0,"2021-11-28 10:45:54.283447","","","","","","",""
4.0,0.08645357936620712,0.0005933813397581453,"train",20060.0,"2021-11-28 10:45:58.337657","","","","","","",""
4.0,0.10806335508823395,0.0005943024724976832,"train",20080.0,"2021-11-28 10:46:02.244541","","","","","","",""
4.0,0.10263978689908981,0.0005952241286219251,"train",20100.0,"2021-11-28 10:46:05.925950","","","","","","",""
4.0,0.06854288280010223,0.0005961463070485657,"train",20120.0,"2021-11-28 10:46:09.823434","","","","","","",""
4.0,0.08905581384897232,0.0005970690066946867,"train",20140.0,"2021-11-28 10:46:13.678688","","","","","","",""
4.0,0.08374038338661194,0.0005979922264767572,"train",20160.0,"2021-11-28 10:46:17.575707","","","","","","",""
4.0,0.08523090183734894,0.0005989159653106361,"train",20180.0,"2021-11-28 10:46:21.125875","","","","","","",""
4.0,0.0750785693526268,0.0005998402221115728,"train",20200.0,"2021-11-28 10:46:25.060092","","","","","","",""
4.0,0.04455947130918503,0.0006007649957942077,"train",20220.0,"2021-11-28 10:46:28.909827","","","","","","",""
4.0,0.09170443564653397,0.0006016902852725751,"train",20240.0,"2021-11-28 10:46:32.803428","","","","","","",""
4.0,0.07783838361501694,0.0006026160894601032,"train",20260.0,"2021-11-28 10:46:36.364655","","","","","","",""
4.0,0.06387558579444885,0.0006035424072696155,"train",20280.0,"2021-11-28 10:46:40.187146","","","","","","",""
4.0,0.05033049359917641,0.0006044692376133329,"train",20300.0,"2021-11-28 10:46:44.056351","","","","","","",""
4.0,0.06128275766968727,0.0006053965794028742,"train",20320.0,"2021-11-28 10:46:47.901324","","","","","","",""
4.0,0.06450563669204712,0.0006063244315492569,"train",20340.0,"2021-11-28 10:46:51.475427","","","","","","",""
4.0,0.0649276003241539,0.0006072527929629008,"train",20360.0,"2021-11-28 10:46:55.376387","","","","","","",""
4.0,0.08383263647556305,0.0006081816625536263,"train",20380.0,"2021-11-28 10:46:59.321186","","","","","","",""
4.0,0.06769977509975433,0.0006091110392306576,"train",20400.0,"2021-11-28 10:47:03.237872","","","","","","",""
4.0,0.0988323837518692,0.0006100409219026231,"train",20420.0,"2021-11-28 10:47:06.874947","","","","","","",""
4.0,0.07031474262475967,0.0006109713094775572,"train",20440.0,"2021-11-28 10:47:10.757079","","","","","","",""
4.0,0.08935020864009857,0.0006119022008629015,"train",20460.0,"2021-11-28 10:47:14.625506","","","","","","",""
4.0,0.09773346781730652,0.0006128335949655058,"train",20480.0,"2021-11-28 10:47:18.512584","","","","","","",""
4.0,0.13229095935821533,0.0006137654906916297,"train",20500.0,"2021-11-28 10:47:22.179382","","","","","","",""
4.0,0.09820780903100967,0.0006146978869469436,"train",20520.0,"2021-11-28 10:47:26.072409","","","","","","",""
4.0,0.06359037756919861,0.0006156307826365305,"train",20540.0,"2021-11-28 10:47:30.042556","","","","","","",""
4.0,0.10148083418607712,0.0006165641766648858,"train",20560.0,"2021-11-28 10:47:34.010600","","","","","","",""
4.0,0.06677612662315369,0.0006174980679359214,"train",20580.0,"2021-11-28 10:47:37.701052","","","","","","",""
4.0,0.09208795428276062,0.0006184324553529638,"train",20600.0,"2021-11-28 10:47:41.663536","","","","","","",""
4.0,0.07330657541751862,0.0006193673378187578,"train",20620.0,"2021-11-28 10:47:45.589404","","","","","","",""
4.0,0.07745107263326645,0.0006203027142354662,"train",20640.0,"2021-11-28 10:47:49.268919","","","","","","",""
4.0,0.10473088175058365,0.0006212385835046726,"train",20660.0,"2021-11-28 10:47:53.153454","","","","","","",""
4.0,0.05451574549078941,0.0006221749445273806,"train",20680.0,"2021-11-28 10:47:56.991064","","","","","","",""
4.0,0.08337046205997467,0.0006231117962040176,"train",20700.0,"2021-11-28 10:48:00.826581","","","","","","",""
4.0,0.1097024455666542,0.0006240491374344341,"train",20720.0,"2021-11-28 10:48:04.370793","","","","","","",""
4.0,0.0647352933883667,0.0006249869671179058,"train",20740.0,"2021-11-28 10:48:08.200361","","","","","","",""
4.0,0.11078999936580658,0.0006259252841531351,"train",20760.0,"2021-11-28 10:48:12.106913","","","","","","",""
4.0,0.07662515342235565,0.0006268640874382517,"train",20780.0,"2021-11-28 10:48:15.966386","","","","","","",""
4.0,0.048201873898506165,0.0006278033758708144,"train",20800.0,"2021-11-28 10:48:19.506353","","","","","","",""
4.0,0.11410686373710632,0.0006287431483478127,"train",20820.0,"2021-11-28 10:48:23.342215","","","","","","",""
4.0,0.07376231998205185,0.000629683403765667,"train",20840.0,"2021-11-28 10:48:27.181559","","","","","","",""
4.0,0.05671585723757744,0.0006306241410202311,"train",20860.0,"2021-11-28 10:48:31.059778","","","","","","",""
4.0,0.04816323146224022,0.000631565359006793,"train",20880.0,"2021-11-28 10:48:34.609305","","","","","","",""
4.0,0.08311695605516434,0.0006325070566200756,"train",20900.0,"2021-11-28 10:48:38.446013","","","","","","",""
4.0,0.06192618981003761,0.0006334492327542392,"train",20920.0,"2021-11-28 10:48:42.322768","","","","","","",""
4.0,0.08118084073066711,0.0006343918863028818,"train",20940.0,"2021-11-28 10:48:46.218187","","","","","","",""
4.0,0.05878663808107376,0.000635335016159041,"train",20960.0,"2021-11-28 10:48:49.866238","","","","","","",""
4.0,0.09406613558530807,0.0006362786212151951,"train",20980.0,"2021-11-28 10:48:53.904461","","","","","","",""
4.0,0.10231170803308487,0.0006372227003632639,"train",21000.0,"2021-11-28 10:48:57.899357","","","","","","",""
4.0,0.07063579559326172,0.0006381672524946114,"train",21020.0,"2021-11-28 10:49:01.847068","","","","","","",""
4.0,0.0897238552570343,0.0006391122765000451,"train",21040.0,"2021-11-28 10:49:05.511772","","","","","","",""
4.0,0.09453132003545761,0.0006400577712698189,"train",21060.0,"2021-11-28 10:49:09.424144","","","","","","",""
4.0,0.050393566489219666,0.0006410037356936341,"train",21080.0,"2021-11-28 10:49:13.371715","","","","","","",""
4.0,0.08511552214622498,0.0006419501686606396,"train",21100.0,"2021-11-28 10:49:17.252796","","","","","","",""
4.0,0.06387503445148468,0.0006428970690594356,"train",21120.0,"2021-11-28 10:49:20.865656","","","","","","",""
4.0,0.0721253901720047,0.000643844435778072,"train",21140.0,"2021-11-28 10:49:24.776133","","","","","","",""
4.0,0.08682198077440262,0.0006447922677040516,"train",21160.0,"2021-11-28 10:49:28.635880","","","","","","",""
4.0,0.08879012614488602,0.000645740563724331,"train",21180.0,"2021-11-28 10:49:32.303226","","","","","","",""
4.0,0.09019503742456436,0.0006466893227253217,"train",21200.0,"2021-11-28 10:49:36.237288","","","","","","",""
4.0,0.0692787691950798,0.0006476385435928915,"train",21220.0,"2021-11-28 10:49:40.177800","","","","","","",""
4.0,0.07041551172733307,0.000648588225212366,"train",21240.0,"2021-11-28 10:49:44.159650","","","","","","",""
4.0,0.11042987555265427,0.0006495383664685292,"train",21260.0,"2021-11-28 10:49:47.835470","","","","","","",""
4.0,0.06435830146074295,0.0006504889662456263,"train",21280.0,"2021-11-28 10:49:51.791525","","","","","","",""
4.0,0.07821657508611679,0.0006514400234273632,"train",21300.0,"2021-11-28 10:49:55.737017","","","","","","",""
4.0,0.12028105556964874,0.0006523915368969091,"train",21320.0,"2021-11-28 10:49:59.630356","","","","","","",""
