"epoch","loss","lr","part","step","time","accuracy","auprc","auroc","challenge_metric","f_beta_measure","f_measure","g_beta_measure"
0.0,0.45136022567749023,8.000126768041159e-05,"train",20.0,"2021-11-28 20:22:11.238459","","","","","","",""
0.0,0.259485125541687,8.000507071829858e-05,"train",40.0,"2021-11-28 20:22:14.894915","","","","","","",""
0.0,0.13349829614162445,8.001140910361693e-05,"train",60.0,"2021-11-28 20:22:18.520926","","","","","","",""
0.0,0.15487441420555115,8.002028281962697e-05,"train",80.0,"2021-11-28 20:22:22.166569","","","","","","",""
0.0,0.11553586274385452,8.003169184289324e-05,"train",100.0,"2021-11-28 20:22:25.801837","","","","","","",""
0.0,0.17342917621135712,8.004563614328491e-05,"train",120.0,"2021-11-28 20:22:29.824438","","","","","","",""
0.0,0.16419893503189087,8.006211568397422e-05,"train",140.0,"2021-11-28 20:22:33.352048","","","","","","",""
0.0,0.13508036732673645,8.008113042143957e-05,"train",160.0,"2021-11-28 20:22:36.884808","","","","","","",""
0.0,0.14709189534187317,8.010268030546244e-05,"train",180.0,"2021-11-28 20:22:40.462690","","","","","","",""
0.0,0.1262085884809494,8.012676527913002e-05,"train",200.0,"2021-11-28 20:22:44.417487","","","","","","",""
0.0,0.12608736753463745,8.015338527883327e-05,"train",220.0,"2021-11-28 20:22:47.944353","","","","","","",""
0.0,0.12145198881626129,8.018254023426925e-05,"train",240.0,"2021-11-28 20:22:51.470612","","","","","","",""
0.0,0.12175334990024567,8.021423006843945e-05,"train",260.0,"2021-11-28 20:22:55.017226","","","","","","",""
0.0,0.1369299739599228,8.024845469765127e-05,"train",280.0,"2021-11-28 20:22:59.039829","","","","","","",""
0.0,0.13051089644432068,8.028521403151715e-05,"train",300.0,"2021-11-28 20:23:02.589764","","","","","","",""
0.0,0.13794852793216705,8.032450797295547e-05,"train",320.0,"2021-11-28 20:23:06.118256","","","","","","",""
0.0,0.12052801251411438,8.03663364181916e-05,"train",340.0,"2021-11-28 20:23:09.646592","","","","","","",""
0.0,0.13175959885120392,8.041069925675617e-05,"train",360.0,"2021-11-28 20:23:13.198131","","","","","","",""
0.0,0.13195441663265228,8.045759637148662e-05,"train",380.0,"2021-11-28 20:23:17.187287","","","","","","",""
0.0,0.153886079788208,8.050702763852781e-05,"train",400.0,"2021-11-28 20:23:20.739436","","","","","","",""
0.0,0.15876850485801697,8.055899292733204e-05,"train",420.0,"2021-11-28 20:23:24.319118","","","","","","",""
0.0,0.1482236236333847,8.061349210065861e-05,"train",440.0,"2021-11-28 20:23:27.854552","","","","","","",""
0.0,0.14069785177707672,8.067052501457513e-05,"train",460.0,"2021-11-28 20:23:31.798886","","","","","","",""
0.0,0.14114588499069214,8.073009151845774e-05,"train",480.0,"2021-11-28 20:23:35.438273","","","","","","",""
0.0,0.14407652616500854,8.07921914549915e-05,"train",500.0,"2021-11-28 20:23:39.078190","","","","","","",""
0.0,0.14181719720363617,8.085682466017004e-05,"train",520.0,"2021-11-28 20:23:42.734648","","","","","","",""
0.0,0.13910475373268127,8.092399096329699e-05,"train",540.0,"2021-11-28 20:23:46.707377","","","","","","",""
0.0,0.15115304291248322,8.099369018698646e-05,"train",560.0,"2021-11-28 20:23:50.311484","","","","","","",""
0.0,0.11886439472436905,8.10659221471624e-05,"train",580.0,"2021-11-28 20:23:53.968358","","","","","","",""
0.0,0.13763029873371124,8.114068665306053e-05,"train",600.0,"2021-11-28 20:23:57.571267","","","","","","",""
0.0,0.16323772072792053,8.121798350722723e-05,"train",620.0,"2021-11-28 20:24:01.104148","","","","","","",""
0.0,0.13997066020965576,8.129781250552134e-05,"train",640.0,"2021-11-28 20:24:05.125935","","","","","","",""
0.0,0.12770013511180878,8.138017343711518e-05,"train",660.0,"2021-11-28 20:24:08.761482","","","","","","",""
0.0,0.16122059524059296,8.146506608449288e-05,"train",680.0,"2021-11-28 20:24:12.398589","","","","","","",""
0.0,0.12477389723062515,8.155249022345312e-05,"train",700.0,"2021-11-28 20:24:16.030564","","","","","","",""
0.0,0.14831766486167908,8.164244562310834e-05,"train",720.0,"2021-11-28 20:24:20.057630","","","","","","",""
0.0,0.16072554886341095,8.173493204588662e-05,"train",740.0,"2021-11-28 20:24:23.657471","","","","","","",""
0.0,0.13815581798553467,8.182994924753112e-05,"train",760.0,"2021-11-28 20:24:27.216123","","","","","","",""
0.0,0.14096017181873322,8.192749697710127e-05,"train",780.0,"2021-11-28 20:24:30.757458","","","","","","",""
0.0,0.15394024550914764,8.202757497697351e-05,"train",800.0,"2021-11-28 20:24:34.738330","","","","","","",""
0.0,0.1562289297580719,8.213018298284169e-05,"train",820.0,"2021-11-28 20:24:38.353534","","","","","","",""
0.0,0.17850501835346222,8.223532072371815e-05,"train",840.0,"2021-11-28 20:24:41.956051","","","","","","",""
0.0,0.10986316204071045,8.234298792193372e-05,"train",860.0,"2021-11-28 20:24:45.602794","","","","","","",""
0.0,0.15990935266017914,8.245318429313925e-05,"train",880.0,"2021-11-28 20:24:49.205604","","","","","","",""
0.0,0.15355946123600006,8.256590954630648e-05,"train",900.0,"2021-11-28 20:24:53.217393","","","","","","",""
0.0,0.11489007622003555,8.268116338372737e-05,"train",920.0,"2021-11-28 20:24:56.810331","","","","","","",""
0.0,0.10631036013364792,8.279894550101692e-05,"train",940.0,"2021-11-28 20:25:00.426404","","","","","","",""
0.0,0.13984240591526031,8.291925558711211e-05,"train",960.0,"2021-11-28 20:25:04.024568","","","","","","",""
0.0,0.10308351367712021,8.304209332427406e-05,"train",980.0,"2021-11-28 20:25:07.971860","","","","","","",""
0.0,0.13327838480472565,8.316745838808821e-05,"train",1000.0,"2021-11-28 20:25:11.530111","","","","","","",""
0.0,0.09191597998142242,8.329535044746526e-05,"train",1020.0,"2021-11-28 20:25:15.087557","","","","","","",""
0.0,0.12207388132810593,8.342576916464195e-05,"train",1040.0,"2021-11-28 20:25:18.624324","","","","","","",""
0.0,0.108479343354702,8.355871419518288e-05,"train",1060.0,"2021-11-28 20:25:22.641844","","","","","","",""
0.0,0.11098809540271759,8.369418518797958e-05,"train",1080.0,"2021-11-28 20:25:26.273199","","","","","","",""
0.0,0.11197838932275772,8.383218178525335e-05,"train",1100.0,"2021-11-28 20:25:29.904999","","","","","","",""
0.0,0.09903054684400558,8.397270362255484e-05,"train",1120.0,"2021-11-28 20:25:33.551363","","","","","","",""
0.0,0.1089959517121315,8.411575032876619e-05,"train",1140.0,"2021-11-28 20:25:37.115949","","","","","","",""
0.0,0.12386705726385117,8.42613215261002e-05,"train",1160.0,"2021-11-28 20:25:41.042510","","","","","","",""
0.0,0.14785277843475342,8.440941683010377e-05,"train",1180.0,"2021-11-28 20:25:44.580667","","","","","","",""
0.0,0.07650069892406464,8.456003584965703e-05,"train",1200.0,"2021-11-28 20:25:48.130334","","","","","","",""
0.0,0.1583840399980545,8.471317818697487e-05,"train",1220.0,"2021-11-28 20:25:51.655599","","","","","","",""
0.0,0.0996703952550888,8.486884343760826e-05,"train",1240.0,"2021-11-28 20:25:55.574153","","","","","","",""
0.0,0.14581112563610077,8.50270311904453e-05,"train",1260.0,"2021-11-28 20:25:59.120493","","","","","","",""
0.0,0.12467353045940399,8.518774102771187e-05,"train",1280.0,"2021-11-28 20:26:02.747538","","","","","","",""
0.0,0.10222727805376053,8.535097252497298e-05,"train",1300.0,"2021-11-28 20:26:06.382586","","","","","","",""
0.0,0.10839478671550751,8.551672525113443e-05,"train",1320.0,"2021-11-28 20:26:10.012914","","","","","","",""
0.0,0.11767695844173431,8.56849987684431e-05,"train",1340.0,"2021-11-28 20:26:14.023449","","","","","","",""
0.0,0.08984560519456863,8.585579263248799e-05,"train",1360.0,"2021-11-28 20:26:17.658666","","","","","","",""
0.0,0.11451078206300735,8.602910639220326e-05,"train",1380.0,"2021-11-28 20:26:21.202452","","","","","","",""
0.0,0.1405678540468216,8.62049395898663e-05,"train",1400.0,"2021-11-28 20:26:24.727118","","","","","","",""
0.0,0.11308266967535019,8.638329176110181e-05,"train",1420.0,"2021-11-28 20:26:28.640118","","","","","","",""
0.0,0.1400974541902542,8.656416243488143e-05,"train",1440.0,"2021-11-28 20:26:32.184921","","","","","","",""
0.0,0.1192924827337265,8.674755113352584e-05,"train",1460.0,"2021-11-28 20:26:35.814447","","","","","","",""
0.0,0.124967060983181,8.693345737270522e-05,"train",1480.0,"2021-11-28 20:26:39.449306","","","","","","",""
0.0,0.0983128473162651,8.712188066144059e-05,"train",1500.0,"2021-11-28 20:26:43.474823","","","","","","",""
0.0,0.11519113183021545,8.731282050210656e-05,"train",1520.0,"2021-11-28 20:26:47.100781","","","","","","",""
0.0,0.1186215803027153,8.750627639043029e-05,"train",1540.0,"2021-11-28 20:26:50.698522","","","","","","",""
0.0,0.10420238226652145,8.770224781549517e-05,"train",1560.0,"2021-11-28 20:26:54.310423","","","","","","",""
0.0,0.15620051324367523,8.790073425973995e-05,"train",1580.0,"2021-11-28 20:26:57.907699","","","","","","",""
0.0,0.12264890968799591,8.810173519896219e-05,"train",1600.0,"2021-11-28 20:27:01.899404","","","","","","",""
0.0,0.15157081186771393,8.830525010231787e-05,"train",1620.0,"2021-11-28 20:27:05.458896","","","","","","",""
0.0,0.1183013841509819,8.851127843232417e-05,"train",1640.0,"2021-11-28 20:27:09.002361","","","","","","",""
0.0,0.12266790121793747,8.871981964486014e-05,"train",1660.0,"2021-11-28 20:27:12.515757","","","","","","",""
0.0,0.1286783367395401,8.893087318916798e-05,"train",1680.0,"2021-11-28 20:27:16.438011","","","","","","",""
0.0,0.1181369200348854,8.914443850785545e-05,"train",1700.0,"2021-11-28 20:27:19.976215","","","","","","",""
0.0,0.15130245685577393,8.93605150368963e-05,"train",1720.0,"2021-11-28 20:27:23.504508","","","","","","",""
0.0,0.11183565109968185,8.957910220563198e-05,"train",1740.0,"2021-11-28 20:27:27.131054","","","","","","",""
0.0,0.09403544664382935,8.980019943677364e-05,"train",1760.0,"2021-11-28 20:27:31.161219","","","","","","",""
0.0,0.1153683066368103,9.00238061464036e-05,"train",1780.0,"2021-11-28 20:27:34.795668","","","","","","",""
0.0,0.13145363330841064,9.0249921743976e-05,"train",1800.0,"2021-11-28 20:27:38.431276","","","","","","",""
0.0,0.10948396474123001,9.047854563231966e-05,"train",1820.0,"2021-11-28 20:27:42.054044","","","","","","",""
0.0,0.08892256766557693,9.07096772076385e-05,"train",1840.0,"2021-11-28 20:27:45.688745","","","","","","",""
0.0,0.13583995401859283,9.09433158595139e-05,"train",1860.0,"2021-11-28 20:27:49.735548","","","","","","",""
0.0,0.10906965285539627,9.117946097090602e-05,"train",1880.0,"2021-11-28 20:27:53.320989","","","","","","",""
0.0,0.08849525451660156,9.14181119181551e-05,"train",1900.0,"2021-11-28 20:27:56.862671","","","","","","",""
0.0,0.11254396289587021,9.165926807098448e-05,"train",1920.0,"2021-11-28 20:28:00.408647","","","","","","",""
0.0,0.13604454696178436,9.190292879249955e-05,"train",1940.0,"2021-11-28 20:28:04.397949","","","","","","",""
0.0,0.13472792506217957,9.214909343919294e-05,"train",1960.0,"2021-11-28 20:28:08.007933","","","","","","",""
0.0,0.09937068074941635,9.23977613609434e-05,"train",1980.0,"2021-11-28 20:28:11.585524","","","","","","",""
0.0,0.15275819599628448,9.264893190101889e-05,"train",2000.0,"2021-11-28 20:28:15.157343","","","","","","",""
0.0,0.11093687266111374,9.290260439607742e-05,"train",2020.0,"2021-11-28 20:28:19.158466","","","","","","",""
0.0,0.10501744598150253,9.315877817616986e-05,"train",2040.0,"2021-11-28 20:28:22.758871","","","","","","",""
0.0,0.1066959798336029,9.341745256474104e-05,"train",2060.0,"2021-11-28 20:28:26.313034","","","","","","",""
0.0,0.13057829439640045,9.367862687863172e-05,"train",2080.0,"2021-11-28 20:28:29.900076","","","","","","",""
0.0,0.1522706001996994,9.394230042808027e-05,"train",2100.0,"2021-11-28 20:28:33.508986","","","","","","",""
0.0,0.1324024647474289,9.420847251672489e-05,"train",2120.0,"2021-11-28 20:28:37.533828","","","","","","",""
0.0,0.10662054270505905,9.447714244160466e-05,"train",2140.0,"2021-11-28 20:28:41.085912","","","","","","",""
0.0,0.1386423259973526,9.474830949316175e-05,"train",2160.0,"2021-11-28 20:28:44.710875","","","","","","",""
0.0,0.1457943171262741,9.502197295524419e-05,"train",2180.0,"2021-11-28 20:28:48.341282","","","","","","",""
0.0,0.08662813901901245,9.529813210510654e-05,"train",2200.0,"2021-11-28 20:28:52.368555","","","","","","",""
0.0,0.0941721498966217,9.557678621341186e-05,"train",2220.0,"2021-11-28 20:28:55.954315","","","","","","",""
0.0,0.12556777894496918,9.585793454423472e-05,"train",2240.0,"2021-11-28 20:28:59.484182","","","","","","",""
0.0,0.08721289038658142,9.614157635506209e-05,"train",2260.0,"2021-11-28 20:29:03.014182","","","","","","",""
0.0,0.09663355350494385,9.64277108967957e-05,"train",2280.0,"2021-11-28 20:29:06.942634","","","","","","",""
0.0,0.09003740549087524,9.671633741375422e-05,"train",2300.0,"2021-11-28 20:29:10.477516","","","","","","",""
0.0,0.13038048148155212,9.700745514367413e-05,"train",2320.0,"2021-11-28 20:29:14.018645","","","","","","",""
0.0,0.08682069182395935,9.730106331771386e-05,"train",2340.0,"2021-11-28 20:29:17.657782","","","","","","",""
0.0,0.09880795329809189,9.759716116045352e-05,"train",2360.0,"2021-11-28 20:29:21.298266","","","","","","",""
0.0,0.10836457461118698,9.789574788989907e-05,"train",2380.0,"2021-11-28 20:29:25.326940","","","","","","",""
0.0,0.11342202872037888,9.819682271748186e-05,"train",2400.0,"2021-11-28 20:29:28.971889","","","","","","",""
0.0,0.10067426413297653,9.850038484806407e-05,"train",2420.0,"2021-11-28 20:29:32.614650","","","","","","",""
0.0,0.07755503058433533,9.880643347993674e-05,"train",2440.0,"2021-11-28 20:29:36.259496","","","","","","",""
0.0,0.13380825519561768,9.911496780482584e-05,"train",2460.0,"2021-11-28 20:29:40.276297","","","","","","",""
0.0,0.10537269711494446,9.942598700789186e-05,"train",2480.0,"2021-11-28 20:29:43.911810","","","","","","",""
0.0,0.10374307632446289,9.973949026773261e-05,"train",2500.0,"2021-11-28 20:29:47.538116","","","","","","",""
0.0,0.07727020233869553,0.00010005547675638604,"train",2520.0,"2021-11-28 20:29:51.171385","","","","","","",""
0.0,0.07987797260284424,0.00010037394563933134,"train",2540.0,"2021-11-28 20:29:55.155711","","","","","","",""
0.0,0.11985256522893906,0.00010069489607549193,"train",2560.0,"2021-11-28 20:29:58.688246","","","","","","",""
0.0,0.11526139825582504,0.00010101832721723749,"train",2580.0,"2021-11-28 20:30:02.227189","","","","","","",""
0.0,0.1171756386756897,0.00010134423821038605,"train",2600.0,"2021-11-28 20:30:05.755373","","","","","","",""
0.0,0.11349554359912872,0.00010167262819420642,"train",2620.0,"2021-11-28 20:30:09.318141","","","","","","",""
0.0,0.09209134429693222,0.00010200349630142013,"train",2640.0,"2021-11-28 20:30:13.353867","","","","","","",""
0.0,0.10033967345952988,0.00010233684165820468,"train",2660.0,"2021-11-28 20:30:16.980447","","","","","","",""
0.0,0.10658072680234909,0.00010267266338419463,"train",2680.0,"2021-11-28 20:30:20.569598","","","","","","",""
0.0,0.12551242113113403,0.00010301096059248441,"train",2700.0,"2021-11-28 20:30:24.118131","","","","","","",""
0.0,0.08369117230176926,0.00010335173238963029,"train",2720.0,"2021-11-28 20:30:28.135312","","","","","","",""
0.0,0.07301114499568939,0.00010369497787565446,"train",2740.0,"2021-11-28 20:30:31.772338","","","","","","",""
0.0,0.09820978343486786,0.00010404069614404488,"train",2760.0,"2021-11-28 20:30:35.419427","","","","","","",""
0.0,0.08664152026176453,0.00010438888628175953,"train",2780.0,"2021-11-28 20:30:39.054444","","","","","","",""
0.0,0.09770520776510239,0.0001047395473692276,"train",2800.0,"2021-11-28 20:30:43.129722","","","","","","",""
0.0,0.10197444260120392,0.00010509267848035327,"train",2820.0,"2021-11-28 20:30:46.753581","","","","","","",""
0.0,0.10523216426372528,0.00010544827868251669,"train",2840.0,"2021-11-28 20:30:50.347941","","","","","","",""
0.0,0.09842631965875626,0.0001058063470365776,"train",2860.0,"2021-11-28 20:30:53.925015","","","","","","",""
0.0,"","","val",2864.0,"2021-11-28 20:31:25.039188",0.4048475008697669,0.22910829909211602,0.7985449381724342,0.3161125354103858,0.15410887060330591,0.14626525460093995,0.10212346367759141
1.0,0.11072789877653122,0.00010616688259687708,"train",2880.0,"2021-11-28 20:31:30.918455","","","","","","",""
1.0,0.1184498593211174,0.00010652988441124016,"train",2900.0,"2021-11-28 20:31:34.972598","","","","","","",""
1.0,0.13848425447940826,0.00010689535152097907,"train",2920.0,"2021-11-28 20:31:38.597031","","","","","","",""
1.0,0.12997165322303772,0.00010726328296089497,"train",2940.0,"2021-11-28 20:31:42.222084","","","","","","",""
1.0,0.12396064400672913,0.00010763367775928055,"train",2960.0,"2021-11-28 20:31:46.258969","","","","","","",""
1.0,0.0729825422167778,0.0001080065349379222,"train",2980.0,"2021-11-28 20:31:49.940792","","","","","","",""
1.0,0.12371134012937546,0.00010838185351210458,"train",3000.0,"2021-11-28 20:31:53.511977","","","","","","",""
1.0,0.11350931227207184,0.0001087596324906106,"train",3020.0,"2021-11-28 20:31:57.081152","","","","","","",""
1.0,0.12356061488389969,0.00010913987087572577,"train",3040.0,"2021-11-28 20:32:01.066445","","","","","","",""
1.0,0.09939499199390411,0.00010952256766324033,"train",3060.0,"2021-11-28 20:32:04.638498","","","","","","",""
1.0,0.08557723462581635,0.00010990772184245171,"train",3080.0,"2021-11-28 20:32:08.194235","","","","","","",""
1.0,0.10724107921123505,0.00011029533239616707,"train",3100.0,"2021-11-28 20:32:12.170110","","","","","","",""
1.0,0.12075494974851608,0.00011068539830070699,"train",3120.0,"2021-11-28 20:32:15.720882","","","","","","",""
1.0,0.10388461500406265,0.0001110779185259066,"train",3140.0,"2021-11-28 20:32:19.260656","","","","","","",""
1.0,0.12717792391777039,0.00011147289203512008,"train",3160.0,"2021-11-28 20:32:22.804809","","","","","","",""
1.0,0.11043168604373932,0.00011187031778522199,"train",3180.0,"2021-11-28 20:32:26.722380","","","","","","",""
1.0,0.08322715014219284,0.00011227019472661052,"train",3200.0,"2021-11-28 20:32:30.321062","","","","","","",""
1.0,0.12278495728969574,0.00011267252180321031,"train",3220.0,"2021-11-28 20:32:33.967246","","","","","","",""
1.0,0.11974775046110153,0.00011307729795247525,"train",3240.0,"2021-11-28 20:32:37.985519","","","","","","",""
1.0,0.11810868978500366,0.00011348452210539132,"train",3260.0,"2021-11-28 20:32:41.620991","","","","","","",""
1.0,0.12685520946979523,0.00011389419318647877,"train",3280.0,"2021-11-28 20:32:45.254888","","","","","","",""
1.0,0.1264559030532837,0.0001143063101137964,"train",3300.0,"2021-11-28 20:32:48.900335","","","","","","",""
1.0,0.09241096675395966,0.00011472087179894251,"train",3320.0,"2021-11-28 20:32:52.890308","","","","","","",""
1.0,0.13600552082061768,0.00011513787714705981,"train",3340.0,"2021-11-28 20:32:56.425549","","","","","","",""
1.0,0.09973930567502975,0.00011555732505683677,"train",3360.0,"2021-11-28 20:32:59.965945","","","","","","",""
1.0,0.09796993434429169,0.00011597921442051086,"train",3380.0,"2021-11-28 20:33:03.964725","","","","","","",""
1.0,0.10251469910144806,0.000116403544123872,"train",3400.0,"2021-11-28 20:33:07.597651","","","","","","",""
1.0,0.08809060603380203,0.00011683031304626518,"train",3420.0,"2021-11-28 20:33:11.242825","","","","","","",""
1.0,0.06289977580308914,0.00011725952006059331,"train",3440.0,"2021-11-28 20:33:14.858272","","","","","","",""
1.0,0.09341924637556076,0.00011769116403332019,"train",3460.0,"2021-11-28 20:33:18.884288","","","","","","",""
1.0,0.1018637865781784,0.00011812524382447359,"train",3480.0,"2021-11-28 20:33:22.483619","","","","","","",""
1.0,0.07835094630718231,0.00011856175828764892,"train",3500.0,"2021-11-28 20:33:26.075241","","","","","","",""
1.0,0.13009393215179443,0.00011900070627001032,"train",3520.0,"2021-11-28 20:33:29.620440","","","","","","",""
1.0,0.11918536573648453,0.00011944208661229653,"train",3540.0,"2021-11-28 20:33:33.608506","","","","","","",""
1.0,0.12059121578931808,0.00011988589814882129,"train",3560.0,"2021-11-28 20:33:37.190444","","","","","","",""
1.0,0.11478713899850845,0.00012033213970747813,"train",3580.0,"2021-11-28 20:33:40.808684","","","","","","",""
1.0,0.12357024848461151,0.00012078081010974276,"train",3600.0,"2021-11-28 20:33:44.809059","","","","","","",""
1.0,0.12110712379217148,0.00012123190817067589,"train",3620.0,"2021-11-28 20:33:48.353169","","","","","","",""
1.0,0.12564820051193237,0.00012168543269892775,"train",3640.0,"2021-11-28 20:33:51.893051","","","","","","",""
1.0,0.09827786684036255,0.00012214138249673902,"train",3660.0,"2021-11-28 20:33:55.528846","","","","","","",""
1.0,0.0705166906118393,0.0001225997563599464,"train",3680.0,"2021-11-28 20:33:59.565383","","","","","","",""
1.0,0.12850922346115112,0.00012306055307798372,"train",3700.0,"2021-11-28 20:34:03.200297","","","","","","",""
1.0,0.09419295191764832,0.00012352377143388677,"train",3720.0,"2021-11-28 20:34:06.785365","","","","","","",""
1.0,0.10252204537391663,0.00012398941020429557,"train",3740.0,"2021-11-28 20:34:10.708413","","","","","","",""
1.0,0.0779518112540245,0.00012445746815945707,"train",3760.0,"2021-11-28 20:34:14.232727","","","","","","",""
1.0,0.1024070605635643,0.00012492794406323074,"train",3780.0,"2021-11-28 20:34:17.771770","","","","","","",""
1.0,0.09584473073482513,0.00012540083667308857,"train",3800.0,"2021-11-28 20:34:21.380339","","","","","","",""
1.0,0.10782516002655029,0.00012587614474012096,"train",3820.0,"2021-11-28 20:34:25.323774","","","","","","",""
1.0,0.10187918692827225,0.00012635386700903927,"train",3840.0,"2021-11-28 20:34:28.877895","","","","","","",""
1.0,0.10378757119178772,0.00012683400221817826,"train",3860.0,"2021-11-28 20:34:32.497391","","","","","","",""
1.0,0.07741725444793701,0.00012731654909950017,"train",3880.0,"2021-11-28 20:34:36.530571","","","","","","",""
1.0,0.12433958053588867,0.00012780150637859864,"train",3900.0,"2021-11-28 20:34:40.185316","","","","","","",""
1.0,0.10893046855926514,0.0001282888727747011,"train",3920.0,"2021-11-28 20:34:43.809922","","","","","","",""
1.0,0.13365232944488525,0.0001287786470006722,"train",3940.0,"2021-11-28 20:34:47.445892","","","","","","",""
1.0,0.10924195498228073,0.00012927082776301797,"train",3960.0,"2021-11-28 20:34:51.481074","","","","","","",""
1.0,0.1344878375530243,0.00012976541376188869,"train",3980.0,"2021-11-28 20:34:55.089249","","","","","","",""
1.0,0.09882590919733047,0.00013026240369108243,"train",4000.0,"2021-11-28 20:34:58.700997","","","","","","",""
1.0,0.06848865747451782,0.000130761796238048,"train",4020.0,"2021-11-28 20:35:02.745711","","","","","","",""
1.0,0.09831947088241577,0.00013126359008388947,"train",4040.0,"2021-11-28 20:35:06.287695","","","","","","",""
1.0,0.12589481472969055,0.00013176778390336873,"train",4060.0,"2021-11-28 20:35:09.819621","","","","","","",""
1.0,0.1181727796792984,0.00013227437636490922,"train",4080.0,"2021-11-28 20:35:13.385718","","","","","","",""
1.0,0.08754227310419083,0.00013278336613060048,"train",4100.0,"2021-11-28 20:35:17.358160","","","","","","",""
1.0,0.09913946688175201,0.00013329475185619964,"train",4120.0,"2021-11-28 20:35:20.895481","","","","","","",""
1.0,0.09526051580905914,0.00013380853219113666,"train",4140.0,"2021-11-28 20:35:24.459269","","","","","","",""
1.0,0.10453867167234421,0.00013432470577851713,"train",4160.0,"2021-11-28 20:35:28.104851","","","","","","",""
1.0,0.10683509707450867,0.0001348432712551266,"train",4180.0,"2021-11-28 20:35:32.160984","","","","","","",""
1.0,0.10491842031478882,0.00013536422725143253,"train",4200.0,"2021-11-28 20:35:35.797194","","","","","","",""
1.0,0.08874408900737762,0.0001358875723915902,"train",4220.0,"2021-11-28 20:35:39.432823","","","","","","",""
1.0,0.11719682812690735,0.00013641330529344455,"train",4240.0,"2021-11-28 20:35:43.458953","","","","","","",""
1.0,0.1018800288438797,0.00013694142456853443,"train",4260.0,"2021-11-28 20:35:47.006906","","","","","","",""
1.0,0.09056337177753448,0.0001374719288220966,"train",4280.0,"2021-11-28 20:35:50.598953","","","","","","",""
1.0,0.0863085389137268,0.00013800481665306825,"train",4300.0,"2021-11-28 20:35:54.201710","","","","","","",""
1.0,0.09880334883928299,0.0001385400866540929,"train",4320.0,"2021-11-28 20:35:58.135517","","","","","","",""
1.0,0.10326432436704636,0.00013907773741152164,"train",4340.0,"2021-11-28 20:36:01.676032","","","","","","",""
1.0,0.10705091804265976,0.00013961776750541846,"train",4360.0,"2021-11-28 20:36:05.201204","","","","","","",""
1.0,0.10834838449954987,0.00014016017550956333,"train",4380.0,"2021-11-28 20:36:09.135158","","","","","","",""
1.0,0.13822151720523834,0.0001407049599914565,"train",4400.0,"2021-11-28 20:36:12.664565","","","","","","",""
1.0,0.09185561537742615,0.0001412521195123214,"train",4420.0,"2021-11-28 20:36:16.197215","","","","","","",""
1.0,0.09138216078281403,0.00014180165262710947,"train",4440.0,"2021-11-28 20:36:19.727614","","","","","","",""
1.0,0.08507294952869415,0.00014235355788450314,"train",4460.0,"2021-11-28 20:36:23.678478","","","","","","",""
1.0,0.11800509691238403,0.0001429078338269199,"train",4480.0,"2021-11-28 20:36:27.300902","","","","","","",""
1.0,0.08589167892932892,0.000143464478990517,"train",4500.0,"2021-11-28 20:36:30.857513","","","","","","",""
1.0,0.07785547524690628,0.00014402349190519395,"train",4520.0,"2021-11-28 20:36:34.796126","","","","","","",""
1.0,0.07375160604715347,0.00014458487109459696,"train",4540.0,"2021-11-28 20:36:38.447976","","","","","","",""
1.0,0.06291582435369492,0.0001451486150761236,"train",4560.0,"2021-11-28 20:36:42.073038","","","","","","",""
1.0,0.11644119024276733,0.00014571472236092468,"train",4580.0,"2021-11-28 20:36:45.707348","","","","","","",""
1.0,0.1488896906375885,0.0001462831914539112,"train",4600.0,"2021-11-28 20:36:49.748145","","","","","","",""
1.0,0.10970445722341537,0.00014685402085375522,"train",4620.0,"2021-11-28 20:36:53.377436","","","","","","",""
1.0,0.09759478271007538,0.0001474272090528962,"train",4640.0,"2021-11-28 20:36:56.965786","","","","","","",""
1.0,0.10061843693256378,0.00014800275453754372,"train",4660.0,"2021-11-28 20:37:00.932340","","","","","","",""
1.0,0.12317727506160736,0.00014858065578768104,"train",4680.0,"2021-11-28 20:37:04.519542","","","","","","",""
1.0,0.12107841670513153,0.00014916091127707112,"train",4700.0,"2021-11-28 20:37:08.153932","","","","","","",""
1.0,0.09932051599025726,0.0001497435194732584,"train",4720.0,"2021-11-28 20:37:11.799239","","","","","","",""
1.0,0.0908135399222374,0.0001503284788375741,"train",4740.0,"2021-11-28 20:37:15.835089","","","","","","",""
1.0,0.10115525871515274,0.00015091578782513992,"train",4760.0,"2021-11-28 20:37:19.468828","","","","","","",""
1.0,0.13049086928367615,0.00015150544488487278,"train",4780.0,"2021-11-28 20:37:23.103964","","","","","","",""
1.0,0.09336420148611069,0.00015209744845948755,"train",4800.0,"2021-11-28 20:37:27.120296","","","","","","",""
1.0,0.10247016698122025,0.00015269179698550227,"train",4820.0,"2021-11-28 20:37:30.763962","","","","","","",""
1.0,0.1031026616692543,0.00015328848889324198,"train",4840.0,"2021-11-28 20:37:34.389734","","","","","","",""
1.0,0.11730172485113144,0.00015388752260684312,"train",4860.0,"2021-11-28 20:37:38.015438","","","","","","",""
1.0,0.10768409818410873,0.00015448889654425674,"train",4880.0,"2021-11-28 20:37:42.008584","","","","","","",""
1.0,0.10183265060186386,0.00015509260911725394,"train",4900.0,"2021-11-28 20:37:45.530469","","","","","","",""
1.0,0.13854274153709412,0.00015569865873142933,"train",4920.0,"2021-11-28 20:37:49.061385","","","","","","",""
1.0,0.10805496573448181,0.0001563070437862054,"train",4940.0,"2021-11-28 20:37:52.621383","","","","","","",""
1.0,0.10056687891483307,0.0001569177626748364,"train",4960.0,"2021-11-28 20:37:56.611024","","","","","","",""
1.0,0.12452039867639542,0.00015753081378441368,"train",4980.0,"2021-11-28 20:38:00.197836","","","","","","",""
1.0,0.12239710986614227,0.00015814619549586848,"train",5000.0,"2021-11-28 20:38:03.792409","","","","","","",""
1.0,0.12427867203950882,0.00015876390618397695,"train",5020.0,"2021-11-28 20:38:07.773781","","","","","","",""
1.0,0.06783647835254669,0.00015938394421736502,"train",5040.0,"2021-11-28 20:38:11.363499","","","","","","",""
1.0,0.06538773328065872,0.00016000630795851142,"train",5060.0,"2021-11-28 20:38:14.966925","","","","","","",""
1.0,0.08732536435127258,0.00016063099576375372,"train",5080.0,"2021-11-28 20:38:18.583407","","","","","","",""
1.0,0.10839385539293289,0.00016125800598328945,"train",5100.0,"2021-11-28 20:38:22.600499","","","","","","",""
1.0,0.13720081746578217,0.0001618873369611854,"train",5120.0,"2021-11-28 20:38:26.235133","","","","","","",""
1.0,0.12482301145792007,0.00016251898703537743,"train",5140.0,"2021-11-28 20:38:29.833904","","","","","","",""
1.0,0.07494021207094193,0.00016315295453767716,"train",5160.0,"2021-11-28 20:38:33.765427","","","","","","",""
1.0,0.1252845823764801,0.00016378923779377568,"train",5180.0,"2021-11-28 20:38:37.305822","","","","","","",""
1.0,0.10699751228094101,0.00016442783512324874,"train",5200.0,"2021-11-28 20:38:40.896435","","","","","","",""
1.0,0.09173425287008286,0.0001650687448395598,"train",5220.0,"2021-11-28 20:38:44.465417","","","","","","",""
1.0,0.08241808414459229,0.00016571196525006632,"train",5240.0,"2021-11-28 20:38:48.417520","","","","","","",""
1.0,0.09713989496231079,0.0001663574946560223,"train",5260.0,"2021-11-28 20:38:52.012378","","","","","","",""
1.0,0.11941810697317123,0.00016700533135258384,"train",5280.0,"2021-11-28 20:38:55.649583","","","","","","",""
1.0,0.09316866099834442,0.00016765547362881418,"train",5300.0,"2021-11-28 20:38:59.685751","","","","","","",""
1.0,0.13486874103546143,0.0001683079197676864,"train",5320.0,"2021-11-28 20:39:03.321715","","","","","","",""
1.0,0.09825073182582855,0.00016896266804609038,"train",5340.0,"2021-11-28 20:39:06.956782","","","","","","",""
1.0,0.12643347680568695,0.00016961971673483465,"train",5360.0,"2021-11-28 20:39:10.580074","","","","","","",""
1.0,0.12819629907608032,0.00017027906409865343,"train",5380.0,"2021-11-28 20:39:14.627749","","","","","","",""
1.0,0.08111116290092468,0.00017094070839621003,"train",5400.0,"2021-11-28 20:39:18.272509","","","","","","",""
1.0,0.0955609604716301,0.0001716046478801008,"train",5420.0,"2021-11-28 20:39:21.908819","","","","","","",""
1.0,0.09874701499938965,0.0001722708807968612,"train",5440.0,"2021-11-28 20:39:25.903297","","","","","","",""
1.0,0.09673341363668442,0.00017293940538696964,"train",5460.0,"2021-11-28 20:39:29.510365","","","","","","",""
1.0,0.12398353219032288,0.0001736102198848519,"train",5480.0,"2021-11-28 20:39:33.154557","","","","","","",""
1.0,0.08338651806116104,0.00017428332251888628,"train",5500.0,"2021-11-28 20:39:36.789986","","","","","","",""
1.0,0.07726822048425674,0.0001749587115114084,"train",5520.0,"2021-11-28 20:39:40.822925","","","","","","",""
1.0,0.06218110769987106,0.00017563638507871507,"train",5540.0,"2021-11-28 20:39:44.352956","","","","","","",""
1.0,0.0958450511097908,0.0001763163414310702,"train",5560.0,"2021-11-28 20:39:47.871629","","","","","","",""
1.0,0.10763398557901382,0.00017699857877270797,"train",5580.0,"2021-11-28 20:39:51.406057","","","","","","",""
1.0,0.09302981942892075,0.00017768309530183921,"train",5600.0,"2021-11-28 20:39:55.454899","","","","","","",""
1.0,0.10837285965681076,0.00017836988921065547,"train",5620.0,"2021-11-28 20:39:59.081193","","","","","","",""
1.0,0.1085813120007515,0.0001790589586853331,"train",5640.0,"2021-11-28 20:40:02.730883","","","","","","",""
1.0,0.07117072492837906,0.00017975030190603902,"train",5660.0,"2021-11-28 20:40:06.727270","","","","","","",""
1.0,0.07739338278770447,0.00018044391704693553,"train",5680.0,"2021-11-28 20:40:10.292305","","","","","","",""
1.0,0.11652149260044098,0.00018113980227618394,"train",5700.0,"2021-11-28 20:40:13.819017","","","","","","",""
1.0,0.0704081803560257,0.00018183795575595118,"train",5720.0,"2021-11-28 20:40:17.367590","","","","","","",""
1.0,"","","val",5728.0,"2021-11-28 20:40:48.608497",0.45761335961962196,0.3124697874982362,0.8542986716277345,0.41552938632114383,0.22095689317521383,0.21504562479379943,0.14996607862167494
2.0,0.1095232143998146,0.0001825383756424131,"train",5740.0,"2021-11-28 20:40:53.791613","","","","","","",""
2.0,0.10936109721660614,0.00018324106008576037,"train",5760.0,"2021-11-28 20:40:57.361065","","","","","","",""
2.0,0.0888950526714325,0.0001839460072302027,"train",5780.0,"2021-11-28 20:41:00.911068","","","","","","",""
2.0,0.09206371009349823,0.0001846532152139737,"train",5800.0,"2021-11-28 20:41:04.896862","","","","","","",""
2.0,0.07845547050237656,0.00018536268216933697,"train",5820.0,"2021-11-28 20:41:08.398026","","","","","","",""
2.0,0.10276351869106293,0.00018607440622258947,"train",5840.0,"2021-11-28 20:41:11.927812","","","","","","",""
2.0,0.09752370417118073,0.00018678838549406745,"train",5860.0,"2021-11-28 20:41:15.849917","","","","","","",""
2.0,0.06337940692901611,0.00018750461809815123,"train",5880.0,"2021-11-28 20:41:19.376560","","","","","","",""
2.0,0.11027485132217407,0.00018822310214326927,"train",5900.0,"2021-11-28 20:41:22.999541","","","","","","",""
2.0,0.07955800741910934,0.00018894383573190513,"train",5920.0,"2021-11-28 20:41:27.028711","","","","","","",""
2.0,0.09020742028951645,0.00018966681696060074,"train",5940.0,"2021-11-28 20:41:30.672523","","","","","","",""
2.0,0.0758679136633873,0.0001903920439199618,"train",5960.0,"2021-11-28 20:41:34.296777","","","","","","",""
2.0,0.10545302927494049,0.0001911195146946632,"train",5980.0,"2021-11-28 20:41:38.316297","","","","","","",""
2.0,0.11975875496864319,0.00019184922736345468,"train",6000.0,"2021-11-28 20:41:41.968579","","","","","","",""
2.0,0.0997089371085167,0.00019258117999916362,"train",6020.0,"2021-11-28 20:41:45.987021","","","","","","",""
2.0,0.10223992168903351,0.00019331537066870287,"train",6040.0,"2021-11-28 20:41:49.637837","","","","","","",""
2.0,0.0931670144200325,0.00019405179743307464,"train",6060.0,"2021-11-28 20:41:53.268565","","","","","","",""
2.0,0.10300712287425995,0.0001947904583473744,"train",6080.0,"2021-11-28 20:41:57.294555","","","","","","",""
2.0,0.07942208647727966,0.0001955313514607987,"train",6100.0,"2021-11-28 20:42:00.837358","","","","","","",""
2.0,0.0899553894996643,0.000196274474816648,"train",6120.0,"2021-11-28 20:42:04.373807","","","","","","",""
2.0,0.09046713262796402,0.00019701982645233245,"train",6140.0,"2021-11-28 20:42:08.363457","","","","","","",""
2.0,0.11059242486953735,0.00019776740439937852,"train",6160.0,"2021-11-28 20:42:11.998372","","","","","","",""
2.0,0.09673058986663818,0.0001985172066834315,"train",6180.0,"2021-11-28 20:42:15.634707","","","","","","",""
2.0,0.0991041511297226,0.00019926923132426353,"train",6200.0,"2021-11-28 20:42:19.651125","","","","","","",""
2.0,0.12267398834228516,0.0002000234763357763,"train",6220.0,"2021-11-28 20:42:23.214745","","","","","","",""
2.0,0.09139134734869003,0.0002007799397260087,"train",6240.0,"2021-11-28 20:42:26.785594","","","","","","",""
2.0,0.09879571199417114,0.0002015386194971396,"train",6260.0,"2021-11-28 20:42:30.710448","","","","","","",""
2.0,0.0913410410284996,0.00020229951364549546,"train",6280.0,"2021-11-28 20:42:34.301530","","","","","","",""
2.0,0.14700953662395477,0.00020306262016155422,"train",6300.0,"2021-11-28 20:42:37.937260","","","","","","",""
2.0,0.06851762533187866,0.00020382793702995055,"train",6320.0,"2021-11-28 20:42:41.867002","","","","","","",""
2.0,0.08536399155855179,0.00020459546222948268,"train",6340.0,"2021-11-28 20:42:45.403596","","","","","","",""
2.0,0.09233248233795166,0.00020536519373311516,"train",6360.0,"2021-11-28 20:42:48.916741","","","","","","",""
2.0,0.08822164684534073,0.00020613712950798692,"train",6380.0,"2021-11-28 20:42:52.834133","","","","","","",""
2.0,0.09336364269256592,0.0002069112675154145,"train",6400.0,"2021-11-28 20:42:56.400937","","","","","","",""
2.0,0.09629805386066437,0.000207687605710899,"train",6420.0,"2021-11-28 20:42:59.946332","","","","","","",""
2.0,0.11455041915178299,0.00020846614204413061,"train",6440.0,"2021-11-28 20:43:03.924447","","","","","","",""
2.0,0.1016620323061943,0.0002092468744589941,"train",6460.0,"2021-11-28 20:43:07.451427","","","","","","",""
2.0,0.09328596293926239,0.00021002980089357458,"train",6480.0,"2021-11-28 20:43:10.988333","","","","","","",""
2.0,0.09573300927877426,0.00021081491928016255,"train",6500.0,"2021-11-28 20:43:14.935835","","","","","","",""
2.0,0.09804701060056686,0.00021160222754525995,"train",6520.0,"2021-11-28 20:43:18.609653","","","","","","",""
2.0,0.10543420165777206,0.0002123917236095845,"train",6540.0,"2021-11-28 20:43:22.236104","","","","","","",""
2.0,0.0890999361872673,0.0002131834053880771,"train",6560.0,"2021-11-28 20:43:26.263098","","","","","","",""
2.0,0.1064164936542511,0.00021397727078990457,"train",6580.0,"2021-11-28 20:43:29.899107","","","","","","",""
2.0,0.08677474409341812,0.00021477331771846842,"train",6600.0,"2021-11-28 20:43:33.506711","","","","","","",""
2.0,0.07970629632472992,0.00021557154407140784,"train",6620.0,"2021-11-28 20:43:37.492703","","","","","","",""
2.0,0.06571195274591446,0.0002163719477406064,"train",6640.0,"2021-11-28 20:43:41.064553","","","","","","",""
2.0,0.13172630965709686,0.0002171745266121971,"train",6660.0,"2021-11-28 20:43:44.626672","","","","","","",""
2.0,0.11510606855154037,0.00021797927856656877,"train",6680.0,"2021-11-28 20:43:48.566340","","","","","","",""
2.0,0.08786288648843765,0.00021878620147837056,"train",6700.0,"2021-11-28 20:43:52.140885","","","","","","",""
2.0,0.12746557593345642,0.0002195952932165185,"train",6720.0,"2021-11-28 20:43:55.695107","","","","","","",""
2.0,0.10729579627513885,0.00022040655164420062,"train",6740.0,"2021-11-28 20:43:59.627108","","","","","","",""
2.0,0.11172229796648026,0.0002212199746188825,"train",6760.0,"2021-11-28 20:44:03.195426","","","","","","",""
2.0,0.09564708173274994,0.0002220355599923138,"train",6780.0,"2021-11-28 20:44:06.740011","","","","","","",""
2.0,0.06461642682552338,0.00022285330561053218,"train",6800.0,"2021-11-28 20:44:10.731982","","","","","","",""
2.0,0.11912568658590317,0.00022367320931387154,"train",6820.0,"2021-11-28 20:44:14.274647","","","","","","",""
2.0,0.09686228632926941,0.00022449526893696527,"train",6840.0,"2021-11-28 20:44:17.796950","","","","","","",""
2.0,0.08751380443572998,0.0002253194823087527,"train",6860.0,"2021-11-28 20:44:21.764476","","","","","","",""
2.0,0.0888887271285057,0.0002261458472524859,"train",6880.0,"2021-11-28 20:44:25.314426","","","","","","",""
2.0,0.07364560663700104,0.00022697436158573467,"train",6900.0,"2021-11-28 20:44:28.857096","","","","","","",""
2.0,0.05376129969954491,0.00022780502312039165,"train",6920.0,"2021-11-28 20:44:32.773646","","","","","","",""
2.0,0.1041116937994957,0.0002286378296626787,"train",6940.0,"2021-11-28 20:44:36.296759","","","","","","",""
2.0,0.08852279931306839,0.00022947277901315378,"train",6960.0,"2021-11-28 20:44:39.819555","","","","","","",""
2.0,0.05415235459804535,0.0002303098689667145,"train",6980.0,"2021-11-28 20:44:43.734081","","","","","","",""
2.0,0.11086758971214294,0.0002311490973126056,"train",7000.0,"2021-11-28 20:44:47.266282","","","","","","",""
2.0,0.10796529054641724,0.00023199046183442406,"train",7020.0,"2021-11-28 20:44:50.778989","","","","","","",""
2.0,0.05990136042237282,0.0002328339603101259,"train",7040.0,"2021-11-28 20:44:54.756331","","","","","","",""
2.0,0.06647826731204987,0.00023367959051203064,"train",7060.0,"2021-11-28 20:44:58.262426","","","","","","",""
2.0,0.06968346983194351,0.00023452735020682816,"train",7080.0,"2021-11-28 20:45:01.795368","","","","","","",""
2.0,0.12692509591579437,0.00023537723715558482,"train",7100.0,"2021-11-28 20:45:05.751014","","","","","","",""
2.0,0.09810525178909302,0.00023622924911374799,"train",7120.0,"2021-11-28 20:45:09.399203","","","","","","",""
2.0,0.06617405265569687,0.0002370833838311534,"train",7140.0,"2021-11-28 20:45:12.995125","","","","","","",""
2.0,0.102250836789608,0.00023793963905203107,"train",7160.0,"2021-11-28 20:45:16.976614","","","","","","",""
2.0,0.10657037049531937,0.00023879801251500913,"train",7180.0,"2021-11-28 20:45:20.563737","","","","","","",""
2.0,0.11719674617052078,0.0002396585019531236,"train",7200.0,"2021-11-28 20:45:24.543538","","","","","","",""
2.0,0.11262752115726471,0.00024052110509382042,"train",7220.0,"2021-11-28 20:45:28.139877","","","","","","",""
2.0,0.12608398497104645,0.0002413858196589646,"train",7240.0,"2021-11-28 20:45:31.745503","","","","","","",""
2.0,0.11254356056451797,0.00024225264336484391,"train",7260.0,"2021-11-28 20:45:35.732667","","","","","","",""
2.0,0.11187207698822021,0.00024312157392217607,"train",7280.0,"2021-11-28 20:45:39.336745","","","","","","",""
2.0,0.07014375180006027,0.00024399260903611468,"train",7300.0,"2021-11-28 20:45:42.958073","","","","","","",""
2.0,0.08538226783275604,0.0002448657464062555,"train",7320.0,"2021-11-28 20:45:46.988844","","","","","","",""
2.0,0.08310823142528534,0.00024574098372664196,"train",7340.0,"2021-11-28 20:45:50.570434","","","","","","",""
2.0,0.08465524017810822,0.00024661831868577145,"train",7360.0,"2021-11-28 20:45:54.154486","","","","","","",""
2.0,0.0611317977309227,0.0002474977489666018,"train",7380.0,"2021-11-28 20:45:58.192740","","","","","","",""
2.0,0.07260800153017044,0.0002483792722465564,"train",7400.0,"2021-11-28 20:46:01.838657","","","","","","",""
2.0,0.10889387130737305,0.0002492628861975321,"train",7420.0,"2021-11-28 20:46:05.399356","","","","","","",""
2.0,0.09550831466913223,0.0002501485884859034,"train",7440.0,"2021-11-28 20:46:09.395363","","","","","","",""
2.0,0.13636432588100433,0.0002510363767725297,"train",7460.0,"2021-11-28 20:46:13.054038","","","","","","",""
2.0,0.07890217006206512,0.00025192624871276173,"train",7480.0,"2021-11-28 20:46:16.709582","","","","","","",""
2.0,0.0802181214094162,0.0002528182019564465,"train",7500.0,"2021-11-28 20:46:20.757343","","","","","","",""
2.0,0.08882400393486023,0.0002537122341479349,"train",7520.0,"2021-11-28 20:46:24.322510","","","","","","",""
2.0,0.11326354742050171,0.0002546083429260874,"train",7540.0,"2021-11-28 20:46:27.839903","","","","","","",""
2.0,0.1278655230998993,0.00025550652592427957,"train",7560.0,"2021-11-28 20:46:31.834798","","","","","","",""
2.0,0.08661004155874252,0.0002564067807704095,"train",7580.0,"2021-11-28 20:46:35.480480","","","","","","",""
2.0,0.10597532242536545,0.0002573091050869034,"train",7600.0,"2021-11-28 20:46:39.081679","","","","","","",""
2.0,0.05843865126371384,0.0002582134964907218,"train",7620.0,"2021-11-28 20:46:43.093991","","","","","","",""
2.0,0.0962030217051506,0.00025911995259336653,"train",7640.0,"2021-11-28 20:46:46.618575","","","","","","",""
2.0,0.07728360593318939,0.0002600284710008861,"train",7660.0,"2021-11-28 20:46:50.141723","","","","","","",""
2.0,0.10460174083709717,0.0002609390493138826,"train",7680.0,"2021-11-28 20:46:54.058282","","","","","","",""
2.0,0.0570598803460598,0.0002618516851275179,"train",7700.0,"2021-11-28 20:46:57.589393","","","","","","",""
2.0,0.11387620866298676,0.00026276637603152016,"train",7720.0,"2021-11-28 20:47:01.117632","","","","","","",""
2.0,0.07336373627185822,0.0002636831196101896,"train",7740.0,"2021-11-28 20:47:05.052484","","","","","","",""
2.0,0.08913055062294006,0.0002646019134424061,"train",7760.0,"2021-11-28 20:47:08.587846","","","","","","",""
2.0,0.09742721915245056,0.0002655227551016336,"train",7780.0,"2021-11-28 20:47:12.176971","","","","","","",""
2.0,0.10345487296581268,0.0002664456421559295,"train",7800.0,"2021-11-28 20:47:16.223884","","","","","","",""
2.0,0.04505762830376625,0.00026737057216794763,"train",7820.0,"2021-11-28 20:47:19.863782","","","","","","",""
2.0,0.06492601335048676,0.0002682975426949474,"train",7840.0,"2021-11-28 20:47:23.524750","","","","","","",""
2.0,0.07702459394931793,0.0002692265512887987,"train",7860.0,"2021-11-28 20:47:27.672115","","","","","","",""
2.0,0.08344786614179611,0.0002701575954959887,"train",7880.0,"2021-11-28 20:47:31.321703","","","","","","",""
2.0,0.09043234586715698,0.0002710906728576293,"train",7900.0,"2021-11-28 20:47:34.952831","","","","","","",""
2.0,0.07661326974630356,0.00027202578090946227,"train",7920.0,"2021-11-28 20:47:39.000344","","","","","","",""
2.0,0.10493938624858856,0.00027296291718186634,"train",7940.0,"2021-11-28 20:47:42.633834","","","","","","",""
2.0,0.07037551701068878,0.00027390207919986403,"train",7960.0,"2021-11-28 20:47:46.257274","","","","","","",""
2.0,0.09835991263389587,0.00027484326448312733,"train",7980.0,"2021-11-28 20:47:50.198928","","","","","","",""
2.0,0.09407566487789154,0.0002757864705459855,"train",8000.0,"2021-11-28 20:47:53.802160","","","","","","",""
2.0,0.0714460015296936,0.00027673169489742986,"train",8020.0,"2021-11-28 20:47:57.408726","","","","","","",""
2.0,0.08876192569732666,0.00027767893504112304,"train",8040.0,"2021-11-28 20:48:01.359047","","","","","","",""
2.0,0.0439365990459919,0.0002786281884754021,"train",8060.0,"2021-11-28 20:48:04.900054","","","","","","",""
2.0,0.09177010506391525,0.0002795794526932883,"train",8080.0,"2021-11-28 20:48:08.417093","","","","","","",""
2.0,0.0956411212682724,0.0002805327251824924,"train",8100.0,"2021-11-28 20:48:12.333488","","","","","","",""
2.0,0.08453823626041412,0.0002814880034254202,"train",8120.0,"2021-11-28 20:48:15.900103","","","","","","",""
2.0,0.07850944250822067,0.0002824452848991816,"train",8140.0,"2021-11-28 20:48:19.497638","","","","","","",""
2.0,0.10302804410457611,0.00028340456707559494,"train",8160.0,"2021-11-28 20:48:23.488582","","","","","","",""
2.0,0.07498765736818314,0.0002843658474211957,"train",8180.0,"2021-11-28 20:48:27.045150","","","","","","",""
2.0,0.06336427479982376,0.0002853291233972414,"train",8200.0,"2021-11-28 20:48:30.674459","","","","","","",""
2.0,0.06365623325109482,0.0002862943924597191,"train",8220.0,"2021-11-28 20:48:34.713208","","","","","","",""
2.0,0.11731825023889542,0.0002872616520593527,"train",8240.0,"2021-11-28 20:48:38.358553","","","","","","",""
2.0,0.06704048067331314,0.0002882308996416088,"train",8260.0,"2021-11-28 20:48:42.001762","","","","","","",""
2.0,0.08804098516702652,0.00028920213264670386,"train",8280.0,"2021-11-28 20:48:46.160588","","","","","","",""
2.0,0.07570704817771912,0.0002901753485096102,"train",8300.0,"2021-11-28 20:48:49.794116","","","","","","",""
2.0,0.08487746864557266,0.0002911505446600638,"train",8320.0,"2021-11-28 20:48:53.439736","","","","","","",""
2.0,0.07559073716402054,0.0002921277185225716,"train",8340.0,"2021-11-28 20:48:57.432093","","","","","","",""
2.0,0.11260984092950821,0.0002931068675164159,"train",8360.0,"2021-11-28 20:49:00.965681","","","","","","",""
2.0,0.1055637001991272,0.0002940879890556635,"train",8380.0,"2021-11-28 20:49:04.913834","","","","","","",""
2.0,0.03539382293820381,0.00029507108054917176,"train",8400.0,"2021-11-28 20:49:08.471522","","","","","","",""
2.0,0.06061888858675957,0.00029605613940059507,"train",8420.0,"2021-11-28 20:49:12.005273","","","","","","",""
2.0,0.06364108622074127,0.00029704316300839225,"train",8440.0,"2021-11-28 20:49:15.955495","","","","","","",""
2.0,0.03933871164917946,0.0002980321487658327,"train",8460.0,"2021-11-28 20:49:19.556861","","","","","","",""
2.0,0.0968463271856308,0.0002990230940610047,"train",8480.0,"2021-11-28 20:49:23.083342","","","","","","",""
2.0,0.10093994438648224,0.00030001599627682085,"train",8500.0,"2021-11-28 20:49:27.031986","","","","","","",""
2.0,0.09698747098445892,0.0003010108527910253,"train",8520.0,"2021-11-28 20:49:30.676032","","","","","","",""
2.0,0.08402232825756073,0.00030200766097620104,"train",8540.0,"2021-11-28 20:49:34.321902","","","","","","",""
2.0,0.06568899005651474,0.0003030064181997773,"train",8560.0,"2021-11-28 20:49:38.398512","","","","","","",""
2.0,0.08079495280981064,0.0003040071218240346,"train",8580.0,"2021-11-28 20:49:42.093622","","","","","","",""
2.0,"","","val",8592.0,"2021-11-28 20:50:14.096052",0.5003479067609881,0.38495744713679536,0.8764348636614254,0.4695018103639553,0.3022237874886264,0.3054743540902176,0.19764722198187698
3.0,0.07017802447080612,0.0003050097692061148,"train",8600.0,"2021-11-28 20:50:18.620002","","","","","","",""
3.0,0.08984006196260452,0.0003060143576980247,"train",8620.0,"2021-11-28 20:50:22.700033","","","","","","",""
3.0,0.10509432107210159,0.0003070208846466451,"train",8640.0,"2021-11-28 20:50:26.394271","","","","","","",""
3.0,0.07937446981668472,0.0003080293473937377,"train",8660.0,"2021-11-28 20:50:30.070910","","","","","","",""
3.0,0.10637819021940231,0.00030903974327595196,"train",8680.0,"2021-11-28 20:50:34.200965","","","","","","",""
3.0,0.09977387636899948,0.00031005206962483075,"train",8700.0,"2021-11-28 20:50:37.835682","","","","","","",""
3.0,0.09501952677965164,0.0003110663237668196,"train",8720.0,"2021-11-28 20:50:41.862068","","","","","","",""
3.0,0.12228256464004517,0.0003120825030232723,"train",8740.0,"2021-11-28 20:50:45.486458","","","","","","",""
3.0,0.08223085105419159,0.000313100604710459,"train",8760.0,"2021-11-28 20:50:49.159403","","","","","","",""
3.0,0.07545142620801926,0.00031412062613957203,"train",8780.0,"2021-11-28 20:50:53.199102","","","","","","",""
3.0,0.0746966153383255,0.0003151425646167336,"train",8800.0,"2021-11-28 20:50:56.835368","","","","","","",""
3.0,0.0675567165017128,0.00031616641744300366,"train",8820.0,"2021-11-28 20:51:00.853451","","","","","","",""
3.0,0.07047189772129059,0.0003171921819143859,"train",8840.0,"2021-11-28 20:51:04.392209","","","","","","",""
3.0,0.07705173641443253,0.00031821985532183594,"train",8860.0,"2021-11-28 20:51:07.927243","","","","","","",""
3.0,0.09542912989854813,0.0003192494349512666,"train",8880.0,"2021-11-28 20:51:11.932301","","","","","","",""
3.0,0.1038716733455658,0.0003202809180835578,"train",8900.0,"2021-11-28 20:51:15.507395","","","","","","",""
3.0,0.06568395346403122,0.0003213143019945618,"train",8920.0,"2021-11-28 20:51:19.431041","","","","","","",""
3.0,0.0873967781662941,0.00032234958395511016,"train",8940.0,"2021-11-28 20:51:22.999499","","","","","","",""
3.0,0.09090350568294525,0.0003233867612310226,"train",8960.0,"2021-11-28 20:51:26.601624","","","","","","",""
3.0,0.0961303561925888,0.0003244258310831135,"train",8980.0,"2021-11-28 20:51:30.602394","","","","","","",""
3.0,0.12917403876781464,0.00032546679076719777,"train",9000.0,"2021-11-28 20:51:34.220526","","","","","","",""
3.0,0.12462382763624191,0.0003265096375341006,"train",9020.0,"2021-11-28 20:51:37.802103","","","","","","",""
3.0,0.054873548448085785,0.00032755436862966225,"train",9040.0,"2021-11-28 20:51:41.834578","","","","","","",""
3.0,0.07695737481117249,0.00032860098129474757,"train",9060.0,"2021-11-28 20:51:45.470477","","","","","","",""
3.0,0.089487724006176,0.000329649472765251,"train",9080.0,"2021-11-28 20:51:49.527201","","","","","","",""
3.0,0.07565820217132568,0.0003306998402721065,"train",9100.0,"2021-11-28 20:51:53.060838","","","","","","",""
3.0,0.09706388413906097,0.0003317520810412918,"train",9120.0,"2021-11-28 20:51:56.612047","","","","","","",""
3.0,0.11266309767961502,0.00033280619229383835,"train",9140.0,"2021-11-28 20:52:00.576933","","","","","","",""
3.0,0.08930405974388123,0.0003338621712458375,"train",9160.0,"2021-11-28 20:52:04.109272","","","","","","",""
3.0,0.051370903849601746,0.0003349200151084482,"train",9180.0,"2021-11-28 20:52:08.064434","","","","","","",""
3.0,0.10182542353868484,0.0003359797210879033,"train",9200.0,"2021-11-28 20:52:11.597920","","","","","","",""
3.0,0.06826288998126984,0.000337041286385519,"train",9220.0,"2021-11-28 20:52:15.176680","","","","","","",""
3.0,0.08917559683322906,0.0003381047081976998,"train",9240.0,"2021-11-28 20:52:19.224335","","","","","","",""
3.0,0.07669659703969955,0.0003391699837159484,"train",9260.0,"2021-11-28 20:52:22.885863","","","","","","",""
3.0,0.08847605437040329,0.0003402371101268711,"train",9280.0,"2021-11-28 20:52:27.050507","","","","","","",""
3.0,0.0921337902545929,0.00034130608461218595,"train",9300.0,"2021-11-28 20:52:30.694174","","","","","","",""
3.0,0.1432085484266281,0.00034237690434873016,"train",9320.0,"2021-11-28 20:52:34.355504","","","","","","",""
3.0,0.10692846029996872,0.0003434495665084684,"train",9340.0,"2021-11-28 20:52:38.420242","","","","","","",""
3.0,0.10615867376327515,0.00034452406825849903,"train",9360.0,"2021-11-28 20:52:42.065663","","","","","","",""
3.0,0.07797446101903915,0.0003456004067610614,"train",9380.0,"2021-11-28 20:52:46.055831","","","","","","",""
3.0,0.073981374502182,0.00034667857917354506,"train",9400.0,"2021-11-28 20:52:49.710586","","","","","","",""
3.0,0.07849889248609543,0.00034775858264849595,"train",9420.0,"2021-11-28 20:52:53.346968","","","","","","",""
3.0,0.096390001475811,0.0003488404143336236,"train",9440.0,"2021-11-28 20:52:57.422374","","","","","","",""
3.0,0.09799458831548691,0.00034992407137180966,"train",9460.0,"2021-11-28 20:53:01.033667","","","","","","",""
3.0,0.08324043452739716,0.0003510095509011149,"train",9480.0,"2021-11-28 20:53:05.009882","","","","","","",""
3.0,0.08444914221763611,0.00035209685005478685,"train",9500.0,"2021-11-28 20:53:08.643197","","","","","","",""
3.0,0.07030493021011353,0.0003531859659612678,"train",9520.0,"2021-11-28 20:53:12.272393","","","","","","",""
3.0,0.08288099616765976,0.00035427689574420206,"train",9540.0,"2021-11-28 20:53:16.243312","","","","","","",""
3.0,0.05284102261066437,0.0003553696365224423,"train",9560.0,"2021-11-28 20:53:19.786877","","","","","","",""
3.0,0.09745655208826065,0.0003564641854100592,"train",9580.0,"2021-11-28 20:53:23.331273","","","","","","",""
3.0,0.1062430590391159,0.00035756053951634917,"train",9600.0,"2021-11-28 20:53:27.266463","","","","","","",""
3.0,0.07366165518760681,0.00035865869594583935,"train",9620.0,"2021-11-28 20:53:30.789973","","","","","","",""
3.0,0.08702875673770905,0.0003597586517982978,"train",9640.0,"2021-11-28 20:53:34.719407","","","","","","",""
3.0,0.05133119225502014,0.0003608604041687401,"train",9660.0,"2021-11-28 20:53:38.258399","","","","","","",""
3.0,0.09770837426185608,0.0003619639501474374,"train",9680.0,"2021-11-28 20:53:41.795051","","","","","","",""
3.0,0.10999007523059845,0.00036306928681992365,"train",9700.0,"2021-11-28 20:53:45.766920","","","","","","",""
3.0,0.06620247662067413,0.0003641764112670041,"train",9720.0,"2021-11-28 20:53:49.344277","","","","","","",""
3.0,0.10182014107704163,0.0003652853205647617,"train",9740.0,"2021-11-28 20:53:53.337774","","","","","","",""
3.0,0.05889653041958809,0.00036639601178456655,"train",9760.0,"2021-11-28 20:53:56.883562","","","","","","",""
3.0,0.08703804016113281,0.00036750848199308185,"train",9780.0,"2021-11-28 20:54:00.434175","","","","","","",""
3.0,0.06990744918584824,0.0003686227282522728,"train",9800.0,"2021-11-28 20:54:04.477055","","","","","","",""
3.0,0.07147616893053055,0.0003697387476194142,"train",9820.0,"2021-11-28 20:54:08.038335","","","","","","",""
3.0,0.0677189975976944,0.00037085653714709777,"train",9840.0,"2021-11-28 20:54:12.004173","","","","","","",""
3.0,0.11744377017021179,0.0003719760938832406,"train",9860.0,"2021-11-28 20:54:15.557720","","","","","","",""
3.0,0.09612386673688889,0.0003730974148710923,"train",9880.0,"2021-11-28 20:54:19.150241","","","","","","",""
3.0,0.11823102831840515,0.0003742204971492436,"train",9900.0,"2021-11-28 20:54:23.135328","","","","","","",""
3.0,0.11877797544002533,0.00037534533775163245,"train",9920.0,"2021-11-28 20:54:26.668247","","","","","","",""
3.0,0.05258903652429581,0.0003764719337075544,"train",9940.0,"2021-11-28 20:54:30.640089","","","","","","",""
3.0,0.07641877233982086,0.0003776002820416683,"train",9960.0,"2021-11-28 20:54:34.235150","","","","","","",""
3.0,0.08609866350889206,0.0003787303797740055,"train",9980.0,"2021-11-28 20:54:37.853956","","","","","","",""
3.0,0.08147939294576645,0.00037986222391997687,"train",10000.0,"2021-11-28 20:54:41.814032","","","","","","",""
3.0,0.09406622499227524,0.0003809958114903806,"train",10020.0,"2021-11-28 20:54:45.354718","","","","","","",""
3.0,0.05625581741333008,0.00038213113949141166,"train",10040.0,"2021-11-28 20:54:48.971794","","","","","","",""
3.0,0.0674583837389946,0.00038326820492466706,"train",10060.0,"2021-11-28 20:54:53.086760","","","","","","",""
3.0,0.05584512650966644,0.0003844070047871568,"train",10080.0,"2021-11-28 20:54:56.621513","","","","","","",""
3.0,0.10967709869146347,0.00038554753607130884,"train",10100.0,"2021-11-28 20:55:00.573394","","","","","","",""
3.0,0.055522650480270386,0.0003866897957649797,"train",10120.0,"2021-11-28 20:55:04.146279","","","","","","",""
3.0,0.06423177570104599,0.00038783378085145985,"train",10140.0,"2021-11-28 20:55:07.727046","","","","","","",""
3.0,0.08705341070890427,0.0003889794883094838,"train",10160.0,"2021-11-28 20:55:11.805499","","","","","","",""
3.0,0.06552136689424515,0.00039012691511323776,"train",10180.0,"2021-11-28 20:55:15.439203","","","","","","",""
3.0,0.06402259320020676,0.00039127605823236584,"train",10200.0,"2021-11-28 20:55:19.485979","","","","","","",""
3.0,0.09105213731527328,0.0003924269146319808,"train",10220.0,"2021-11-28 20:55:23.063922","","","","","","",""
3.0,0.0962987020611763,0.00039357948127266974,"train",10240.0,"2021-11-28 20:55:26.611357","","","","","","",""
3.0,0.09130329638719559,0.0003947337551105023,"train",10260.0,"2021-11-28 20:55:30.589952","","","","","","",""
3.0,0.07649120688438416,0.00039588973309704137,"train",10280.0,"2021-11-28 20:55:34.139337","","","","","","",""
3.0,0.0889352560043335,0.0003970474121793477,"train",10300.0,"2021-11-28 20:55:38.154490","","","","","","",""
3.0,0.07389559596776962,0.0003982067892999894,"train",10320.0,"2021-11-28 20:55:41.697257","","","","","","",""
3.0,0.09428234398365021,0.0003993678613970512,"train",10340.0,"2021-11-28 20:55:45.321820","","","","","","",""
3.0,0.11401193588972092,0.00040053062540414044,"train",10360.0,"2021-11-28 20:55:49.340425","","","","","","",""
3.0,0.07738353312015533,0.0004016950782503965,"train",10380.0,"2021-11-28 20:55:52.992194","","","","","","",""
3.0,0.10098697990179062,0.0004028612168604979,"train",10400.0,"2021-11-28 20:55:57.071999","","","","","","",""
3.0,0.09771142154932022,0.0004040290381546719,"train",10420.0,"2021-11-28 20:56:00.667464","","","","","","",""
3.0,0.06399264186620712,0.000405198539048702,"train",10440.0,"2021-11-28 20:56:04.185268","","","","","","",""
3.0,0.12483028322458267,0.00040636971645393433,"train",10460.0,"2021-11-28 20:56:08.071183","","","","","","",""
3.0,0.09250377863645554,0.00040754256727728927,"train",10480.0,"2021-11-28 20:56:11.566392","","","","","","",""
3.0,0.09181755036115646,0.00040871708842126603,"train",10500.0,"2021-11-28 20:56:15.518733","","","","","","",""
3.0,0.08454184979200363,0.00040989327678395376,"train",10520.0,"2021-11-28 20:56:19.160768","","","","","","",""
3.0,0.11718558520078659,0.00041107112925903777,"train",10540.0,"2021-11-28 20:56:22.796647","","","","","","",""
3.0,0.06916510313749313,0.0004122506427358089,"train",10560.0,"2021-11-28 20:56:26.813823","","","","","","",""
3.0,0.08432867377996445,0.0004134318140991706,"train",10580.0,"2021-11-28 20:56:30.426548","","","","","","",""
3.0,0.09459469467401505,0.0004146146402296486,"train",10600.0,"2021-11-28 20:56:34.110473","","","","","","",""
3.0,0.07413579523563385,0.0004157991180033982,"train",10620.0,"2021-11-28 20:56:38.128678","","","","","","",""
3.0,0.06558717042207718,0.00041698524429221247,"train",10640.0,"2021-11-28 20:56:41.751081","","","","","","",""
3.0,0.08816651999950409,0.0004181730159635306,"train",10660.0,"2021-11-28 20:56:45.773219","","","","","","",""
3.0,0.050603676587343216,0.00041936242988044694,"train",10680.0,"2021-11-28 20:56:49.394721","","","","","","",""
3.0,0.08922025561332703,0.00042055348290171834,"train",10700.0,"2021-11-28 20:56:53.019171","","","","","","",""
3.0,0.09175010770559311,0.00042174617188177224,"train",10720.0,"2021-11-28 20:56:57.064896","","","","","","",""
3.0,0.055310774594545364,0.0004229404936707164,"train",10740.0,"2021-11-28 20:57:00.698006","","","","","","",""
3.0,0.08036822825670242,0.0004241364451143461,"train",10760.0,"2021-11-28 20:57:04.745996","","","","","","",""
3.0,0.10808460414409637,0.0004253340230541524,"train",10780.0,"2021-11-28 20:57:08.336429","","","","","","",""
3.0,0.0825057178735733,0.000426533224327331,"train",10800.0,"2021-11-28 20:57:11.871869","","","","","","",""
3.0,0.09057975560426712,0.00042773404576679,"train",10820.0,"2021-11-28 20:57:15.790875","","","","","","",""
3.0,0.07970481365919113,0.0004289364842011592,"train",10840.0,"2021-11-28 20:57:19.349616","","","","","","",""
3.0,0.09685393422842026,0.00043014053645479755,"train",10860.0,"2021-11-28 20:57:23.285879","","","","","","",""
3.0,0.08947446942329407,0.00043134619934780236,"train",10880.0,"2021-11-28 20:57:26.823870","","","","","","",""
3.0,0.1066119521856308,0.00043255346969601626,"train",10900.0,"2021-11-28 20:57:30.354680","","","","","","",""
3.0,0.11865109950304031,0.0004337623443110379,"train",10920.0,"2021-11-28 20:57:34.332034","","","","","","",""
3.0,0.08573880791664124,0.0004349728200002279,"train",10940.0,"2021-11-28 20:57:37.876681","","","","","","",""
3.0,0.05498060956597328,0.00043618489356671893,"train",10960.0,"2021-11-28 20:57:41.854746","","","","","","",""
3.0,0.06956354528665543,0.00043739856180942437,"train",10980.0,"2021-11-28 20:57:45.472423","","","","","","",""
3.0,0.07142370194196701,0.0004386138215230445,"train",11000.0,"2021-11-28 20:57:49.116438","","","","","","",""
3.0,0.060287293046712875,0.00043983066949807785,"train",11020.0,"2021-11-28 20:57:53.101495","","","","","","",""
3.0,0.10860908031463623,0.00044104910252082733,"train",11040.0,"2021-11-28 20:57:56.618993","","","","","","",""
3.0,0.0853695422410965,0.0004422691173734108,"train",11060.0,"2021-11-28 20:58:00.143029","","","","","","",""
3.0,0.08007997274398804,0.0004434907108337683,"train",11080.0,"2021-11-28 20:58:04.082526","","","","","","",""
3.0,0.1139032393693924,0.00044471387967566956,"train",11100.0,"2021-11-28 20:58:07.660690","","","","","","",""
3.0,0.08482692390680313,0.0004459386206687253,"train",11120.0,"2021-11-28 20:58:11.618871","","","","","","",""
3.0,0.06525503098964691,0.0004471649305783929,"train",11140.0,"2021-11-28 20:58:15.171194","","","","","","",""
3.0,0.1189664974808693,0.00044839280616598763,"train",11160.0,"2021-11-28 20:58:18.720996","","","","","","",""
3.0,0.07665489614009857,0.00044962224418868837,"train",11180.0,"2021-11-28 20:58:22.650117","","","","","","",""
3.0,0.08081384748220444,0.00045085324139954855,"train",11200.0,"2021-11-28 20:58:26.174939","","","","","","",""
3.0,0.08521348983049393,0.0004520857945475034,"train",11220.0,"2021-11-28 20:58:30.091260","","","","","","",""
3.0,0.08968602865934372,0.0004533199003773792,"train",11240.0,"2021-11-28 20:58:33.630361","","","","","","",""
3.0,0.12297060340642929,0.00045455555562990075,"train",11260.0,"2021-11-28 20:58:37.187949","","","","","","",""
3.0,0.0929914265871048,0.0004557927570417021,"train",11280.0,"2021-11-28 20:58:41.238102","","","","","","",""
3.0,0.0801551565527916,0.0004570315013453334,"train",11300.0,"2021-11-28 20:58:44.852584","","","","","","",""
3.0,0.09122062474489212,0.0004582717852692692,"train",11320.0,"2021-11-28 20:58:48.930683","","","","","","",""
3.0,0.0666743665933609,0.0004595136055379188,"train",11340.0,"2021-11-28 20:58:52.509977","","","","","","",""
3.0,0.0741892158985138,0.0004607569588716343,"train",11360.0,"2021-11-28 20:58:56.036004","","","","","","",""
3.0,0.07887712866067886,0.00046200184198671806,"train",11380.0,"2021-11-28 20:59:00.009158","","","","","","",""
3.0,0.08011732995510101,0.00046324825159543273,"train",11400.0,"2021-11-28 20:59:03.610845","","","","","","",""
3.0,0.07648315280675888,0.00046449618440600957,"train",11420.0,"2021-11-28 20:59:07.563996","","","","","","",""
3.0,0.09646260738372803,0.000465745637122657,"train",11440.0,"2021-11-28 20:59:11.096500","","","","","","",""
3.0,"","","val",11456.0,"2021-11-28 20:59:43.935070",0.5113069697321118,0.4363855437794419,0.8953419213429594,0.5055645833053053,0.34547127384335535,0.34785888092005723,0.22533013289589876
4.0,0.08358581364154816,0.000466996606445569,"train",11460.0,"2021-11-28 20:59:47.699352","","","","","","",""
4.0,0.06645219773054123,0.0004682490890709351,"train",11480.0,"2021-11-28 20:59:51.765697","","","","","","",""
4.0,0.09593024849891663,0.0004695030816909468,"train",11500.0,"2021-11-28 20:59:55.301122","","","","","","",""
4.0,0.07849270850419998,0.0004707585809938092,"train",11520.0,"2021-11-28 20:59:59.261785","","","","","","",""
4.0,0.0918770581483841,0.0004720155836637472,"train",11540.0,"2021-11-28 21:00:02.791202","","","","","","",""
4.0,0.08923567831516266,0.00047327408638101593,"train",11560.0,"2021-11-28 21:00:06.700753","","","","","","",""
4.0,0.09511642158031464,0.0004745340858219086,"train",11580.0,"2021-11-28 21:00:10.235798","","","","","","",""
4.0,0.08378416299819946,0.00047579557865876543,"train",11600.0,"2021-11-28 21:00:13.773867","","","","","","",""
4.0,0.0925687700510025,0.0004770585615599828,"train",11620.0,"2021-11-28 21:00:17.708947","","","","","","",""
4.0,0.0723314881324768,0.0004783230311900214,"train",11640.0,"2021-11-28 21:00:21.308255","","","","","","",""
4.0,0.07516217976808548,0.00047958898420941685,"train",11660.0,"2021-11-28 21:00:25.335430","","","","","","",""
4.0,0.060972630977630615,0.00048085641727478546,"train",11680.0,"2021-11-28 21:00:28.970577","","","","","","",""
4.0,0.1254272758960724,0.0004821253270388358,"train",11700.0,"2021-11-28 21:00:32.997341","","","","","","",""
4.0,0.08337012678384781,0.0004833957101503753,"train",11720.0,"2021-11-28 21:00:36.674526","","","","","","",""
4.0,0.09759482741355896,0.0004846675632543217,"train",11740.0,"2021-11-28 21:00:40.814531","","","","","","",""
4.0,0.07772260904312134,0.00048594088299171016,"train",11760.0,"2021-11-28 21:00:44.459763","","","","","","",""
4.0,0.09834487736225128,0.0004872156659997014,"train",11780.0,"2021-11-28 21:00:48.079976","","","","","","",""
4.0,0.10402317345142365,0.0004884919089115929,"train",11800.0,"2021-11-28 21:00:52.061155","","","","","","",""
4.0,0.05010095611214638,0.0004897696083568258,"train",11820.0,"2021-11-28 21:00:55.620221","","","","","","",""
4.0,0.07425478100776672,0.000491048760960995,"train",11840.0,"2021-11-28 21:00:59.690946","","","","","","",""
4.0,0.07323316484689713,0.000492329363345857,"train",11860.0,"2021-11-28 21:01:03.255363","","","","","","",""
4.0,0.10772497206926346,0.0004936114121293401,"train",11880.0,"2021-11-28 21:01:07.225580","","","","","","",""
4.0,0.07154013961553574,0.0004948949039255523,"train",11900.0,"2021-11-28 21:01:10.773937","","","","","","",""
4.0,0.07767505943775177,0.000496179835344791,"train",11920.0,"2021-11-28 21:01:14.721084","","","","","","",""
4.0,0.06385057419538498,0.0004974662029935506,"train",11940.0,"2021-11-28 21:01:18.263855","","","","","","",""
4.0,0.0515943318605423,0.0004987540034745335,"train",11960.0,"2021-11-28 21:01:21.816336","","","","","","",""
4.0,0.08313431590795517,0.0005000432333866572,"train",11980.0,"2021-11-28 21:01:25.775846","","","","","","",""
4.0,0.06870973855257034,0.0005013338893250644,"train",12000.0,"2021-11-28 21:01:29.337101","","","","","","",""
4.0,0.09668625146150589,0.000502625967881132,"train",12020.0,"2021-11-28 21:01:33.368444","","","","","","",""
4.0,0.06437201797962189,0.0005039194656424792,"train",12040.0,"2021-11-28 21:01:36.925537","","","","","","",""
4.0,0.07783343642950058,0.0005052143791929775,"train",12060.0,"2021-11-28 21:01:40.881782","","","","","","",""
4.0,0.11306691914796829,0.0005065107051127587,"train",12080.0,"2021-11-28 21:01:44.431509","","","","","","",""
4.0,0.058163415640592575,0.0005078084399782255,"train",12100.0,"2021-11-28 21:01:48.442820","","","","","","",""
4.0,0.08037719130516052,0.0005091075803620587,"train",12120.0,"2021-11-28 21:01:51.985400","","","","","","",""
4.0,0.06227712333202362,0.000510408122833227,"train",12140.0,"2021-11-28 21:01:55.517428","","","","","","",""
4.0,0.08080701529979706,0.0005117100639569973,"train",12160.0,"2021-11-28 21:01:59.485747","","","","","","",""
4.0,0.11346330493688583,0.0005130134002949414,"train",12180.0,"2021-11-28 21:02:03.121575","","","","","","",""
4.0,0.12436734884977341,0.0005143181284049479,"train",12200.0,"2021-11-28 21:02:07.179576","","","","","","",""
4.0,0.053947191685438156,0.0005156242448412275,"train",12220.0,"2021-11-28 21:02:10.870934","","","","","","",""
4.0,0.08449554443359375,0.0005169317461543262,"train",12240.0,"2021-11-28 21:02:14.924755","","","","","","",""
4.0,0.08874084800481796,0.000518240628891132,"train",12260.0,"2021-11-28 21:02:18.542852","","","","","","",""
4.0,0.08576443791389465,0.000519550889594884,"train",12280.0,"2021-11-28 21:02:22.583853","","","","","","",""
4.0,0.06917251646518707,0.0005208625248051834,"train",12300.0,"2021-11-28 21:02:26.209675","","","","","","",""
4.0,0.10419894754886627,0.0005221755310579998,"train",12320.0,"2021-11-28 21:02:29.846086","","","","","","",""
4.0,0.061809565871953964,0.0005234899048856825,"train",12340.0,"2021-11-28 21:02:33.902047","","","","","","",""
4.0,0.10139920562505722,0.0005248056428169695,"train",12360.0,"2021-11-28 21:02:37.549162","","","","","","",""
4.0,0.05517622083425522,0.0005261227413769956,"train",12380.0,"2021-11-28 21:02:41.625250","","","","","","",""
4.0,0.0636475533246994,0.0005274411970873024,"train",12400.0,"2021-11-28 21:02:45.301313","","","","","","",""
4.0,0.0803941860795021,0.0005287610064658472,"train",12420.0,"2021-11-28 21:02:49.387473","","","","","","",""
4.0,0.12296499311923981,0.0005300821660270123,"train",12440.0,"2021-11-28 21:02:53.092364","","","","","","",""
4.0,0.050726380199193954,0.0005314046722816139,"train",12460.0,"2021-11-28 21:02:57.098743","","","","","","",""
4.0,0.09178691357374191,0.0005327285217369127,"train",12480.0,"2021-11-28 21:03:00.656437","","","","","","",""
4.0,0.11084757000207901,0.00053405371089662,"train",12500.0,"2021-11-28 21:03:04.216181","","","","","","",""
4.0,0.09330287575721741,0.0005353802362609112,"train",12520.0,"2021-11-28 21:03:08.171184","","","","","","",""
4.0,0.09805135428905487,0.0005367080943264309,"train",12540.0,"2021-11-28 21:03:11.728793","","","","","","",""
4.0,0.06275288015604019,0.0005380372815863052,"train",12560.0,"2021-11-28 21:03:15.680222","","","","","","",""
4.0,0.08447612076997757,0.0005393677945301494,"train",12580.0,"2021-11-28 21:03:19.225220","","","","","","",""
4.0,0.07562179863452911,0.0005406996296440771,"train",12600.0,"2021-11-28 21:03:23.161846","","","","","","",""
4.0,0.1053888127207756,0.0005420327834107111,"train",12620.0,"2021-11-28 21:03:26.737282","","","","","","",""
4.0,0.10145068913698196,0.0005433672523091917,"train",12640.0,"2021-11-28 21:03:30.722104","","","","","","",""
4.0,0.0889224037528038,0.0005447030328151843,"train",12660.0,"2021-11-28 21:03:34.328384","","","","","","",""
4.0,0.0613081231713295,0.0005460401214008924,"train",12680.0,"2021-11-28 21:03:37.870077","","","","","","",""
4.0,0.09305478632450104,0.000547378514535063,"train",12700.0,"2021-11-28 21:03:41.821249","","","","","","",""
4.0,0.11296296864748001,0.0005487182086829992,"train",12720.0,"2021-11-28 21:03:45.340658","","","","","","",""
4.0,0.07525613903999329,0.0005500592003065679,"train",12740.0,"2021-11-28 21:03:49.288394","","","","","","",""
4.0,0.07430817186832428,0.0005514014858642086,"train",12760.0,"2021-11-28 21:03:52.841934","","","","","","",""
4.0,0.07277501374483109,0.0005527450618109438,"train",12780.0,"2021-11-28 21:03:56.884424","","","","","","",""
4.0,0.08170528709888458,0.000554089924598389,"train",12800.0,"2021-11-28 21:04:00.426945","","","","","","",""
4.0,0.059477586299180984,0.00055543607067476,"train",12820.0,"2021-11-28 21:04:04.364766","","","","","","",""
4.0,0.06010371074080467,0.0005567834964848837,"train",12840.0,"2021-11-28 21:04:07.962820","","","","","","",""
4.0,0.06776468455791473,0.0005581321984702075,"train",12860.0,"2021-11-28 21:04:11.585659","","","","","","",""
4.0,0.09427273273468018,0.0005594821730688085,"train",12880.0,"2021-11-28 21:04:15.613163","","","","","","",""
4.0,0.09058272838592529,0.0005608334167154024,"train",12900.0,"2021-11-28 21:04:19.256805","","","","","","",""
4.0,0.08023261278867722,0.0005621859258413537,"train",12920.0,"2021-11-28 21:04:23.202397","","","","","","",""
4.0,0.07887902110815048,0.0005635396968746845,"train",12940.0,"2021-11-28 21:04:26.744466","","","","","","",""
4.0,0.05696786567568779,0.0005648947262400844,"train",12960.0,"2021-11-28 21:04:30.737684","","","","","","",""
4.0,0.09083401411771774,0.0005662510103589199,"train",12980.0,"2021-11-28 21:04:34.267690","","","","","","",""
4.0,0.0951378270983696,0.0005676085456492433,"train",13000.0,"2021-11-28 21:04:38.303058","","","","","","",""
4.0,0.09597580134868622,0.0005689673285258028,"train",13020.0,"2021-11-28 21:04:41.868883","","","","","","",""
4.0,0.07323465496301651,0.0005703273554000512,"train",13040.0,"2021-11-28 21:04:45.514070","","","","","","",""
4.0,0.03539358824491501,0.0005716886226801571,"train",13060.0,"2021-11-28 21:04:49.540923","","","","","","",""
4.0,0.12288524210453033,0.0005730511267710119,"train",13080.0,"2021-11-28 21:04:53.173180","","","","","","",""
4.0,0.10199064016342163,0.0005744148640742413,"train",13100.0,"2021-11-28 21:04:57.209815","","","","","","",""
4.0,0.08538759499788284,0.0005757798309882142,"train",13120.0,"2021-11-28 21:05:00.849794","","","","","","",""
4.0,0.05622168257832527,0.0005771460239080513,"train",13140.0,"2021-11-28 21:05:04.892146","","","","","","",""
4.0,0.08614426106214523,0.000578513439225636,"train",13160.0,"2021-11-28 21:05:08.500855","","","","","","",""
4.0,0.09410085529088974,0.0005798820733296237,"train",13180.0,"2021-11-28 21:05:12.546148","","","","","","",""
4.0,0.06463625282049179,0.0005812519226054502,"train",13200.0,"2021-11-28 21:05:16.179250","","","","","","",""
4.0,0.09161147475242615,0.0005826229834353428,"train",13220.0,"2021-11-28 21:05:19.806983","","","","","","",""
4.0,0.09565509110689163,0.0005839952521983279,"train",13240.0,"2021-11-28 21:05:23.800459","","","","","","",""
4.0,0.09945371747016907,0.0005853687252702431,"train",13260.0,"2021-11-28 21:05:27.416293","","","","","","",""
4.0,0.08535829186439514,0.0005867433990237451,"train",13280.0,"2021-11-28 21:05:31.431295","","","","","","",""
4.0,0.09136661887168884,0.0005881192698283183,"train",13300.0,"2021-11-28 21:05:35.028838","","","","","","",""
4.0,0.06439530849456787,0.000589496334050288,"train",13320.0,"2021-11-28 21:05:38.993442","","","","","","",""
4.0,0.12802211940288544,0.0005908745880528253,"train",13340.0,"2021-11-28 21:05:42.559214","","","","","","",""
4.0,0.040887147188186646,0.0005922540281959609,"train",13360.0,"2021-11-28 21:05:46.652381","","","","","","",""
4.0,0.0756736621260643,0.0005936346508365921,"train",13380.0,"2021-11-28 21:05:50.321046","","","","","","",""
4.0,0.13314005732536316,0.0005950164523284933,"train",13400.0,"2021-11-28 21:05:53.948783","","","","","","",""
4.0,0.099540114402771,0.0005963994290223251,"train",13420.0,"2021-11-28 21:05:57.973218","","","","","","",""
4.0,0.0873691514134407,0.0005977835772656454,"train",13440.0,"2021-11-28 21:06:01.566600","","","","","","",""
4.0,0.09580712765455246,0.0005991688934029176,"train",13460.0,"2021-11-28 21:06:05.595916","","","","","","",""
4.0,0.09321655333042145,0.0006005553737755201,"train",13480.0,"2021-11-28 21:06:09.239344","","","","","","",""
4.0,0.08166112750768661,0.0006019430147217572,"train",13500.0,"2021-11-28 21:06:13.298113","","","","","","",""
4.0,0.10490857809782028,0.0006033318125768683,"train",13520.0,"2021-11-28 21:06:16.941289","","","","","","",""
4.0,0.10222817957401276,0.0006047217636730366,"train",13540.0,"2021-11-28 21:06:20.959363","","","","","","",""
4.0,0.09335941821336746,0.0006061128643394006,"train",13560.0,"2021-11-28 21:06:24.584886","","","","","","",""
4.0,0.06424112617969513,0.000607505110902062,"train",13580.0,"2021-11-28 21:06:28.197987","","","","","","",""
4.0,0.05783922225236893,0.0006088984996840958,"train",13600.0,"2021-11-28 21:06:32.163781","","","","","","",""
4.0,0.05946444347500801,0.0006102930270055623,"train",13620.0,"2021-11-28 21:06:35.728391","","","","","","",""
4.0,0.06485706567764282,0.0006116886891835125,"train",13640.0,"2021-11-28 21:06:39.700830","","","","","","",""
4.0,0.11989087611436844,0.0006130854825320022,"train",13660.0,"2021-11-28 21:06:43.243934","","","","","","",""
4.0,0.08529823273420334,0.0006144834033620984,"train",13680.0,"2021-11-28 21:06:47.267961","","","","","","",""
4.0,0.06489506363868713,0.000615882447981891,"train",13700.0,"2021-11-28 21:06:50.882188","","","","","","",""
4.0,0.06806286424398422,0.0006172826126965025,"train",13720.0,"2021-11-28 21:06:54.981056","","","","","","",""
4.0,0.0700906366109848,0.0006186838938080964,"train",13740.0,"2021-11-28 21:06:58.529942","","","","","","",""
4.0,0.10714171826839447,0.0006200862876158881,"train",13760.0,"2021-11-28 21:07:02.066470","","","","","","",""
4.0,0.0856861025094986,0.0006214897904161538,"train",13780.0,"2021-11-28 21:07:05.992631","","","","","","",""
4.0,0.06532017886638641,0.0006228943985022424,"train",13800.0,"2021-11-28 21:07:09.529097","","","","","","",""
4.0,0.08386164158582687,0.000624300108164582,"train",13820.0,"2021-11-28 21:07:13.490361","","","","","","",""
4.0,0.07097069174051285,0.0006257069156906923,"train",13840.0,"2021-11-28 21:07:17.050826","","","","","","",""
4.0,0.108635313808918,0.000627114817365194,"train",13860.0,"2021-11-28 21:07:21.023637","","","","","","",""
4.0,0.06175597757101059,0.0006285238094698165,"train",13880.0,"2021-11-28 21:07:24.566174","","","","","","",""
4.0,0.11126210540533066,0.0006299338882834113,"train",13900.0,"2021-11-28 21:07:28.479911","","","","","","",""
4.0,0.08464853465557098,0.0006313450500819589,"train",13920.0,"2021-11-28 21:07:32.034494","","","","","","",""
4.0,0.06622368097305298,0.0006327572911385797,"train",13940.0,"2021-11-28 21:07:35.669652","","","","","","",""
4.0,0.09763025492429733,0.0006341706077235435,"train",13960.0,"2021-11-28 21:07:39.695530","","","","","","",""
4.0,0.05051898583769798,0.0006355849961042805,"train",13980.0,"2021-11-28 21:07:43.320276","","","","","","",""
4.0,0.09413759410381317,0.0006370004525453896,"train",14000.0,"2021-11-28 21:07:47.336945","","","","","","",""
4.0,0.0717579647898674,0.0006384169733086493,"train",14020.0,"2021-11-28 21:07:50.982245","","","","","","",""
4.0,0.08861137181520462,0.0006398345546530263,"train",14040.0,"2021-11-28 21:07:55.018204","","","","","","",""
4.0,0.05628049001097679,0.0006412531928346882,"train",14060.0,"2021-11-28 21:07:58.666820","","","","","","",""
4.0,0.12171191722154617,0.0006426728841070093,"train",14080.0,"2021-11-28 21:08:02.732565","","","","","","",""
4.0,0.07801957428455353,0.0006440936247205846,"train",14100.0,"2021-11-28 21:08:06.316807","","","","","","",""
4.0,0.09284238517284393,0.0006455154109232366,"train",14120.0,"2021-11-28 21:08:09.939370","","","","","","",""
4.0,0.05883064866065979,0.0006469382389600261,"train",14140.0,"2021-11-28 21:08:13.891982","","","","","","",""
4.0,0.07174820452928543,0.0006483621050732639,"train",14160.0,"2021-11-28 21:08:17.481515","","","","","","",""
4.0,0.06405220180749893,0.0006497870055025179,"train",14180.0,"2021-11-28 21:08:21.511738","","","","","","",""
4.0,0.06623813509941101,0.0006512129364846253,"train",14200.0,"2021-11-28 21:08:25.098806","","","","","","",""
4.0,0.09308309108018875,0.0006526398942537004,"train",14220.0,"2021-11-28 21:08:29.056795","","","","","","",""
4.0,0.06438571214675903,0.0006540678750411473,"train",14240.0,"2021-11-28 21:08:32.663613","","","","","","",""
4.0,0.07221373170614243,0.0006554968750756666,"train",14260.0,"2021-11-28 21:08:36.740638","","","","","","",""
4.0,0.06495718657970428,0.0006569268905832692,"train",14280.0,"2021-11-28 21:08:40.325995","","","","","","",""
4.0,0.10805840790271759,0.0006583579177872822,"train",14300.0,"2021-11-28 21:08:43.889630","","","","","","",""
4.0,0.17781542241573334,0.0006597899529083614,"train",14320.0,"2021-11-28 21:08:47.751620","","","","","","",""
4.0,"","","val",14320.0,"2021-11-28 21:09:17.715850",0.5065522439986083,0.44813922337043366,0.9006775487186632,0.49831011399149816,0.33587892905382605,0.3395737534642698,0.22174193786141022
5.0,0.06526056677103043,0.0006612229921645009,"train",14340.0,"2021-11-28 21:09:24.471953","","","","","","",""
5.0,0.07401428371667862,0.0006626570317710429,"train",14360.0,"2021-11-28 21:09:28.515804","","","","","","",""
5.0,0.1140255555510521,0.0006640920679406876,"train",14380.0,"2021-11-28 21:09:32.071141","","","","","","",""
5.0,0.10332807153463364,0.0006655280968835035,"train",14400.0,"2021-11-28 21:09:36.027383","","","","","","",""
5.0,0.06102636456489563,0.0006669651148069364,"train",14420.0,"2021-11-28 21:09:39.584246","","","","","","",""
5.0,0.0701388269662857,0.0006684031179158211,"train",14440.0,"2021-11-28 21:09:43.706283","","","","","","",""
5.0,0.059997718781232834,0.0006698421024123901,"train",14460.0,"2021-11-28 21:09:47.352593","","","","","","",""
5.0,0.08330041170120239,0.000671282064496284,"train",14480.0,"2021-11-28 21:09:51.406481","","","","","","",""
5.0,0.0834079459309578,0.0006727230003645615,"train",14500.0,"2021-11-28 21:09:55.015919","","","","","","",""
5.0,0.11203257739543915,0.0006741649062117102,"train",14520.0,"2021-11-28 21:09:58.947947","","","","","","",""
5.0,0.08928974717855453,0.0006756077782296554,"train",14540.0,"2021-11-28 21:10:02.489748","","","","","","",""
5.0,0.0518612265586853,0.0006770516126077706,"train",14560.0,"2021-11-28 21:10:06.462956","","","","","","",""
5.0,0.04256826266646385,0.0006784964055328881,"train",14580.0,"2021-11-28 21:10:10.117061","","","","","","",""
5.0,0.08227138966321945,0.0006799421531893087,"train",14600.0,"2021-11-28 21:10:14.164212","","","","","","",""
5.0,0.06498663127422333,0.0006813888517588113,"train",14620.0,"2021-11-28 21:10:17.813937","","","","","","",""
5.0,0.06886443495750427,0.0006828364974206644,"train",14640.0,"2021-11-28 21:10:21.894214","","","","","","",""
5.0,0.10322453826665878,0.0006842850863516335,"train",14660.0,"2021-11-28 21:10:25.589372","","","","","","",""
5.0,0.05590272694826126,0.0006857346147259948,"train",14680.0,"2021-11-28 21:10:29.550119","","","","","","",""
5.0,0.09267289936542511,0.0006871850787155426,"train",14700.0,"2021-11-28 21:10:33.088297","","","","","","",""
5.0,0.08856631815433502,0.0006886364744895998,"train",14720.0,"2021-11-28 21:10:37.005395","","","","","","",""
5.0,0.09368983656167984,0.0006900887982150294,"train",14740.0,"2021-11-28 21:10:40.559199","","","","","","",""
5.0,0.06416609138250351,0.0006915420460562429,"train",14760.0,"2021-11-28 21:10:44.570346","","","","","","",""
5.0,0.0645890086889267,0.0006929962141752116,"train",14780.0,"2021-11-28 21:10:48.204185","","","","","","",""
5.0,0.11014295369386673,0.0006944512987314762,"train",14800.0,"2021-11-28 21:10:52.231390","","","","","","",""
5.0,0.05932757258415222,0.000695907295882157,"train",14820.0,"2021-11-28 21:10:55.864594","","","","","","",""
5.0,0.0710991844534874,0.0006973642017819648,"train",14840.0,"2021-11-28 21:10:59.891165","","","","","","",""
5.0,0.06620680540800095,0.0006988220125832092,"train",14860.0,"2021-11-28 21:11:03.527218","","","","","","",""
5.0,0.06848549097776413,0.000700280724435811,"train",14880.0,"2021-11-28 21:11:07.553429","","","","","","",""
5.0,0.09587397426366806,0.0007017403334873109,"train",14900.0,"2021-11-28 21:11:11.198762","","","","","","",""
5.0,0.06385798007249832,0.0007032008358828802,"train",14920.0,"2021-11-28 21:11:15.237146","","","","","","",""
5.0,0.07336568087339401,0.0007046622277653307,"train",14940.0,"2021-11-28 21:11:18.811322","","","","","","",""
5.0,0.08472272753715515,0.0007061245052751249,"train",14960.0,"2021-11-28 21:11:22.856868","","","","","","",""
5.0,0.06125320494174957,0.0007075876645503876,"train",14980.0,"2021-11-28 21:11:26.484127","","","","","","",""
5.0,0.043988119810819626,0.0007090517017269127,"train",15000.0,"2021-11-28 21:11:30.591076","","","","","","",""
5.0,0.056456126272678375,0.0007105166129381779,"train",15020.0,"2021-11-28 21:11:34.274868","","","","","","",""
5.0,0.07461807876825333,0.0007119823943153504,"train",15040.0,"2021-11-28 21:11:38.310320","","","","","","",""
5.0,0.09266521036624908,0.0007134490419873009,"train",15060.0,"2021-11-28 21:11:41.936865","","","","","","",""
5.0,0.08321807533502579,0.0007149165520806118,"train",15080.0,"2021-11-28 21:11:45.962224","","","","","","",""
5.0,0.11142373830080032,0.000716384920719587,"train",15100.0,"2021-11-28 21:11:49.607975","","","","","","",""
5.0,0.08275830745697021,0.0007178541440262644,"train",15120.0,"2021-11-28 21:11:53.654146","","","","","","",""
5.0,0.08690772950649261,0.0007193242181204236,"train",15140.0,"2021-11-28 21:11:57.276927","","","","","","",""
5.0,0.053476106375455856,0.0007207951391195976,"train",15160.0,"2021-11-28 21:12:01.227457","","","","","","",""
5.0,0.05833807587623596,0.0007222669031390831,"train",15180.0,"2021-11-28 21:12:04.762614","","","","","","",""
5.0,0.08910591155290604,0.0007237395062919499,"train",15200.0,"2021-11-28 21:12:08.669152","","","","","","",""
5.0,0.08306434005498886,0.0007252129446890516,"train",15220.0,"2021-11-28 21:12:12.224582","","","","","","",""
5.0,0.0616535060107708,0.0007266872144390366,"train",15240.0,"2021-11-28 21:12:16.261226","","","","","","",""
5.0,0.05047356337308884,0.0007281623116483565,"train",15260.0,"2021-11-28 21:12:19.879780","","","","","","",""
5.0,0.07680585980415344,0.0007296382324212792,"train",15280.0,"2021-11-28 21:12:23.841677","","","","","","",""
5.0,0.07922512292861938,0.0007311149728598959,"train",15300.0,"2021-11-28 21:12:27.399401","","","","","","",""
5.0,0.08892291784286499,0.0007325925290641343,"train",15320.0,"2021-11-28 21:12:31.376009","","","","","","",""
5.0,0.07130935043096542,0.000734070897131767,"train",15340.0,"2021-11-28 21:12:35.047092","","","","","","",""
5.0,0.08706527948379517,0.0007355500731584229,"train",15360.0,"2021-11-28 21:12:39.085414","","","","","","",""
5.0,0.08572318404912949,0.0007370300532375965,"train",15380.0,"2021-11-28 21:12:42.720627","","","","","","",""
5.0,0.08549425005912781,0.0007385108334606592,"train",15400.0,"2021-11-28 21:12:46.692947","","","","","","",""
5.0,0.0491589680314064,0.0007399924099168692,"train",15420.0,"2021-11-28 21:12:50.244767","","","","","","",""
5.0,0.08446528762578964,0.0007414747786933819,"train",15440.0,"2021-11-28 21:12:54.172400","","","","","","",""
5.0,0.07326575368642807,0.0007429579358752606,"train",15460.0,"2021-11-28 21:12:57.792497","","","","","","",""
5.0,0.08866987377405167,0.0007444418775454848,"train",15480.0,"2021-11-28 21:13:01.850470","","","","","","",""
5.0,0.06625593453645706,0.0007459265997849639,"train",15500.0,"2021-11-28 21:13:05.495567","","","","","","",""
5.0,0.06246352940797806,0.0007474120986725454,"train",15520.0,"2021-11-28 21:13:09.512678","","","","","","",""
5.0,0.10647173225879669,0.0007488983702850251,"train",15540.0,"2021-11-28 21:13:13.158663","","","","","","",""
5.0,0.10722346603870392,0.0007503854106971585,"train",15560.0,"2021-11-28 21:13:17.223283","","","","","","",""
5.0,0.0784442275762558,0.0007518732159816706,"train",15580.0,"2021-11-28 21:13:20.892278","","","","","","",""
5.0,0.0694318413734436,0.000753361782209266,"train",15600.0,"2021-11-28 21:13:24.938161","","","","","","",""
5.0,0.054793260991573334,0.0007548511054486409,"train",15620.0,"2021-11-28 21:13:28.572769","","","","","","",""
5.0,0.07189824432134628,0.0007563411817664907,"train",15640.0,"2021-11-28 21:13:32.559924","","","","","","",""
5.0,0.07191778719425201,0.0007578320072275228,"train",15660.0,"2021-11-28 21:13:36.212932","","","","","","",""
5.0,0.10352075099945068,0.0007593235778944653,"train",15680.0,"2021-11-28 21:13:40.270386","","","","","","",""
5.0,0.06389354169368744,0.0007608158898280797,"train",15700.0,"2021-11-28 21:13:43.915401","","","","","","",""
5.0,0.08868072926998138,0.0007623089390871684,"train",15720.0,"2021-11-28 21:13:48.011460","","","","","","",""
5.0,0.06900060921907425,0.0007638027217285873,"train",15740.0,"2021-11-28 21:13:51.630362","","","","","","",""
5.0,0.08909272402524948,0.0007652972338072544,"train",15760.0,"2021-11-28 21:13:55.632086","","","","","","",""
5.0,0.0859401747584343,0.0007667924713761632,"train",15780.0,"2021-11-28 21:13:59.265716","","","","","","",""
5.0,0.07278716564178467,0.0007682884304863889,"train",15800.0,"2021-11-28 21:14:03.291146","","","","","","",""
5.0,0.050227414816617966,0.000769785107187103,"train",15820.0,"2021-11-28 21:14:06.909360","","","","","","",""
5.0,0.09433778375387192,0.0007712824975255805,"train",15840.0,"2021-11-28 21:14:10.935423","","","","","","",""
5.0,0.10365068167448044,0.0007727805975472125,"train",15860.0,"2021-11-28 21:14:14.522733","","","","","","",""
5.0,0.06948964297771454,0.0007742794032955156,"train",15880.0,"2021-11-28 21:14:18.480519","","","","","","",""
5.0,0.09428370743989944,0.0007757789108121427,"train",15900.0,"2021-11-28 21:14:22.033066","","","","","","",""
5.0,0.08657117187976837,0.0007772791161368927,"train",15920.0,"2021-11-28 21:14:26.070197","","","","","","",""
5.0,0.06161998584866524,0.0007787800153077221,"train",15940.0,"2021-11-28 21:14:29.702201","","","","","","",""
5.0,0.08813928812742233,0.0007802816043607553,"train",15960.0,"2021-11-28 21:14:33.727865","","","","","","",""
5.0,0.0706743374466896,0.0007817838793302942,"train",15980.0,"2021-11-28 21:14:37.377255","","","","","","",""
5.0,0.06507206708192825,0.0007832868362488291,"train",16000.0,"2021-11-28 21:14:41.418877","","","","","","",""
5.0,0.09695510566234589,0.0007847904711470496,"train",16020.0,"2021-11-28 21:14:45.061270","","","","","","",""
5.0,0.06730639934539795,0.0007862947800538543,"train",16040.0,"2021-11-28 21:14:49.101756","","","","","","",""
5.0,0.08168291300535202,0.0007877997589963628,"train",16060.0,"2021-11-28 21:14:52.734046","","","","","","",""
5.0,0.06459654122591019,0.0007893054039999239,"train",16080.0,"2021-11-28 21:14:56.755857","","","","","","",""
5.0,0.06813814491033554,0.0007908117110881283,"train",16100.0,"2021-11-28 21:15:00.387815","","","","","","",""
5.0,0.06927567720413208,0.0007923186762828173,"train",16120.0,"2021-11-28 21:15:04.412908","","","","","","",""
5.0,0.08483146131038666,0.0007938262956040942,"train",16140.0,"2021-11-28 21:15:08.022044","","","","","","",""
5.0,0.0799260213971138,0.000795334565070336,"train",16160.0,"2021-11-28 21:15:12.066461","","","","","","",""
5.0,0.10911811888217926,0.0007968434806982011,"train",16180.0,"2021-11-28 21:15:15.682432","","","","","","",""
5.0,0.09299834072589874,0.0007983530385026422,"train",16200.0,"2021-11-28 21:15:19.674598","","","","","","",""
5.0,0.04731103777885437,0.0007998632344969156,"train",16220.0,"2021-11-28 21:15:23.254572","","","","","","",""
5.0,0.08118634670972824,0.0008013740646925932,"train",16240.0,"2021-11-28 21:15:27.204656","","","","","","",""
5.0,0.09286287426948547,0.0008028855250995701,"train",16260.0,"2021-11-28 21:15:30.739121","","","","","","",""
5.0,0.1032562181353569,0.0008043976117260785,"train",16280.0,"2021-11-28 21:15:34.723308","","","","","","",""
5.0,0.09339427947998047,0.0008059103205786968,"train",16300.0,"2021-11-28 21:15:38.268824","","","","","","",""
5.0,0.05367105454206467,0.0008074236476623587,"train",16320.0,"2021-11-28 21:15:42.204920","","","","","","",""
5.0,0.09968703985214233,0.0008089375889803669,"train",16340.0,"2021-11-28 21:15:45.733733","","","","","","",""
5.0,0.0953725203871727,0.0008104521405344007,"train",16360.0,"2021-11-28 21:15:49.683440","","","","","","",""
5.0,0.09053613990545273,0.0008119672983245281,"train",16380.0,"2021-11-28 21:15:53.252918","","","","","","",""
5.0,0.04993339255452156,0.0008134830583492161,"train",16400.0,"2021-11-28 21:15:57.185466","","","","","","",""
5.0,0.07816159725189209,0.0008149994166053414,"train",16420.0,"2021-11-28 21:16:00.738168","","","","","","",""
5.0,0.13978977501392365,0.0008165163690882005,"train",16440.0,"2021-11-28 21:16:04.692980","","","","","","",""
5.0,0.04720861092209816,0.0008180339117915202,"train",16460.0,"2021-11-28 21:16:08.314914","","","","","","",""
5.0,0.08373888581991196,0.0008195520407074692,"train",16480.0,"2021-11-28 21:16:12.362630","","","","","","",""
5.0,0.10085580497980118,0.0008210707518266677,"train",16500.0,"2021-11-28 21:16:16.006776","","","","","","",""
5.0,0.09059380739927292,0.0008225900411381985,"train",16520.0,"2021-11-28 21:16:20.004603","","","","","","",""
5.0,0.07740554213523865,0.0008241099046296175,"train",16540.0,"2021-11-28 21:16:23.547517","","","","","","",""
5.0,0.08632202446460724,0.0008256303382869628,"train",16560.0,"2021-11-28 21:16:27.634949","","","","","","",""
5.0,0.08574534952640533,0.0008271513380947689,"train",16580.0,"2021-11-28 21:16:31.261468","","","","","","",""
5.0,0.06328637152910233,0.0008286729000360734,"train",16600.0,"2021-11-28 21:16:35.266122","","","","","","",""
5.0,0.08429773151874542,0.0008301950200924303,"train",16620.0,"2021-11-28 21:16:38.838119","","","","","","",""
5.0,0.0725354477763176,0.0008317176942439191,"train",16640.0,"2021-11-28 21:16:42.808120","","","","","","",""
5.0,0.06149837374687195,0.0008332409184691558,"train",16660.0,"2021-11-28 21:16:46.366216","","","","","","",""
5.0,0.07192672044038773,0.0008347646887453043,"train",16680.0,"2021-11-28 21:16:50.370154","","","","","","",""
5.0,0.07934650033712387,0.0008362890010480857,"train",16700.0,"2021-11-28 21:16:53.955281","","","","","","",""
5.0,0.07642830908298492,0.00083781385135179,"train",16720.0,"2021-11-28 21:16:57.917758","","","","","","",""
5.0,0.12033046782016754,0.0008393392356292864,"train",16740.0,"2021-11-28 21:17:01.504298","","","","","","",""
5.0,0.07422363013029099,0.0008408651498520332,"train",16760.0,"2021-11-28 21:17:05.529837","","","","","","",""
5.0,0.10171916335821152,0.0008423915899900907,"train",16780.0,"2021-11-28 21:17:09.113901","","","","","","",""
5.0,0.10752248018980026,0.0008439185520121278,"train",16800.0,"2021-11-28 21:17:13.071706","","","","","","",""
5.0,0.08519813418388367,0.0008454460318854376,"train",16820.0,"2021-11-28 21:17:16.634374","","","","","","",""
5.0,0.10433536767959595,0.000846974025575944,"train",16840.0,"2021-11-28 21:17:20.614396","","","","","","",""
5.0,0.06428553909063339,0.000848502529048214,"train",16860.0,"2021-11-28 21:17:24.171277","","","","","","",""
5.0,0.07045868039131165,0.0008500315382654695,"train",16880.0,"2021-11-28 21:17:28.235651","","","","","","",""
5.0,0.08864116668701172,0.0008515610491895951,"train",16900.0,"2021-11-28 21:17:31.806602","","","","","","",""
5.0,0.10591079294681549,0.0008530910577811514,"train",16920.0,"2021-11-28 21:17:35.783601","","","","","","",""
5.0,0.09496518969535828,0.0008546215599993844,"train",16940.0,"2021-11-28 21:17:39.377368","","","","","","",""
5.0,0.11463331431150436,0.0008561525518022363,"train",16960.0,"2021-11-28 21:17:43.363929","","","","","","",""
5.0,0.12431291490793228,0.0008576840291463566,"train",16980.0,"2021-11-28 21:17:46.896832","","","","","","",""
5.0,0.05350807309150696,0.0008592159879871125,"train",17000.0,"2021-11-28 21:17:50.868839","","","","","","",""
5.0,0.07946393638849258,0.0008607484242785987,"train",17020.0,"2021-11-28 21:17:54.489334","","","","","","",""
5.0,0.060872774571180344,0.0008622813339736503,"train",17040.0,"2021-11-28 21:17:58.574860","","","","","","",""
5.0,0.11465401947498322,0.0008638147130238514,"train",17060.0,"2021-11-28 21:18:02.201424","","","","","","",""
5.0,0.07351553440093994,0.0008653485573795465,"train",17080.0,"2021-11-28 21:18:06.166245","","","","","","",""
5.0,0.11891871690750122,0.000866882862989851,"train",17100.0,"2021-11-28 21:18:09.759704","","","","","","",""
5.0,0.11725486814975739,0.0008684176258026632,"train",17120.0,"2021-11-28 21:18:13.692340","","","","","","",""
5.0,0.07246197015047073,0.0008699528417646725,"train",17140.0,"2021-11-28 21:18:17.238717","","","","","","",""
5.0,0.1001986637711525,0.0008714885068213725,"train",17160.0,"2021-11-28 21:18:21.180650","","","","","","",""
5.0,0.06765248626470566,0.0008730246169170708,"train",17180.0,"2021-11-28 21:18:24.715665","","","","","","",""
5.0,"","","val",17184.0,"2021-11-28 21:18:55.168757",0.5471993505740461,0.4706215754053643,0.906646952926865,0.5503983284251726,0.3820553274643351,0.3820215238386651,0.2550896451367509
6.0,0.05263848230242729,0.0008745611679948991,"train",17200.0,"2021-11-28 21:19:01.591154","","","","","","",""
6.0,0.07692001014947891,0.000876098155996824,"train",17220.0,"2021-11-28 21:19:05.154188","","","","","","",""
6.0,0.07130853086709976,0.0008776355768636598,"train",17240.0,"2021-11-28 21:19:09.099198","","","","","","",""
6.0,0.05863995477557182,0.0008791734265350762,"train",17260.0,"2021-11-28 21:19:13.071988","","","","","","",""
6.0,0.10235007852315903,0.0008807117009496115,"train",17280.0,"2021-11-28 21:19:16.653258","","","","","","",""
6.0,0.06164862588047981,0.0008822503960446808,"train",17300.0,"2021-11-28 21:19:20.637282","","","","","","",""
6.0,0.11261460930109024,0.0008837895077565894,"train",17320.0,"2021-11-28 21:19:24.325083","","","","","","",""
6.0,0.07154466956853867,0.0008853290320205418,"train",17340.0,"2021-11-28 21:19:28.376143","","","","","","",""
6.0,0.09116380661725998,0.0008868689647706536,"train",17360.0,"2021-11-28 21:19:31.948405","","","","","","",""
6.0,0.08010692894458771,0.0008884093019399608,"train",17380.0,"2021-11-28 21:19:35.883789","","","","","","",""
6.0,0.05778913572430611,0.000889950039460431,"train",17400.0,"2021-11-28 21:19:39.435454","","","","","","",""
6.0,0.07474751770496368,0.0008914911732629766,"train",17420.0,"2021-11-28 21:19:43.369110","","","","","","",""
6.0,0.09351692348718643,0.0008930326992774604,"train",17440.0,"2021-11-28 21:19:47.403076","","","","","","",""
6.0,0.10566405951976776,0.0008945746134327115,"train",17460.0,"2021-11-28 21:19:50.987459","","","","","","",""
6.0,0.06154490262269974,0.000896116911656533,"train",17480.0,"2021-11-28 21:19:54.938572","","","","","","",""
6.0,0.10193104296922684,0.0008976595898757143,"train",17500.0,"2021-11-28 21:19:58.479790","","","","","","",""
6.0,0.0912189856171608,0.0008992026440160412,"train",17520.0,"2021-11-28 21:20:02.476972","","","","","","",""
6.0,0.08601810038089752,0.0009007460700023056,"train",17540.0,"2021-11-28 21:20:06.122384","","","","","","",""
6.0,0.05017672851681709,0.0009022898637583187,"train",17560.0,"2021-11-28 21:20:10.176090","","","","","","",""
6.0,0.044351719319820404,0.0009038340212069193,"train",17580.0,"2021-11-28 21:20:13.822765","","","","","","",""
6.0,0.08311004191637039,0.000905378538269987,"train",17600.0,"2021-11-28 21:20:17.881376","","","","","","",""
6.0,0.1202692911028862,0.0009069234108684508,"train",17620.0,"2021-11-28 21:20:21.924876","","","","","","",""
6.0,0.11071819067001343,0.0009084686349223004,"train",17640.0,"2021-11-28 21:20:25.560163","","","","","","",""
6.0,0.07422184199094772,0.0009100142063505979,"train",17660.0,"2021-11-28 21:20:29.617428","","","","","","",""
6.0,0.06496397405862808,0.000911560121071488,"train",17680.0,"2021-11-28 21:20:33.241456","","","","","","",""
6.0,0.07992639392614365,0.0009131063750022082,"train",17700.0,"2021-11-28 21:20:37.229822","","","","","","",""
6.0,0.09080173820257187,0.0009146529640591012,"train",17720.0,"2021-11-28 21:20:40.769369","","","","","","",""
6.0,0.0789540559053421,0.0009161998841576236,"train",17740.0,"2021-11-28 21:20:44.710951","","","","","","",""
6.0,0.06805707514286041,0.0009177471312123578,"train",17760.0,"2021-11-28 21:20:48.337496","","","","","","",""
6.0,0.06568096578121185,0.0009192947011370234,"train",17780.0,"2021-11-28 21:20:52.392672","","","","","","",""
6.0,0.0867619514465332,0.0009208425898444869,"train",17800.0,"2021-11-28 21:20:56.324922","","","","","","",""
6.0,0.09115567803382874,0.0009223907932467729,"train",17820.0,"2021-11-28 21:20:59.860666","","","","","","",""
6.0,0.07257933169603348,0.0009239393072550746,"train",17840.0,"2021-11-28 21:21:03.817601","","","","","","",""
6.0,0.06637958437204361,0.0009254881277797654,"train",17860.0,"2021-11-28 21:21:07.385216","","","","","","",""
6.0,0.09991907328367233,0.000927037250730409,"train",17880.0,"2021-11-28 21:21:11.429594","","","","","","",""
6.0,0.10471267998218536,0.0009285866720157704,"train",17900.0,"2021-11-28 21:21:15.023095","","","","","","",""
6.0,0.09432877600193024,0.0009301363875438263,"train",17920.0,"2021-11-28 21:21:18.959136","","","","","","",""
6.0,0.09976650029420853,0.0009316863932217769,"train",17940.0,"2021-11-28 21:21:22.521987","","","","","","",""
6.0,0.0630141869187355,0.0009332366849560561,"train",17960.0,"2021-11-28 21:21:26.567270","","","","","","",""
6.0,0.11053899675607681,0.0009347872586523418,"train",17980.0,"2021-11-28 21:21:30.604259","","","","","","",""
6.0,0.05086766928434372,0.0009363381102155675,"train",18000.0,"2021-11-28 21:21:34.226166","","","","","","",""
6.0,0.06027999892830849,0.000937889235549933,"train",18020.0,"2021-11-28 21:21:38.223276","","","","","","",""
6.0,0.07870364189147949,0.0009394406305589151,"train",18040.0,"2021-11-28 21:21:41.828823","","","","","","",""
6.0,0.07706759870052338,0.0009409922911452781,"train",18060.0,"2021-11-28 21:21:45.821493","","","","","","",""
6.0,0.0817406103014946,0.0009425442132110853,"train",18080.0,"2021-11-28 21:21:49.404770","","","","","","",""
6.0,0.05063846707344055,0.0009440963926577088,"train",18100.0,"2021-11-28 21:21:53.402622","","","","","","",""
6.0,0.0922611802816391,0.0009456488253858412,"train",18120.0,"2021-11-28 21:21:56.931163","","","","","","",""
6.0,0.054616376757621765,0.000947201507295507,"train",18140.0,"2021-11-28 21:22:00.878760","","","","","","",""
6.0,0.0676024928689003,0.0009487544342860717,"train",18160.0,"2021-11-28 21:22:04.902378","","","","","","",""
6.0,0.10112575441598892,0.0009503076022562536,"train",18180.0,"2021-11-28 21:22:08.446579","","","","","","",""
6.0,0.08631858229637146,0.0009518610071041348,"train",18200.0,"2021-11-28 21:22:12.383322","","","","","","",""
6.0,0.09830405563116074,0.0009534146447271717,"train",18220.0,"2021-11-28 21:22:15.917726","","","","","","",""
6.0,0.054545383900403976,0.0009549685110222062,"train",18240.0,"2021-11-28 21:22:19.870988","","","","","","",""
6.0,0.05453917384147644,0.0009565226018854764,"train",18260.0,"2021-11-28 21:22:23.439648","","","","","","",""
6.0,0.09027865529060364,0.0009580769132126262,"train",18280.0,"2021-11-28 21:22:27.434703","","","","","","",""
6.0,0.09958291053771973,0.0009596314408987184,"train",18300.0,"2021-11-28 21:22:31.038612","","","","","","",""
6.0,0.08467194437980652,0.0009611861808382443,"train",18320.0,"2021-11-28 21:22:35.065154","","","","","","",""
6.0,0.07495835423469543,0.0009627411289251343,"train",18340.0,"2021-11-28 21:22:39.081728","","","","","","",""
6.0,0.06695214658975601,0.0009642962810527689,"train",18360.0,"2021-11-28 21:22:42.688288","","","","","","",""
6.0,0.07339274883270264,0.0009658516331139903,"train",18380.0,"2021-11-28 21:22:46.680286","","","","","","",""
6.0,0.04967264458537102,0.0009674071810011119,"train",18400.0,"2021-11-28 21:22:50.228213","","","","","","",""
6.0,0.08840678632259369,0.0009689629206059308,"train",18420.0,"2021-11-28 21:22:54.164001","","","","","","",""
6.0,0.07595133781433105,0.0009705188478197375,"train",18440.0,"2021-11-28 21:22:57.804379","","","","","","",""
6.0,0.08744601905345917,0.0009720749585333268,"train",18460.0,"2021-11-28 21:23:01.785713","","","","","","",""
6.0,0.08615096658468246,0.0009736312486370081,"train",18480.0,"2021-11-28 21:23:05.381915","","","","","","",""
6.0,0.08100585639476776,0.0009751877140206195,"train",18500.0,"2021-11-28 21:23:09.460518","","","","","","",""
6.0,0.08197411894798279,0.0009767443505735334,"train",18520.0,"2021-11-28 21:23:13.581139","","","","","","",""
6.0,0.07047917693853378,0.000978301154184672,"train",18540.0,"2021-11-28 21:23:17.231601","","","","","","",""
6.0,0.07113365083932877,0.0009798581207425148,"train",18560.0,"2021-11-28 21:23:21.249675","","","","","","",""
6.0,0.07532355934381485,0.0009814152461351123,"train",18580.0,"2021-11-28 21:23:24.896585","","","","","","",""
6.0,0.06639363616704941,0.0009829725262500957,"train",18600.0,"2021-11-28 21:23:28.921616","","","","","","",""
6.0,0.10891848802566528,0.0009845299569746855,"train",18620.0,"2021-11-28 21:23:32.522772","","","","","","",""
6.0,0.07750917226076126,0.000986087534195707,"train",18640.0,"2021-11-28 21:23:36.522580","","","","","","",""
6.0,0.05887843295931816,0.0009876452537995962,"train",18660.0,"2021-11-28 21:23:40.111542","","","","","","",""
6.0,0.07639022171497345,0.0009892031116724158,"train",18680.0,"2021-11-28 21:23:44.041484","","","","","","",""
6.0,0.1099272295832634,0.0009907611036998607,"train",18700.0,"2021-11-28 21:23:48.033279","","","","","","",""
6.0,0.06177148595452309,0.0009923192257672727,"train",18720.0,"2021-11-28 21:23:51.667083","","","","","","",""
6.0,0.06806215643882751,0.0009938774737596506,"train",18740.0,"2021-11-28 21:23:55.693369","","","","","","",""
6.0,0.06651011854410172,0.0009954358435616598,"train",18760.0,"2021-11-28 21:23:59.328173","","","","","","",""
6.0,0.10417461395263672,0.0009969943310576446,"train",18780.0,"2021-11-28 21:24:03.355259","","","","","","",""
6.0,0.0932677835226059,0.0009985529321316377,"train",18800.0,"2021-11-28 21:24:06.988414","","","","","","",""
6.0,0.07199227809906006,0.0010001116426673726,"train",18820.0,"2021-11-28 21:24:11.010979","","","","","","",""
6.0,0.035973627120256424,0.0010016704585482932,"train",18840.0,"2021-11-28 21:24:14.660250","","","","","","",""
6.0,0.11473856121301651,0.001003229375657566,"train",18860.0,"2021-11-28 21:24:18.717055","","","","","","",""
6.0,0.11403001099824905,0.0010047883898780892,"train",18880.0,"2021-11-28 21:24:22.767053","","","","","","",""
6.0,0.08348336815834045,0.0010063474970925048,"train",18900.0,"2021-11-28 21:24:26.347997","","","","","","",""
6.0,0.07085671275854111,0.0010079066931832094,"train",18920.0,"2021-11-28 21:24:30.426255","","","","","","",""
6.0,0.06277944892644882,0.001009465974032365,"train",18940.0,"2021-11-28 21:24:33.983472","","","","","","",""
6.0,0.07011842727661133,0.0010110253355219091,"train",18960.0,"2021-11-28 21:24:37.938639","","","","","","",""
6.0,0.08828414231538773,0.0010125847735335672,"train",18980.0,"2021-11-28 21:24:41.487581","","","","","","",""
6.0,0.06457281112670898,0.0010141442839488618,"train",19000.0,"2021-11-28 21:24:45.502803","","","","","","",""
6.0,0.06488543748855591,0.0010157038626491246,"train",19020.0,"2021-11-28 21:24:49.159812","","","","","","",""
6.0,0.08905752003192902,0.001017263505515507,"train",19040.0,"2021-11-28 21:24:53.119834","","","","","","",""
6.0,0.10004360228776932,0.0010188232084289907,"train",19060.0,"2021-11-28 21:24:57.056652","","","","","","",""
6.0,0.11342144012451172,0.0010203829672703996,"train",19080.0,"2021-11-28 21:25:00.647963","","","","","","",""
6.0,0.08265677094459534,0.0010219427779204083,"train",19100.0,"2021-11-28 21:25:04.632479","","","","","","",""
6.0,0.05646735057234764,0.0010235026362595562,"train",19120.0,"2021-11-28 21:25:08.269047","","","","","","",""
6.0,0.050016023218631744,0.0010250625381682558,"train",19140.0,"2021-11-28 21:25:12.283879","","","","","","",""
6.0,0.09340476989746094,0.0010266224795268048,"train",19160.0,"2021-11-28 21:25:15.920982","","","","","","",""
6.0,0.09723300486803055,0.0010281824562153972,"train",19180.0,"2021-11-28 21:25:19.961006","","","","","","",""
6.0,0.07127007097005844,0.0010297424641141323,"train",19200.0,"2021-11-28 21:25:23.602006","","","","","","",""
6.0,0.07393807917833328,0.001031302499103029,"train",19220.0,"2021-11-28 21:25:27.628798","","","","","","",""
6.0,0.06356168538331985,0.0010328625570620328,"train",19240.0,"2021-11-28 21:25:31.677010","","","","","","",""
6.0,0.06305461376905441,0.0010344226338710296,"train",19260.0,"2021-11-28 21:25:35.320956","","","","","","",""
6.0,0.06365985423326492,0.001035982725409855,"train",19280.0,"2021-11-28 21:25:39.347529","","","","","","",""
6.0,0.07442443817853928,0.001037542827558306,"train",19300.0,"2021-11-28 21:25:42.913560","","","","","","",""
6.0,0.0634535625576973,0.001039102936196152,"train",19320.0,"2021-11-28 21:25:46.956014","","","","","","",""
6.0,0.08621356636285782,0.0010406630472031438,"train",19340.0,"2021-11-28 21:25:50.563743","","","","","","",""
6.0,0.07072809338569641,0.0010422231564590273,"train",19360.0,"2021-11-28 21:25:54.660250","","","","","","",""
6.0,0.10960168391466141,0.0010437832598435529,"train",19380.0,"2021-11-28 21:25:58.199323","","","","","","",""
6.0,0.05894870683550835,0.0010453433532364863,"train",19400.0,"2021-11-28 21:26:02.203180","","","","","","",""
6.0,0.09153228998184204,0.0010469034325176188,"train",19420.0,"2021-11-28 21:26:06.181449","","","","","","",""
6.0,0.06789625436067581,0.0010484634935667802,"train",19440.0,"2021-11-28 21:26:09.751059","","","","","","",""
6.0,0.05269886925816536,0.0010500235322638478,"train",19460.0,"2021-11-28 21:26:13.770007","","","","","","",""
6.0,0.08230216801166534,0.001051583544488758,"train",19480.0,"2021-11-28 21:26:17.386636","","","","","","",""
6.0,0.08247210085391998,0.0010531435261215175,"train",19500.0,"2021-11-28 21:26:21.394767","","","","","","",""
6.0,0.07292918860912323,0.0010547034730422132,"train",19520.0,"2021-11-28 21:26:24.990411","","","","","","",""
6.0,0.08099333196878433,0.0010562633811310239,"train",19540.0,"2021-11-28 21:26:28.981867","","","","","","",""
6.0,0.07179906964302063,0.001057823246268231,"train",19560.0,"2021-11-28 21:26:32.585676","","","","","","",""
6.0,0.06386121362447739,0.0010593830643342292,"train",19580.0,"2021-11-28 21:26:36.608350","","","","","","",""
6.0,0.06683627516031265,0.0010609428312095387,"train",19600.0,"2021-11-28 21:26:40.645714","","","","","","",""
6.0,0.05356541648507118,0.0010625025427748124,"train",19620.0,"2021-11-28 21:26:44.279847","","","","","","",""
6.0,0.07119962573051453,0.0010640621949108515,"train",19640.0,"2021-11-28 21:26:48.327959","","","","","","",""
6.0,0.10382319986820221,0.0010656217834986129,"train",19660.0,"2021-11-28 21:26:51.899818","","","","","","",""
6.0,0.08324271440505981,0.0010671813044192224,"train",19680.0,"2021-11-28 21:26:55.854501","","","","","","",""
6.0,0.08466765284538269,0.0010687407535539839,"train",19700.0,"2021-11-28 21:26:59.402846","","","","","","",""
6.0,0.08555552363395691,0.0010703001267843904,"train",19720.0,"2021-11-28 21:27:03.375914","","","","","","",""
6.0,0.08667394518852234,0.0010718594199921356,"train",19740.0,"2021-11-28 21:27:06.928317","","","","","","",""
6.0,0.05107620730996132,0.0010734186290591256,"train",19760.0,"2021-11-28 21:27:10.950392","","","","","","",""
6.0,0.09919608384370804,0.001074977749867488,"train",19780.0,"2021-11-28 21:27:14.992329","","","","","","",""
6.0,0.06514905393123627,0.0010765367782995827,"train",19800.0,"2021-11-28 21:27:18.619201","","","","","","",""
6.0,0.1434147208929062,0.0010780957102380145,"train",19820.0,"2021-11-28 21:27:22.556641","","","","","","",""
6.0,0.09032948315143585,0.0010796545415656428,"train",19840.0,"2021-11-28 21:27:26.108887","","","","","","",""
6.0,0.08143201470375061,0.0010812132681655927,"train",19860.0,"2021-11-28 21:27:30.097024","","","","","","",""
6.0,0.08805552124977112,0.0010827718859212666,"train",19880.0,"2021-11-28 21:27:33.656749","","","","","","",""
6.0,0.07342882454395294,0.001084330390716353,"train",19900.0,"2021-11-28 21:27:37.677183","","","","","","",""
6.0,0.11273381859064102,0.0010858887784348389,"train",19920.0,"2021-11-28 21:27:41.291814","","","","","","",""
6.0,0.05895361676812172,0.0010874470449610222,"train",19940.0,"2021-11-28 21:27:45.310675","","","","","","",""
6.0,0.06263583153486252,0.001089005186179519,"train",19960.0,"2021-11-28 21:27:49.269025","","","","","","",""
6.0,0.0949518010020256,0.0010905631979752771,"train",19980.0,"2021-11-28 21:27:52.822349","","","","","","",""
6.0,0.09614115953445435,0.0010921210762335856,"train",20000.0,"2021-11-28 21:27:56.827230","","","","","","",""
6.0,0.0360107347369194,0.0010936788168400872,"train",20020.0,"2021-11-28 21:28:00.450829","","","","","","",""
6.0,0.10187635570764542,0.0010952364156807876,"train",20040.0,"2021-11-28 21:28:04.480928","","","","","","",""
6.0,"","","val",20048.0,"2021-11-28 21:28:35.836238",0.5418067957787313,0.47720418796388275,0.908986268848968,0.5404384351399273,0.3814344846667362,0.38313559674529435,0.2559897005932946
7.0,0.08579465001821518,0.001096793868642067,"train",20060.0,"2021-11-28 21:28:41.205726","","","","","","",""
7.0,0.10379957407712936,0.0010983511716106907,"train",20080.0,"2021-11-28 21:28:45.298338","","","","","","",""
7.0,0.06351520121097565,0.0010999083204738197,"train",20100.0,"2021-11-28 21:28:49.262007","","","","","","",""
7.0,0.05414905399084091,0.0011014653111190232,"train",20120.0,"2021-11-28 21:28:52.878239","","","","","","",""
7.0,0.09896101802587509,0.001103022139434287,"train",20140.0,"2021-11-28 21:28:56.830655","","","","","","",""
7.0,0.09836512058973312,0.001104578801308027,"train",20160.0,"2021-11-28 21:29:00.446598","","","","","","",""
7.0,0.09411777555942535,0.001106135292629097,"train",20180.0,"2021-11-28 21:29:04.486438","","","","","","",""
7.0,0.07562240958213806,0.0011076916092868027,"train",20200.0,"2021-11-28 21:29:08.529261","","","","","","",""
7.0,0.09856037050485611,0.00110924774717091,"train",20220.0,"2021-11-28 21:29:12.137299","","","","","","",""
7.0,0.07322391867637634,0.0011108037021716579,"train",20240.0,"2021-11-28 21:29:16.138569","","","","","","",""
7.0,0.0527288019657135,0.0011123594701797673,"train",20260.0,"2021-11-28 21:29:19.754428","","","","","","",""
7.0,0.08387592434883118,0.0011139150470864546,"train",20280.0,"2021-11-28 21:29:23.823364","","","","","","",""
7.0,0.09816472977399826,0.0011154704287834384,"train",20300.0,"2021-11-28 21:29:27.900523","","","","","","",""
7.0,0.09697922319173813,0.0011170256111629553,"train",20320.0,"2021-11-28 21:29:31.560834","","","","","","",""
7.0,0.07710714638233185,0.0011185805901177672,"train",20340.0,"2021-11-28 21:29:35.611210","","","","","","",""
7.0,0.05632307752966881,0.001120135361541173,"train",20360.0,"2021-11-28 21:29:39.228171","","","","","","",""
7.0,0.058598726987838745,0.0011216899213270207,"train",20380.0,"2021-11-28 21:29:43.242909","","","","","","",""
7.0,0.07937261462211609,0.0011232442653697156,"train",20400.0,"2021-11-28 21:29:47.290205","","","","","","",""
7.0,0.09153437614440918,0.0011247983895642344,"train",20420.0,"2021-11-28 21:29:50.876530","","","","","","",""
7.0,0.10697318613529205,0.0011263522898061337,"train",20440.0,"2021-11-28 21:29:54.817561","","","","","","",""
7.0,0.07762087136507034,0.0011279059619915617,"train",20460.0,"2021-11-28 21:29:58.364490","","","","","","",""
7.0,0.0851445198059082,0.0011294594020172686,"train",20480.0,"2021-11-28 21:30:02.290533","","","","","","",""
7.0,0.06911513954401016,0.0011310126057806182,"train",20500.0,"2021-11-28 21:30:06.292530","","","","","","",""
7.0,0.11277947574853897,0.0011325655691795976,"train",20520.0,"2021-11-28 21:30:09.850859","","","","","","",""
7.0,0.09171787649393082,0.0011341182881128295,"train",20540.0,"2021-11-28 21:30:13.839160","","","","","","",""
7.0,0.07087478786706924,0.0011356707584795822,"train",20560.0,"2021-11-28 21:30:17.393640","","","","","","",""
7.0,0.07072587311267853,0.0011372229761797792,"train",20580.0,"2021-11-28 21:30:21.330008","","","","","","",""
7.0,0.10134062170982361,0.0011387749371140129,"train",20600.0,"2021-11-28 21:30:25.288046","","","","","","",""
7.0,0.0819481611251831,0.001140326637183553,"train",20620.0,"2021-11-28 21:30:28.912206","","","","","","",""
7.0,0.09244727343320847,0.001141878072290358,"train",20640.0,"2021-11-28 21:30:32.872418","","","","","","",""
7.0,0.06099513918161392,0.001143429238337087,"train",20660.0,"2021-11-28 21:30:36.801091","","","","","","",""
7.0,0.1302880346775055,0.001144980131227109,"train",20680.0,"2021-11-28 21:30:40.370071","","","","","","",""
7.0,0.07342109084129333,0.0011465307468645142,"train",20700.0,"2021-11-28 21:30:44.368821","","","","","","",""
7.0,0.10124906152486801,0.0011480810811541255,"train",20720.0,"2021-11-28 21:30:47.972126","","","","","","",""
7.0,0.07465614378452301,0.001149631130001509,"train",20740.0,"2021-11-28 21:30:52.161585","","","","","","",""
7.0,0.09019487351179123,0.001151180889312984,"train",20760.0,"2021-11-28 21:30:56.378136","","","","","","",""
7.0,0.0853428840637207,0.0011527303549956351,"train",20780.0,"2021-11-28 21:30:59.999243","","","","","","",""
7.0,0.06707338243722916,0.001154279522957322,"train",20800.0,"2021-11-28 21:31:04.104750","","","","","","",""
7.0,0.08238120377063751,0.0011558283891066907,"train",20820.0,"2021-11-28 21:31:07.696994","","","","","","",""
7.0,0.08170290291309357,0.001157376949353184,"train",20840.0,"2021-11-28 21:31:11.690028","","","","","","",""
7.0,0.0685228630900383,0.0011589251996070543,"train",20860.0,"2021-11-28 21:31:15.692021","","","","","","",""
7.0,0.06160012260079384,0.00116047313577937,"train",20880.0,"2021-11-28 21:31:19.265455","","","","","","",""
7.0,0.06058548763394356,0.0011620207537820307,"train",20900.0,"2021-11-28 21:31:23.236797","","","","","","",""
7.0,0.06553934514522552,0.0011635680495277758,"train",20920.0,"2021-11-28 21:31:26.793345","","","","","","",""
7.0,0.05054984986782074,0.0011651150189301964,"train",20940.0,"2021-11-28 21:31:30.730090","","","","","","",""
7.0,0.07610543817281723,0.0011666616579037452,"train",20960.0,"2021-11-28 21:31:34.643518","","","","","","",""
7.0,0.08119979500770569,0.0011682079623637465,"train",20980.0,"2021-11-28 21:31:38.202364","","","","","","",""
7.0,0.06827227771282196,0.001169753928226409,"train",21000.0,"2021-11-28 21:31:42.136539","","","","","","",""
7.0,0.09330997616052628,0.001171299551408836,"train",21020.0,"2021-11-28 21:31:45.686474","","","","","","",""
7.0,0.0525764636695385,0.001172844827829035,"train",21040.0,"2021-11-28 21:31:49.645699","","","","","","",""
7.0,0.11825744807720184,0.0011743897534059302,"train",21060.0,"2021-11-28 21:31:53.598115","","","","","","",""
7.0,0.059676624834537506,0.001175934324059371,"train",21080.0,"2021-11-28 21:31:57.141683","","","","","","",""
7.0,0.0922526866197586,0.0011774785357101451,"train",21100.0,"2021-11-28 21:32:01.102578","","","","","","",""
7.0,0.08413917571306229,0.001179022384279989,"train",21120.0,"2021-11-28 21:32:04.636513","","","","","","",""
7.0,0.07284713536500931,0.0011805658656915967,"train",21140.0,"2021-11-28 21:32:08.584661","","","","","","",""
7.0,0.13119205832481384,0.001182108975868633,"train",21160.0,"2021-11-28 21:32:12.510046","","","","","","",""
7.0,0.08129501342773438,0.0011836517107357415,"train",21180.0,"2021-11-28 21:32:16.071891","","","","","","",""
7.0,0.08187888562679291,0.001185194066218559,"train",21200.0,"2021-11-28 21:32:20.049348","","","","","","",""
7.0,0.10037458688020706,0.0011867360382437232,"train",21220.0,"2021-11-28 21:32:23.575046","","","","","","",""
7.0,0.0547681525349617,0.001188277622738884,"train",21240.0,"2021-11-28 21:32:27.561342","","","","","","",""
7.0,0.04946194216609001,0.0011898188156327168,"train",21260.0,"2021-11-28 21:32:31.588649","","","","","","",""
