"epoch","loss","lr","part","step","time","accuracy","auprc","auroc","challenge_metric","f_beta_measure","f_measure","g_beta_measure"
0.0,5.838942050933838,8.000730236035311e-05,"train",20.0,"2021-11-21 12:39:01.291921","","","","","","",""
0.0,3.07463002204895,8.002920933031948e-05,"train",40.0,"2021-11-21 12:39:04.954799","","","","","","",""
0.0,1.0472978353500366,8.006572057662293e-05,"train",60.0,"2021-11-21 12:39:09.158964","","","","","","",""
0.0,0.9894160032272339,8.011683554380914e-05,"train",80.0,"2021-11-21 12:39:12.735941","","","","","","",""
0.0,1.082709550857544,8.018255345425274e-05,"train",100.0,"2021-11-21 12:39:16.272233","","","","","","",""
0.0,0.6187374591827393,8.026287330817079e-05,"train",120.0,"2021-11-21 12:39:19.824305","","","","","","",""
0.0,0.8680907487869263,8.03577938836373e-05,"train",140.0,"2021-11-21 12:39:23.445991","","","","","","",""
0.0,0.9347900152206421,8.04673137366021e-05,"train",160.0,"2021-11-21 12:39:27.600832","","","","","","",""
0.0,0.749374270439148,8.059143120091187e-05,"train",180.0,"2021-11-21 12:39:31.244741","","","","","","",""
0.0,0.7433071136474609,8.073014438833613e-05,"train",200.0,"2021-11-21 12:39:34.933789","","","","","","",""
0.0,0.7729657292366028,8.088345118859724e-05,"train",220.0,"2021-11-21 12:39:38.578909","","","","","","",""
0.0,0.6351754069328308,8.10513492693996e-05,"train",240.0,"2021-11-21 12:39:42.220252","","","","","","",""
0.0,0.5842318534851074,8.123383607646804e-05,"train",260.0,"2021-11-21 12:39:46.362474","","","","","","",""
0.0,0.7757642865180969,8.143090883358495e-05,"train",280.0,"2021-11-21 12:39:49.967402","","","","","","",""
0.0,0.8638279438018799,8.164256454263295e-05,"train",300.0,"2021-11-21 12:39:53.724694","","","","","","",""
0.0,1.1230823993682861,8.186879998364088e-05,"train",320.0,"2021-11-21 12:39:57.403504","","","","","","",""
0.0,0.8251151442527771,8.210961171483213e-05,"train",340.0,"2021-11-21 12:40:01.055992","","","","","","",""
0.0,0.6253905892372131,8.236499607267717e-05,"train",360.0,"2021-11-21 12:40:05.304486","","","","","","",""
0.0,1.2439607381820679,8.26349491719505e-05,"train",380.0,"2021-11-21 12:40:09.008164","","","","","","",""
0.0,0.683294415473938,8.291946690578713e-05,"train",400.0,"2021-11-21 12:40:12.685154","","","","","","",""
0.0,0.6727356910705566,8.321854494574774e-05,"train",420.0,"2021-11-21 12:40:16.371423","","","","","","",""
0.0,0.8378023505210876,8.353217874188293e-05,"train",440.0,"2021-11-21 12:40:20.010804","","","","","","",""
0.0,0.6951515674591064,8.38603635228035e-05,"train",460.0,"2021-11-21 12:40:24.130161","","","","","","",""
0.0,0.927248477935791,8.420309429575212e-05,"train",480.0,"2021-11-21 12:40:27.763211","","","","","","",""
0.0,0.8282614946365356,8.456036584667914e-05,"train",500.0,"2021-11-21 12:40:31.383847","","","","","","",""
0.0,1.2289119958877563,8.493217274032315e-05,"train",520.0,"2021-11-21 12:40:35.025486","","","","","","",""
0.0,0.7450636625289917,8.531850932029235e-05,"train",540.0,"2021-11-21 12:40:38.705847","","","","","","",""
0.0,0.9958078861236572,8.571936970915212e-05,"train",560.0,"2021-11-21 12:40:42.871478","","","","","","",""
0.0,0.8951045274734497,8.613474780851246e-05,"train",580.0,"2021-11-21 12:40:46.492274","","","","","","",""
0.0,0.7594581842422485,8.656463729912224e-05,"train",600.0,"2021-11-21 12:40:50.082903","","","","","","",""
0.0,0.56959068775177,8.700903164096468e-05,"train",620.0,"2021-11-21 12:40:53.684182","","","","","","",""
0.0,0.6994131803512573,8.746792407335769e-05,"train",640.0,"2021-11-21 12:40:57.281018","","","","","","",""
0.0,0.8881767392158508,8.794130761505497e-05,"train",660.0,"2021-11-21 12:41:01.492613","","","","","","",""
0.0,0.5177603960037231,8.842917506435462e-05,"train",680.0,"2021-11-21 12:41:05.124583","","","","","","",""
0.0,1.1001030206680298,8.893151899920645e-05,"train",700.0,"2021-11-21 12:41:08.726023","","","","","","",""
0.0,0.939035952091217,8.944833177732632e-05,"train",720.0,"2021-11-21 12:41:12.351464","","","","","","",""
0.0,1.3252865076065063,8.997960553631186e-05,"train",740.0,"2021-11-21 12:41:16.047584","","","","","","",""
0.0,1.03262460231781,9.052533219376224e-05,"train",760.0,"2021-11-21 12:41:20.212462","","","","","","",""
0.0,0.722217321395874,9.108550344740104e-05,"train",780.0,"2021-11-21 12:41:23.844089","","","","","","",""
0.0,0.9674794673919678,9.166011077520208e-05,"train",800.0,"2021-11-21 12:41:27.409689","","","","","","",""
0.0,0.7503828406333923,9.224914543552059e-05,"train",820.0,"2021-11-21 12:41:30.973536","","","","","","",""
0.0,0.6485378742218018,9.285259846722417e-05,"train",840.0,"2021-11-21 12:41:34.568386","","","","","","",""
0.0,1.0102618932724,9.34704606898307e-05,"train",860.0,"2021-11-21 12:41:38.166258","","","","","","",""
0.0,0.9625298976898193,9.410272270364735e-05,"train",880.0,"2021-11-21 12:41:42.323402","","","","","","",""
0.0,0.7042397856712341,9.474937488991348e-05,"train",900.0,"2021-11-21 12:41:45.874068","","","","","","",""
0.0,0.6575526595115662,9.541040741094719e-05,"train",920.0,"2021-11-21 12:41:49.330400","","","","","","",""
0.0,0.6388048529624939,9.608581021029522e-05,"train",940.0,"2021-11-21 12:41:52.844287","","","","","","",""
0.0,0.8513633608818054,9.677557301288509e-05,"train",960.0,"2021-11-21 12:41:56.342366","","","","","","",""
0.0,0.5183145403862,9.747968532518238e-05,"train",980.0,"2021-11-21 12:42:00.505169","","","","","","",""
0.0,0.7946736812591553,9.819813643535029e-05,"train",1000.0,"2021-11-21 12:42:04.233014","","","","","","",""
0.0,0.6384174227714539,9.893091541341185e-05,"train",1020.0,"2021-11-21 12:42:07.883386","","","","","","",""
0.0,0.9494809508323669,9.967801111141644e-05,"train",1040.0,"2021-11-21 12:42:11.613445","","","","","","",""
0.0,0.9611888527870178,0.00010043941216361023,"train",1060.0,"2021-11-21 12:42:15.298749","","","","","","",""
0.0,"","","train",1074.0,"2021-11-21 12:43:58.142814",0.20510805500982318,0.11875824284063116,0.717410767601963,0.054541445722711815,0.046417010576330256,0.040938774201743994,0.020276618127373986
0.0,"","","val",1074.0,"2021-11-21 12:44:24.871647",0.20317754841702423,0.11947630911754453,0.7154864745740592,0.05278307364380083,0.04619384658255711,0.04080399743796957,0.02024253635242345
1.0,0.8180232644081116,0.00010121510698660771,"train",1080.0,"2021-11-21 12:44:28.902278","","","","","","",""
1.0,0.7198152542114258,0.00010200508377956928,"train",1100.0,"2021-11-21 12:44:32.628901","","","","","","",""
1.0,0.7813857197761536,0.00010280933052437993,"train",1120.0,"2021-11-21 12:44:36.199760","","","","","","",""
1.0,0.8672410249710083,0.00010362783498583223,"train",1140.0,"2021-11-21 12:44:39.827694","","","","","","",""
1.0,0.5409032106399536,0.0001044605847118124,"train",1160.0,"2021-11-21 12:44:43.469113","","","","","","",""
1.0,0.740456223487854,0.0001053075670334907,"train",1180.0,"2021-11-21 12:44:47.771208","","","","","","",""
1.0,0.6702055931091309,0.00010616876906551181,"train",1200.0,"2021-11-21 12:44:51.428906","","","","","","",""
1.0,0.7315160632133484,0.0001070441777061941,"train",1220.0,"2021-11-21 12:44:55.018663","","","","","","",""
1.0,0.6961013078689575,0.00010793377963772563,"train",1240.0,"2021-11-21 12:44:58.778633","","","","","","",""
1.0,0.7694476246833801,0.0001088375613263698,"train",1260.0,"2021-11-21 12:45:02.431022","","","","","","",""
1.0,0.8824662566184998,0.00010975550902266908,"train",1280.0,"2021-11-21 12:45:06.493918","","","","","","",""
1.0,0.9173645377159119,0.00011068760876165474,"train",1300.0,"2021-11-21 12:45:09.986221","","","","","","",""
1.0,0.5993291735649109,0.0001116338463630598,"train",1320.0,"2021-11-21 12:45:13.546272","","","","","","",""
1.0,0.7420912981033325,0.00011259420743153455,"train",1340.0,"2021-11-21 12:45:17.254058","","","","","","",""
1.0,1.014660358428955,0.00011356867735686535,"train",1360.0,"2021-11-21 12:45:20.855513","","","","","","",""
1.0,0.7868804335594177,0.00011455724131419621,"train",1380.0,"2021-11-21 12:45:24.930433","","","","","","",""
1.0,0.6340689659118652,0.00011555988426425654,"train",1400.0,"2021-11-21 12:45:28.479794","","","","","","",""
1.0,0.7202842235565186,0.00011657659095358746,"train",1420.0,"2021-11-21 12:45:32.055249","","","","","","",""
1.0,0.7070037126541138,0.00011760734591477516,"train",1440.0,"2021-11-21 12:45:35.699515","","","","","","",""
1.0,0.787483811378479,0.00011865213346668618,"train",1460.0,"2021-11-21 12:45:39.352041","","","","","","",""
1.0,0.6620384454727173,0.00011971093771470502,"train",1480.0,"2021-11-21 12:45:43.606701","","","","","","",""
1.0,0.661448061466217,0.0001207837425509777,"train",1500.0,"2021-11-21 12:45:47.157514","","","","","","",""
1.0,0.586530864238739,0.00012187053165465503,"train",1520.0,"2021-11-21 12:45:50.822201","","","","","","",""
1.0,0.648223340511322,0.000122971288492142,"train",1540.0,"2021-11-21 12:45:54.505935","","","","","","",""
1.0,0.9139237403869629,0.00012408599631734863,"train",1560.0,"2021-11-21 12:45:58.121534","","","","","","",""
1.0,0.5645291209220886,0.00012521463817194542,"train",1580.0,"2021-11-21 12:46:02.338981","","","","","","",""
1.0,0.722280740737915,0.00012635719688562077,"train",1600.0,"2021-11-21 12:46:06.036418","","","","","","",""
1.0,0.8762169480323792,0.00012751365507634267,"train",1620.0,"2021-11-21 12:46:09.710319","","","","","","",""
1.0,0.6364814043045044,0.0001286839951506226,"train",1640.0,"2021-11-21 12:46:13.396651","","","","","","",""
1.0,0.7157217264175415,0.00012986819930378333,"train",1660.0,"2021-11-21 12:46:17.100067","","","","","","",""
1.0,0.7845519185066223,0.00013106624952023064,"train",1680.0,"2021-11-21 12:46:21.158223","","","","","","",""
1.0,0.4919815957546234,0.00013227812757372545,"train",1700.0,"2021-11-21 12:46:24.750382","","","","","","",""
1.0,0.6730677485466003,0.00013350381502766394,"train",1720.0,"2021-11-21 12:46:28.424713","","","","","","",""
1.0,0.7663909196853638,0.00013474329323535494,"train",1740.0,"2021-11-21 12:46:32.064179","","","","","","",""
1.0,0.6985325813293457,0.0001359965433403059,"train",1760.0,"2021-11-21 12:46:35.729749","","","","","","",""
1.0,0.7774257659912109,0.00013726354627650872,"train",1780.0,"2021-11-21 12:46:39.887130","","","","","","",""
1.0,0.5758023858070374,0.00013854428276873052,"train",1800.0,"2021-11-21 12:46:43.564079","","","","","","",""
1.0,0.5952792167663574,0.00013983873333280506,"train",1820.0,"2021-11-21 12:46:47.283048","","","","","","",""
1.0,0.7005923390388489,0.00014114687827593156,"train",1840.0,"2021-11-21 12:46:50.997628","","","","","","",""
1.0,0.8210676908493042,0.00014246869769697352,"train",1860.0,"2021-11-21 12:46:54.558556","","","","","","",""
1.0,0.5982764363288879,0.00014380417148676054,"train",1880.0,"2021-11-21 12:46:58.082932","","","","","","",""
1.0,0.6590690612792969,0.00014515327932839404,"train",1900.0,"2021-11-21 12:47:02.155980","","","","","","",""
1.0,0.7341570258140564,0.0001465160006975598,"train",1920.0,"2021-11-21 12:47:05.617479","","","","","","",""
1.0,0.6541657447814941,0.00014789231486283454,"train",1940.0,"2021-11-21 12:47:09.291068","","","","","","",""
1.0,0.8057933449745178,0.00014928220088600633,"train",1960.0,"2021-11-21 12:47:12.928576","","","","","","",""
1.0,0.5824767351150513,0.00015068563762239045,"train",1980.0,"2021-11-21 12:47:16.656173","","","","","","",""
1.0,0.6367017030715942,0.00015210260372115238,"train",2000.0,"2021-11-21 12:47:20.852043","","","","","","",""
1.0,0.6313599348068237,0.00015353307762563115,"train",2020.0,"2021-11-21 12:47:24.539324","","","","","","",""
1.0,0.9516932964324951,0.00015497703757366872,"train",2040.0,"2021-11-21 12:47:28.181354","","","","","","",""
1.0,0.9571531414985657,0.00015643446159794,"train",2060.0,"2021-11-21 12:47:31.819155","","","","","","",""
1.0,0.6308792233467102,0.0001579053275262887,"train",2080.0,"2021-11-21 12:47:35.414515","","","","","","",""
1.0,0.5671960115432739,0.00015938961298206183,"train",2100.0,"2021-11-21 12:47:39.602111","","","","","","",""
1.0,0.7794782519340515,0.00016088729538445297,"train",2120.0,"2021-11-21 12:47:43.183291","","","","","","",""
1.0,0.44692113995552063,0.000162398351948844,"train",2140.0,"2021-11-21 12:47:46.850195","","","","","","",""
1.0,"","","train",2148.0,"2021-11-21 12:49:21.914157",0.30968493051007784,0.17886544094317694,0.7738434795617384,0.1635354391289208,0.10676686758535861,0.09673570840161679,0.0559134717059225
1.0,"","","val",2148.0,"2021-11-21 12:49:48.971468",0.3080134523947582,0.18024183844541203,0.770424480438023,0.16028255663820604,0.10677832947764164,0.09530958425922262,0.0549463903459612
2.0,0.5686498284339905,0.00016392275968715297,"train",2160.0,"2021-11-21 12:49:54.022516","","","","","","",""
2.0,0.7005510330200195,0.00016546049540818223,"train",2180.0,"2021-11-21 12:49:57.674350","","","","","","",""
2.0,0.6299980878829956,0.00016701153571797313,"train",2200.0,"2021-11-21 12:50:01.912997","","","","","","",""
2.0,0.7251073718070984,0.00016857585702016015,"train",2220.0,"2021-11-21 12:50:05.640066","","","","","","",""
2.0,0.749410092830658,0.00017015343551633126,"train",2240.0,"2021-11-21 12:50:09.267303","","","","","","",""
2.0,0.8444184064865112,0.0001717442472063892,"train",2260.0,"2021-11-21 12:50:12.875504","","","","","","",""
2.0,0.6244948506355286,0.00017334826788891681,"train",2280.0,"2021-11-21 12:50:16.476301","","","","","","",""
2.0,0.9016353487968445,0.00017496547316154555,"train",2300.0,"2021-11-21 12:50:20.647909","","","","","","",""
2.0,0.7861273288726807,0.00017659583842132573,"train",2320.0,"2021-11-21 12:50:24.328946","","","","","","",""
2.0,0.6427185535430908,0.00017823933886510217,"train",2340.0,"2021-11-21 12:50:28.010913","","","","","","",""
2.0,0.8345673084259033,0.00017989594948989015,"train",2360.0,"2021-11-21 12:50:31.661320","","","","","","",""
2.0,0.5116710066795349,0.00018156564509325753,"train",2380.0,"2021-11-21 12:50:35.271565","","","","","","",""
2.0,0.6127448081970215,0.0001832484002737059,"train",2400.0,"2021-11-21 12:50:39.445665","","","","","","",""
2.0,0.5682215690612793,0.00018494418943105877,"train",2420.0,"2021-11-21 12:50:43.055305","","","","","","",""
2.0,0.5520750284194946,0.00018665298676685078,"train",2440.0,"2021-11-21 12:50:46.656838","","","","","","",""
2.0,0.8680598735809326,0.0001883747662847191,"train",2460.0,"2021-11-21 12:50:50.257051","","","","","","",""
2.0,0.88248211145401,0.00019010950179080112,"train",2480.0,"2021-11-21 12:50:53.952886","","","","","","",""
2.0,1.0366384983062744,0.00019185716689412995,"train",2500.0,"2021-11-21 12:50:58.090532","","","","","","",""
2.0,0.7934668660163879,0.00019361773500703797,"train",2520.0,"2021-11-21 12:51:01.739257","","","","","","",""
2.0,0.8073593378067017,0.00019539117934556168,"train",2540.0,"2021-11-21 12:51:05.318713","","","","","","",""
2.0,0.7876970767974854,0.00019717747292984696,"train",2560.0,"2021-11-21 12:51:08.878715","","","","","","",""
2.0,0.8271511197090149,0.0001989765885845624,"train",2580.0,"2021-11-21 12:51:12.440199","","","","","","",""
2.0,1.0603784322738647,0.00020078849893931014,"train",2600.0,"2021-11-21 12:51:16.516415","","","","","","",""
2.0,0.6101285815238953,0.0002026131764290434,"train",2620.0,"2021-11-21 12:51:20.121423","","","","","","",""
2.0,0.680439293384552,0.00020445059329448614,"train",2640.0,"2021-11-21 12:51:23.756361","","","","","","",""
2.0,0.5938398241996765,0.00020630072158255497,"train",2660.0,"2021-11-21 12:51:27.326981","","","","","","",""
2.0,0.7283718585968018,0.00020816353314678467,"train",2680.0,"2021-11-21 12:51:30.851892","","","","","","",""
2.0,0.6569438576698303,0.00021003899964775505,"train",2700.0,"2021-11-21 12:51:35.040815","","","","","","",""
2.0,0.598839521408081,0.00021192709255352473,"train",2720.0,"2021-11-21 12:51:38.715208","","","","","","",""
2.0,0.722332239151001,0.00021382778314006255,"train",2740.0,"2021-11-21 12:51:42.409228","","","","","","",""
2.0,0.5014737248420715,0.00021574104249168615,"train",2760.0,"2021-11-21 12:51:46.040517","","","","","","",""
2.0,0.6266363263130188,0.00021766684150150133,"train",2780.0,"2021-11-21 12:51:49.714645","","","","","","",""
2.0,0.8041982054710388,0.00021960515087184485,"train",2800.0,"2021-11-21 12:51:53.869815","","","","","","",""
2.0,0.5040745735168457,0.00022155594111472978,"train",2820.0,"2021-11-21 12:51:57.599446","","","","","","",""
2.0,0.6894536018371582,0.0002235191825522959,"train",2840.0,"2021-11-21 12:52:01.237187","","","","","","",""
2.0,0.8400703072547913,0.00022549484531725838,"train",2860.0,"2021-11-21 12:52:04.866456","","","","","","",""
2.0,0.6446388363838196,0.00022748289935336434,"train",2880.0,"2021-11-21 12:52:08.519084","","","","","","",""
2.0,0.5318735241889954,0.00022948331441584964,"train",2900.0,"2021-11-21 12:52:12.712892","","","","","","",""
2.0,0.7515057325363159,0.00023149606007189785,"train",2920.0,"2021-11-21 12:52:16.422619","","","","","","",""
2.0,0.6883508563041687,0.00023352110570110476,"train",2940.0,"2021-11-21 12:52:20.130567","","","","","","",""
2.0,0.7941856384277344,0.00023555842049594305,"train",2960.0,"2021-11-21 12:52:23.847741","","","","","","",""
2.0,0.7089884877204895,0.00023760797346223305,"train",2980.0,"2021-11-21 12:52:27.588093","","","","","","",""
2.0,0.42209354043006897,0.00023966973341961028,"train",3000.0,"2021-11-21 12:52:31.296460","","","","","","",""
2.0,0.9716676473617554,0.0002417436690020044,"train",3020.0,"2021-11-21 12:52:35.583319","","","","","","",""
2.0,0.9853659272193909,0.00024382974865811325,"train",3040.0,"2021-11-21 12:52:39.269241","","","","","","",""
2.0,0.5500575304031372,0.000245927940651884,"train",3060.0,"2021-11-21 12:52:42.986265","","","","","","",""
2.0,0.7423095703125,0.0002480382130629953,"train",3080.0,"2021-11-21 12:52:46.660528","","","","","","",""
2.0,0.7333118915557861,0.0002501605337873443,"train",3100.0,"2021-11-21 12:52:50.360803","","","","","","",""
2.0,0.6487789154052734,0.0002522948705375337,"train",3120.0,"2021-11-21 12:52:54.481192","","","","","","",""
2.0,0.707855224609375,0.00025444119084336303,"train",3140.0,"2021-11-21 12:52:58.056427","","","","","","",""
2.0,0.6417092680931091,0.00025659946205232364,"train",3160.0,"2021-11-21 12:53:01.672004","","","","","","",""
2.0,0.8671654462814331,0.0002587696513300941,"train",3180.0,"2021-11-21 12:53:05.279560","","","","","","",""
2.0,0.53439861536026,0.0002609517256610412,"train",3200.0,"2021-11-21 12:53:08.880689","","","","","","",""
2.0,0.6787972450256348,0.00026314565184872084,"train",3220.0,"2021-11-21 12:53:13.093181","","","","","","",""
2.0,"","","train",3222.0,"2021-11-21 12:54:47.087397",0.3884013679691479,0.2665746369285989,0.829843345765169,0.2718764588064244,0.1792329644447483,0.17327524968940783,0.10790705036266422
2.0,"","","val",3222.0,"2021-11-21 12:55:13.019133",0.38356720398933086,0.2612234222328357,0.82334880788056,0.26622846259894456,0.1780206383854606,0.1719764888136218,0.10647545794093093
3.0,0.7257646918296814,0.0002653513965163838,"train",3240.0,"2021-11-21 12:55:19.205431","","","","","","",""
3.0,0.6405536532402039,0.0002675689261074836,"train",3260.0,"2021-11-21 12:55:22.897340","","","","","","",""
3.0,0.5920003056526184,0.00026979820688618605,"train",3280.0,"2021-11-21 12:55:26.555526","","","","","","",""
3.0,0.536353588104248,0.00027203920493788433,"train",3300.0,"2021-11-21 12:55:30.208201","","","","","","",""
3.0,0.8497903943061829,0.00027429188616971277,"train",3320.0,"2021-11-21 12:55:34.507246","","","","","","",""
3.0,1.1426748037338257,0.0002765562163110668,"train",3340.0,"2021-11-21 12:55:38.132377","","","","","","",""
3.0,0.7149229049682617,0.00027883216091412503,"train",3360.0,"2021-11-21 12:55:41.769663","","","","","","",""
3.0,0.48830798268318176,0.0002811196853543707,"train",3380.0,"2021-11-21 12:55:45.379758","","","","","","",""
3.0,0.6601583361625671,0.00028341875483112134,"train",3400.0,"2021-11-21 12:55:48.994161","","","","","","",""
3.0,0.8580199480056763,0.00028572933436805644,"train",3420.0,"2021-11-21 12:55:53.185117","","","","","","",""
3.0,0.5765077471733093,0.0002880513888137504,"train",3440.0,"2021-11-21 12:55:56.843112","","","","","","",""
3.0,0.5210661292076111,0.0002903848828422063,"train",3460.0,"2021-11-21 12:56:00.509418","","","","","","",""
3.0,0.530312716960907,0.00029272978095339465,"train",3480.0,"2021-11-21 12:56:04.110674","","","","","","",""
3.0,0.7318837642669678,0.00029508604747379243,"train",3500.0,"2021-11-21 12:56:07.708428","","","","","","",""
3.0,0.4272151589393616,0.00029745364655692653,"train",3520.0,"2021-11-21 12:56:11.828290","","","","","","",""
3.0,0.754499614238739,0.0002998325421839181,"train",3540.0,"2021-11-21 12:56:15.453978","","","","","","",""
3.0,0.5920800566673279,0.0003022226981640318,"train",3560.0,"2021-11-21 12:56:18.993924","","","","","","",""
3.0,0.6672974824905396,0.00030462407813522494,"train",3580.0,"2021-11-21 12:56:22.492032","","","","","","",""
3.0,0.7307049036026001,0.0003070366455647027,"train",3600.0,"2021-11-21 12:56:26.103411","","","","","","",""
3.0,0.6443591713905334,0.000309460363749471,"train",3620.0,"2021-11-21 12:56:30.148966","","","","","","",""
3.0,0.6898504495620728,0.0003118951958168978,"train",3640.0,"2021-11-21 12:56:33.686381","","","","","","",""
3.0,0.6222127079963684,0.0003143411047252722,"train",3660.0,"2021-11-21 12:56:37.328317","","","","","","",""
3.0,0.5669199824333191,0.0003167980532643691,"train",3680.0,"2021-11-21 12:56:40.931708","","","","","","",""
3.0,0.45123159885406494,0.0003192660040560141,"train",3700.0,"2021-11-21 12:56:44.500408","","","","","","",""
3.0,0.8315735459327698,0.0003217449195546528,"train",3720.0,"2021-11-21 12:56:48.642236","","","","","","",""
3.0,0.5948891043663025,0.00032423476204792244,"train",3740.0,"2021-11-21 12:56:52.304872","","","","","","",""
3.0,0.4326634705066681,0.0003267354936572248,"train",3760.0,"2021-11-21 12:56:55.930953","","","","","","",""
3.0,0.8308908939361572,0.0003292470763383026,"train",3780.0,"2021-11-21 12:56:59.552777","","","","","","",""
3.0,0.7695305347442627,0.0003317694718818192,"train",3800.0,"2021-11-21 12:57:03.215971","","","","","","",""
3.0,0.6820821762084961,0.00033430264191393853,"train",3820.0,"2021-11-21 12:57:07.534978","","","","","","",""
3.0,0.5961986780166626,0.0003368465478969097,"train",3840.0,"2021-11-21 12:57:11.169271","","","","","","",""
3.0,0.5648357272148132,0.0003394011511296533,"train",3860.0,"2021-11-21 12:57:14.875313","","","","","","",""
3.0,0.9038856625556946,0.0003419664127483496,"train",3880.0,"2021-11-21 12:57:18.570506","","","","","","",""
3.0,0.8771236538887024,0.00034454229372703074,"train",3900.0,"2021-11-21 12:57:22.237665","","","","","","",""
3.0,0.6107220649719238,0.00034712875487817314,"train",3920.0,"2021-11-21 12:57:26.401918","","","","","","",""
3.0,0.4547611474990845,0.00034972575685329526,"train",3940.0,"2021-11-21 12:57:30.102999","","","","","","",""
3.0,0.5531173944473267,0.0003523332601435541,"train",3960.0,"2021-11-21 12:57:33.803850","","","","","","",""
3.0,0.6637102961540222,0.00035495122508034916,"train",3980.0,"2021-11-21 12:57:37.488366","","","","","","",""
3.0,0.832465648651123,0.0003575796118359231,"train",4000.0,"2021-11-21 12:57:41.192905","","","","","","",""
3.0,0.8788376450538635,0.00036021838042396906,"train",4020.0,"2021-11-21 12:57:44.895709","","","","","","",""
3.0,0.5172117948532104,0.0003628674907002389,"train",4040.0,"2021-11-21 12:57:49.059069","","","","","","",""
3.0,0.6523644328117371,0.00036552690236315395,"train",4060.0,"2021-11-21 12:57:52.781491","","","","","","",""
3.0,0.6300882697105408,0.00036819657495441773,"train",4080.0,"2021-11-21 12:57:56.458598","","","","","","",""
3.0,0.7411364912986755,0.0003708764678596317,"train",4100.0,"2021-11-21 12:58:00.119800","","","","","","",""
3.0,0.7288757562637329,0.00037356654030891293,"train",4120.0,"2021-11-21 12:58:03.757726","","","","","","",""
3.0,0.5711764097213745,0.0003762667513775148,"train",4140.0,"2021-11-21 12:58:07.865910","","","","","","",""
3.0,0.6639957427978516,0.0003789770599864498,"train",4160.0,"2021-11-21 12:58:11.450315","","","","","","",""
3.0,0.7945462465286255,0.000381697424903113,"train",4180.0,"2021-11-21 12:58:15.010003","","","","","","",""
3.0,0.5922867059707642,0.0003844278047419108,"train",4200.0,"2021-11-21 12:58:18.592661","","","","","","",""
3.0,0.5303319692611694,0.0003871681579648903,"train",4220.0,"2021-11-21 12:58:22.188748","","","","","","",""
3.0,0.7066640257835388,0.0003899184428823709,"train",4240.0,"2021-11-21 12:58:26.357968","","","","","","",""
3.0,0.7673515677452087,0.0003926786176535783,"train",4260.0,"2021-11-21 12:58:30.024369","","","","","","",""
3.0,0.7433865666389465,0.0003954486402872818,"train",4280.0,"2021-11-21 12:58:33.715510","","","","","","",""
3.0,"","","train",4296.0,"2021-11-21 13:00:11.431921",0.42184384777705014,0.32636284288394557,0.8556981780255163,0.3377003587645607,0.25117277852045206,0.24309725330143006,0.1506500539132728
3.0,"","","val",4296.0,"2021-11-21 13:00:36.912207",0.418067957787313,0.31676612316321984,0.8479746796931019,0.3312935881395307,0.2456772623226603,0.2362397152758594,0.14535674756310893
4.0,0.567954957485199,0.0003982284686424324,"train",4300.0,"2021-11-21 13:00:40.538060","","","","","","",""
4.0,0.6301337480545044,0.0004010180604288045,"train",4320.0,"2021-11-21 13:00:44.251237","","","","","","",""
4.0,0.5880002379417419,0.00040381737320763873,"train",4340.0,"2021-11-21 13:00:48.529408","","","","","","",""
4.0,0.6891440749168396,0.0004066263643922878,"train",4360.0,"2021-11-21 13:00:52.184460","","","","","","",""
4.0,0.5975039005279541,0.0004094449912488646,"train",4380.0,"2021-11-21 13:00:55.833606","","","","","","",""
4.0,0.7347170114517212,0.0004122732108968923,"train",4400.0,"2021-11-21 13:00:59.395581","","","","","","",""
4.0,0.3981465697288513,0.0004151109803099558,"train",4420.0,"2021-11-21 13:01:03.007756","","","","","","",""
4.0,0.7257660031318665,0.00041795825631635764,"train",4440.0,"2021-11-21 13:01:07.214392","","","","","","",""
4.0,0.7669181227684021,0.0004208149955997739,"train",4460.0,"2021-11-21 13:01:10.904392","","","","","","",""
4.0,0.7506378889083862,0.0004236811546999141,"train",4480.0,"2021-11-21 13:01:14.584232","","","","","","",""
4.0,0.757742702960968,0.0004265566900131805,"train",4500.0,"2021-11-21 13:01:18.287312","","","","","","",""
4.0,0.6857619285583496,0.0004294415577933337,"train",4520.0,"2021-11-21 13:01:22.004096","","","","","","",""
4.0,0.7047292590141296,0.00043233571415215717,"train",4540.0,"2021-11-21 13:01:26.287996","","","","","","",""
4.0,0.5799427032470703,0.0004352391150601242,"train",4560.0,"2021-11-21 13:01:29.993246","","","","","","",""
4.0,0.5051672458648682,0.0004381517163470684,"train",4580.0,"2021-11-21 13:01:33.469614","","","","","","",""
4.0,0.5965441465377808,0.00044107347370285683,"train",4600.0,"2021-11-21 13:01:37.098923","","","","","","",""
4.0,0.7556160092353821,0.00044400434267806194,"train",4620.0,"2021-11-21 13:01:40.823201","","","","","","",""
4.0,0.8700195550918579,0.00044694427868463907,"train",4640.0,"2021-11-21 13:01:45.085091","","","","","","",""
4.0,0.6517146229743958,0.00044989323699660467,"train",4660.0,"2021-11-21 13:01:48.790054","","","","","","",""
4.0,0.590529203414917,0.0004528511727507165,"train",4680.0,"2021-11-21 13:01:52.487710","","","","","","",""
4.0,0.5187296271324158,0.00045581804094715645,"train",4700.0,"2021-11-21 13:01:56.145099","","","","","","",""
4.0,0.3975565433502197,0.00045879379645021425,"train",4720.0,"2021-11-21 13:01:59.802031","","","","","","",""
4.0,0.8053587079048157,0.0004617783939889759,"train",4740.0,"2021-11-21 13:02:03.975872","","","","","","",""
4.0,0.503548800945282,0.0004647717881580103,"train",4760.0,"2021-11-21 13:02:07.659387","","","","","","",""
4.0,0.4602050483226776,0.0004677739334180617,"train",4780.0,"2021-11-21 13:02:11.336842","","","","","","",""
4.0,0.4334928095340729,0.00047078478409674144,"train",4800.0,"2021-11-21 13:02:15.006293","","","","","","",""
4.0,0.47091206908226013,0.00047380429438922305,"train",4820.0,"2021-11-21 13:02:18.688696","","","","","","",""
4.0,0.5689914226531982,0.00047683241835893946,"train",4840.0,"2021-11-21 13:02:22.905566","","","","","","",""
4.0,0.5222576260566711,0.0004798691099382815,"train",4860.0,"2021-11-21 13:02:26.569966","","","","","","",""
4.0,0.669416606426239,0.0004829143229292986,"train",4880.0,"2021-11-21 13:02:30.179922","","","","","","",""
4.0,0.864901602268219,0.0004859680110044023,"train",4900.0,"2021-11-21 13:02:33.671143","","","","","","",""
4.0,0.8608866930007935,0.0004890301277070699,"train",4920.0,"2021-11-21 13:02:37.187173","","","","","","",""
4.0,0.7764021158218384,0.0004921006264525525,"train",4940.0,"2021-11-21 13:02:41.203596","","","","","","",""
4.0,0.509113609790802,0.0004951794605285824,"train",4960.0,"2021-11-21 13:02:44.740587","","","","","","",""
4.0,0.5565914511680603,0.0004982665830960853,"train",4980.0,"2021-11-21 13:02:48.261448","","","","","","",""
4.0,0.4436080753803253,0.0005013619471898913,"train",5000.0,"2021-11-21 13:02:51.871930","","","","","","",""
4.0,0.5561567544937134,0.0005044655057194504,"train",5020.0,"2021-11-21 13:02:55.520184","","","","","","",""
4.0,0.6723631620407104,0.0005075772114695486,"train",5040.0,"2021-11-21 13:02:59.202106","","","","","","",""
4.0,0.6357084512710571,0.0005106970171010257,"train",5060.0,"2021-11-21 13:03:03.400317","","","","","","",""
4.0,0.61860191822052,0.0005138248751514966,"train",5080.0,"2021-11-21 13:03:07.033809","","","","","","",""
4.0,0.8864919543266296,0.0005169607380360731,"train",5100.0,"2021-11-21 13:03:10.650313","","","","","","",""
4.0,0.9488711953163147,0.000520104558048086,"train",5120.0,"2021-11-21 13:03:14.267870","","","","","","",""
4.0,0.7179086208343506,0.0005232562873598136,"train",5140.0,"2021-11-21 13:03:17.909791","","","","","","",""
4.0,0.8713923096656799,0.0005264158780232072,"train",5160.0,"2021-11-21 13:03:22.069008","","","","","","",""
4.0,0.46690040826797485,0.0005295832819706228,"train",5180.0,"2021-11-21 13:03:25.749313","","","","","","",""
4.0,0.7478808164596558,0.0005327584510155488,"train",5200.0,"2021-11-21 13:03:29.425308","","","","","","",""
4.0,0.5113789439201355,0.000535941336853343,"train",5220.0,"2021-11-21 13:03:33.094855","","","","","","",""
4.0,0.5588349103927612,0.0005391318910619655,"train",5240.0,"2021-11-21 13:03:36.767922","","","","","","",""
4.0,0.6883779764175415,0.0005423300651027144,"train",5260.0,"2021-11-21 13:03:41.019876","","","","","","",""
4.0,0.48173707723617554,0.0005455358103209663,"train",5280.0,"2021-11-21 13:03:44.698885","","","","","","",""
4.0,0.7508547902107239,0.0005487490779469157,"train",5300.0,"2021-11-21 13:03:48.395477","","","","","","",""
4.0,0.4410403072834015,0.000551969819096316,"train",5320.0,"2021-11-21 13:03:52.004409","","","","","","",""
4.0,0.7435746192932129,0.0005551979847712252,"train",5340.0,"2021-11-21 13:03:55.686720","","","","","","",""
4.0,0.5685002207756042,0.0005584335258607489,"train",5360.0,"2021-11-21 13:03:59.924677","","","","","","",""
4.0,"","","train",5370.0,"2021-11-21 13:05:41.603717",0.4448664774794441,0.3706919515773467,0.8781874017897824,0.3654411007335976,0.25388673511136567,0.2502288694295815,0.1681602435059813
4.0,"","","val",5370.0,"2021-11-21 13:06:08.462346",0.44352313579960573,0.35764998728975483,0.8697597338359521,0.36023500928783087,0.25397064009952797,0.24768487073685547,0.16729065769896362
5.0,0.7667223215103149,0.0005616763931417894,"train",5380.0,"2021-11-21 13:06:13.259687","","","","","","",""
5.0,0.5627471208572388,0.0005649265372797939,"train",5400.0,"2021-11-21 13:06:16.926252","","","","","","",""
5.0,0.5652155876159668,0.0005681839088295046,"train",5420.0,"2021-11-21 13:06:20.583743","","","","","","",""
5.0,0.5073763728141785,0.0005714484582357109,"train",5440.0,"2021-11-21 13:06:24.204413","","","","","","",""
5.0,0.5804980397224426,0.0005747201358340048,"train",5460.0,"2021-11-21 13:06:28.507354","","","","","","",""
5.0,0.711052417755127,0.0005779988918515344,"train",5480.0,"2021-11-21 13:06:32.127841","","","","","","",""
5.0,0.5640960931777954,0.0005812846764077623,"train",5500.0,"2021-11-21 13:06:35.861891","","","","","","",""
5.0,0.9782021045684814,0.0005845774395152243,"train",5520.0,"2021-11-21 13:06:39.630490","","","","","","",""
5.0,0.6101921200752258,0.0005878771310802895,"train",5540.0,"2021-11-21 13:06:43.134786","","","","","","",""
5.0,0.8244454860687256,0.0005911837009039229,"train",5560.0,"2021-11-21 13:06:47.269846","","","","","","",""
5.0,0.4058530926704407,0.0005944970986824485,"train",5580.0,"2021-11-21 13:06:50.734618","","","","","","",""
5.0,0.719867467880249,0.000597817274008315,"train",5600.0,"2021-11-21 13:06:54.192477","","","","","","",""
5.0,0.5662927031517029,0.0006011441763708635,"train",5620.0,"2021-11-21 13:06:57.763956","","","","","","",""
5.0,0.41756558418273926,0.0006044777551570929,"train",5640.0,"2021-11-21 13:07:01.351061","","","","","","",""
5.0,0.5004517436027527,0.000607817959652434,"train",5660.0,"2021-11-21 13:07:05.495062","","","","","","",""
5.0,0.5583170056343079,0.0006111647390415189,"train",5680.0,"2021-11-21 13:07:09.096186","","","","","","",""
5.0,0.6853803992271423,0.0006145180424089525,"train",5700.0,"2021-11-21 13:07:12.724740","","","","","","",""
5.0,0.49269434809684753,0.0006178778187400902,"train",5720.0,"2021-11-21 13:07:16.245979","","","","","","",""
5.0,0.4378518760204315,0.0006212440169218129,"train",5740.0,"2021-11-21 13:07:19.814954","","","","","","",""
5.0,0.6523557901382446,0.0006246165857433027,"train",5760.0,"2021-11-21 13:07:23.959886","","","","","","",""
5.0,0.6662360429763794,0.0006279954738968251,"train",5780.0,"2021-11-21 13:07:27.586964","","","","","","",""
5.0,0.9258328080177307,0.0006313806299785075,"train",5800.0,"2021-11-21 13:07:31.228945","","","","","","",""
5.0,0.7817456722259521,0.0006347720024891209,"train",5820.0,"2021-11-21 13:07:34.853618","","","","","","",""
5.0,0.5574406981468201,0.0006381695398348657,"train",5840.0,"2021-11-21 13:07:38.468167","","","","","","",""
5.0,0.5120789408683777,0.0006415731903281542,"train",5860.0,"2021-11-21 13:07:42.613583","","","","","","",""
5.0,0.46334484219551086,0.0006449829021883979,"train",5880.0,"2021-11-21 13:07:46.261406","","","","","","",""
5.0,0.48241761326789856,0.0006483986235427956,"train",5900.0,"2021-11-21 13:07:49.887598","","","","","","",""
5.0,0.46850404143333435,0.0006518203024271213,"train",5920.0,"2021-11-21 13:07:53.447446","","","","","","",""
5.0,0.5940306782722473,0.0006552478867865169,"train",5940.0,"2021-11-21 13:07:57.136103","","","","","","",""
5.0,0.8100232481956482,0.0006586813244762815,"train",5960.0,"2021-11-21 13:08:00.841245","","","","","","",""
5.0,0.5633137822151184,0.0006621205632626672,"train",5980.0,"2021-11-21 13:08:04.939879","","","","","","",""
5.0,0.6146817803382874,0.0006655655508236717,"train",6000.0,"2021-11-21 13:08:08.499154","","","","","","",""
5.0,0.5662854313850403,0.0006690162347498356,"train",6020.0,"2021-11-21 13:08:12.013633","","","","","","",""
5.0,0.33482471108436584,0.0006724725625450389,"train",6040.0,"2021-11-21 13:08:15.530958","","","","","","",""
5.0,0.5391046404838562,0.0006759344816273003,"train",6060.0,"2021-11-21 13:08:19.100311","","","","","","",""
5.0,0.4582570195198059,0.0006794019393295771,"train",6080.0,"2021-11-21 13:08:23.278331","","","","","","",""
5.0,0.7506651878356934,0.0006828748829005654,"train",6100.0,"2021-11-21 13:08:26.910256","","","","","","",""
5.0,0.5115123987197876,0.0006863532595055041,"train",6120.0,"2021-11-21 13:08:30.568135","","","","","","",""
5.0,0.37532562017440796,0.0006898370162269777,"train",6140.0,"2021-11-21 13:08:34.141323","","","","","","",""
5.0,0.8423448204994202,0.0006933261000657217,"train",6160.0,"2021-11-21 13:08:37.715231","","","","","","",""
5.0,0.6188533902168274,0.000696820457941429,"train",6180.0,"2021-11-21 13:08:41.855682","","","","","","",""
5.0,0.4415939152240753,0.000700320036693557,"train",6200.0,"2021-11-21 13:08:45.500191","","","","","","",""
5.0,0.6633166074752808,0.0007038247830821358,"train",6220.0,"2021-11-21 13:08:49.093417","","","","","","",""
5.0,0.6935930252075195,0.0007073346437885815,"train",6240.0,"2021-11-21 13:08:52.671663","","","","","","",""
5.0,0.4387790262699127,0.000710849565416502,"train",6260.0,"2021-11-21 13:08:56.278718","","","","","","",""
5.0,0.5114132165908813,0.0007143694944925134,"train",6280.0,"2021-11-21 13:09:00.480380","","","","","","",""
5.0,0.6227176785469055,0.0007178943774670524,"train",6300.0,"2021-11-21 13:09:04.134930","","","","","","",""
5.0,0.8685804009437561,0.0007214241607151901,"train",6320.0,"2021-11-21 13:09:07.831344","","","","","","",""
5.0,0.45790600776672363,0.000724958790537449,"train",6340.0,"2021-11-21 13:09:11.484344","","","","","","",""
5.0,0.5418753623962402,0.0007284982131606195,"train",6360.0,"2021-11-21 13:09:15.151063","","","","","","",""
5.0,0.5833243727684021,0.0007320423747385781,"train",6380.0,"2021-11-21 13:09:19.260595","","","","","","",""
5.0,0.5477144122123718,0.0007355912213531054,"train",6400.0,"2021-11-21 13:09:22.902747","","","","","","",""
5.0,0.4526069760322571,0.000739144699014708,"train",6420.0,"2021-11-21 13:09:26.501405","","","","","","",""
5.0,0.456360399723053,0.0007427027536634401,"train",6440.0,"2021-11-21 13:09:30.066645","","","","","","",""
5.0,"","","train",6444.0,"2021-11-21 13:11:10.443053",0.4492759950520265,0.40352472045632964,0.8958727521505365,0.38848048276824193,0.29565196721258974,0.29751351260461467,0.19173146764444587
5.0,"","","val",6444.0,"2021-11-21 13:11:35.983502",0.44572654528586336,0.38306066349788287,0.8886374617114724,0.3818434357010884,0.2875338224691045,0.2874563315777133,0.18580298670013948
6.0,0.42080220580101013,0.0007462653311697235,"train",6460.0,"2021-11-21 13:11:41.935860","","","","","","",""
6.0,0.5524950623512268,0.0007498323773351733,"train",6480.0,"2021-11-21 13:11:46.165618","","","","","","",""
6.0,0.8915973901748657,0.0007534038378934223,"train",6500.0,"2021-11-21 13:11:49.865553","","","","","","",""
6.0,0.5566777586936951,0.0007569796585109453,"train",6520.0,"2021-11-21 13:11:53.467303","","","","","","",""
6.0,0.6750548481941223,0.0007605597847878862,"train",6540.0,"2021-11-21 13:11:57.052169","","","","","","",""
6.0,0.5044487714767456,0.0007641441622588871,"train",6560.0,"2021-11-21 13:12:00.585833","","","","","","",""
6.0,0.5344075560569763,0.0007677327363939143,"train",6580.0,"2021-11-21 13:12:04.781043","","","","","","",""
6.0,0.9721121788024902,0.0007713254525990895,"train",6600.0,"2021-11-21 13:12:08.363421","","","","","","",""
6.0,0.7451941967010498,0.0007749222562175211,"train",6620.0,"2021-11-21 13:12:11.988831","","","","","","",""
6.0,0.5075528621673584,0.000778523092530133,"train",6640.0,"2021-11-21 13:12:15.576801","","","","","","",""
6.0,0.4069267511367798,0.0007821279067564996,"train",6660.0,"2021-11-21 13:12:19.172268","","","","","","",""
6.0,0.4397250711917877,0.0007857366440556786,"train",6680.0,"2021-11-21 13:12:23.391934","","","","","","",""
6.0,0.5758987665176392,0.0007893492495270442,"train",6700.0,"2021-11-21 13:12:26.996383","","","","","","",""
6.0,0.6026892066001892,0.0007929656682111239,"train",6720.0,"2021-11-21 13:12:30.504434","","","","","","",""
6.0,0.4530066251754761,0.0007965858450904332,"train",6740.0,"2021-11-21 13:12:34.068783","","","","","","",""
6.0,0.6107032895088196,0.000800209725090314,"train",6760.0,"2021-11-21 13:12:37.679635","","","","","","",""
6.0,0.8290364742279053,0.0008038372530797706,"train",6780.0,"2021-11-21 13:12:41.790716","","","","","","",""
6.0,0.5289527177810669,0.0008074683738723109,"train",6800.0,"2021-11-21 13:12:45.389312","","","","","","",""
6.0,0.4956355392932892,0.0008111030322267832,"train",6820.0,"2021-11-21 13:12:49.066051","","","","","","",""
6.0,0.6979871988296509,0.0008147411728482187,"train",6840.0,"2021-11-21 13:12:52.741618","","","","","","",""
6.0,0.9900355339050293,0.0008183827403886721,"train",6860.0,"2021-11-21 13:12:56.301159","","","","","","",""
6.0,0.38103950023651123,0.0008220276794480633,"train",6880.0,"2021-11-21 13:13:00.363150","","","","","","",""
6.0,0.5312903523445129,0.0008256759345750203,"train",6900.0,"2021-11-21 13:13:03.912966","","","","","","",""
6.0,0.6228827834129333,0.0008293274502677234,"train",6920.0,"2021-11-21 13:13:07.530831","","","","","","",""
6.0,0.41657382249832153,0.0008329821709747486,"train",6940.0,"2021-11-21 13:13:11.155944","","","","","","",""
6.0,0.4591659605503082,0.0008366400410959136,"train",6960.0,"2021-11-21 13:13:14.764683","","","","","","",""
6.0,0.46138569712638855,0.000840301004983123,"train",6980.0,"2021-11-21 13:13:18.947076","","","","","","",""
6.0,0.7605828642845154,0.0008439650069412147,"train",7000.0,"2021-11-21 13:13:22.581968","","","","","","",""
6.0,0.5462494492530823,0.0008476319912288095,"train",7020.0,"2021-11-21 13:13:26.174710","","","","","","",""
6.0,0.6272599101066589,0.0008513019020591544,"train",7040.0,"2021-11-21 13:13:29.778464","","","","","","",""
6.0,0.5471034049987793,0.0008549746836009771,"train",7060.0,"2021-11-21 13:13:33.395349","","","","","","",""
6.0,0.6243146061897278,0.0008586502799793306,"train",7080.0,"2021-11-21 13:13:37.102188","","","","","","",""
6.0,0.5386031866073608,0.0008623286352764453,"train",7100.0,"2021-11-21 13:13:41.362306","","","","","","",""
6.0,0.6043896675109863,0.0008660096935325802,"train",7120.0,"2021-11-21 13:13:44.909843","","","","","","",""
6.0,0.7793984413146973,0.0008696933987468731,"train",7140.0,"2021-11-21 13:13:48.539618","","","","","","",""
6.0,0.5745651125907898,0.0008733796948781924,"train",7160.0,"2021-11-21 13:13:52.163655","","","","","","",""
6.0,0.7345699667930603,0.0008770685258459915,"train",7180.0,"2021-11-21 13:13:55.826773","","","","","","",""
6.0,0.9218615293502808,0.0008807598355311595,"train",7200.0,"2021-11-21 13:14:00.025551","","","","","","",""
6.0,0.4351705312728882,0.0008844535677768764,"train",7220.0,"2021-11-21 13:14:03.700956","","","","","","",""
6.0,0.44819536805152893,0.0008881496663894681,"train",7240.0,"2021-11-21 13:14:07.306787","","","","","","",""
6.0,0.5864238142967224,0.0008918480751392592,"train",7260.0,"2021-11-21 13:14:10.919027","","","","","","",""
6.0,0.4417019784450531,0.00089554873776143,"train",7280.0,"2021-11-21 13:14:14.562446","","","","","","",""
6.0,1.0786640644073486,0.0008992515979568724,"train",7300.0,"2021-11-21 13:14:18.784170","","","","","","",""
6.0,0.8160945177078247,0.0009029565993930457,"train",7320.0,"2021-11-21 13:14:22.429171","","","","","","",""
6.0,0.5383938550949097,0.0009066636857048339,"train",7340.0,"2021-11-21 13:14:26.064055","","","","","","",""
6.0,0.5660768747329712,0.0009103728004954039,"train",7360.0,"2021-11-21 13:14:29.741654","","","","","","",""
6.0,0.39990320801734924,0.0009140838873370617,"train",7380.0,"2021-11-21 13:14:33.380342","","","","","","",""
6.0,0.32869377732276917,0.0009177968897721136,"train",7400.0,"2021-11-21 13:14:37.428914","","","","","","",""
6.0,0.5767740607261658,0.0009215117513137218,"train",7420.0,"2021-11-21 13:14:40.913508","","","","","","",""
6.0,0.606521487236023,0.0009252284154467663,"train",7440.0,"2021-11-21 13:14:44.492143","","","","","","",""
6.0,0.5700947046279907,0.0009289468256287042,"train",7460.0,"2021-11-21 13:14:48.136400","","","","","","",""
6.0,0.6638110280036926,0.0009326669252904287,"train",7480.0,"2021-11-21 13:14:51.782317","","","","","","",""
6.0,0.7203260660171509,0.0009363886578371307,"train",7500.0,"2021-11-21 13:14:55.946359","","","","","","",""
6.0,"","","train",7518.0,"2021-11-21 13:16:32.966643",0.45981226806374154,0.4349467924046514,0.9043356612641469,0.4193990663453067,0.34110389247605755,0.34269489072489895,0.21745882010057882
6.0,"","","val",7518.0,"2021-11-21 13:16:59.527112",0.4534384784877653,0.410940777809317,0.8968125364773639,0.4100113677556736,0.32295883734039665,0.3239678852122434,0.2033819625648564
7.0,0.5855441093444824,0.0009401119666491604,"train",7520.0,"2021-11-21 13:17:02.779015","","","","","","",""
7.0,0.6154130101203918,0.0009438367950828869,"train",7540.0,"2021-11-21 13:17:06.587712","","","","","","",""
7.0,0.8033391237258911,0.000947563086471561,"train",7560.0,"2021-11-21 13:17:10.235591","","","","","","",""
7.0,0.4257050156593323,0.0009512907841261783,"train",7580.0,"2021-11-21 13:17:13.876791","","","","","","",""
7.0,0.40057986974716187,0.0009550198313363391,"train",7600.0,"2021-11-21 13:17:18.125477","","","","","","",""
7.0,0.3671521246433258,0.0009587501713711128,"train",7620.0,"2021-11-21 13:17:21.773036","","","","","","",""
7.0,0.39982613921165466,0.0009624817474799023,"train",7640.0,"2021-11-21 13:17:25.388933","","","","","","",""
7.0,0.642414391040802,0.0009662145028933038,"train",7660.0,"2021-11-21 13:17:28.999703","","","","","","",""
7.0,0.39266058802604675,0.0009699483808239733,"train",7680.0,"2021-11-21 13:17:32.606440","","","","","","",""
7.0,0.4061417281627655,0.0009736833244674895,"train",7700.0,"2021-11-21 13:17:36.696705","","","","","","",""
7.0,0.5019136071205139,0.0009774192770032192,"train",7720.0,"2021-11-21 13:17:40.297594","","","","","","",""
7.0,0.6441475749015808,0.0009811561815951785,"train",7740.0,"2021-11-21 13:17:43.884153","","","","","","",""
7.0,0.387695848941803,0.0009848939813929015,"train",7760.0,"2021-11-21 13:17:47.490603","","","","","","",""
7.0,0.5646241307258606,0.0009886326195323026,"train",7780.0,"2021-11-21 13:17:51.083912","","","","","","",""
7.0,0.5654837489128113,0.0009923720391365428,"train",7800.0,"2021-11-21 13:17:55.209551","","","","","","",""
7.0,0.3946197032928467,0.000996112183316893,"train",7820.0,"2021-11-21 13:17:58.840181","","","","","","",""
7.0,0.5991696119308472,0.0009998529951736029,"train",7840.0,"2021-11-21 13:18:02.462447","","","","","","",""
7.0,0.4540741443634033,0.0010035944177967638,"train",7860.0,"2021-11-21 13:18:06.104231","","","","","","",""
7.0,0.4748833477497101,0.0010073363942671744,"train",7880.0,"2021-11-21 13:18:09.704676","","","","","","",""
7.0,0.8247231841087341,0.0010110788676572094,"train",7900.0,"2021-11-21 13:18:13.830817","","","","","","",""
7.0,0.4973718523979187,0.0010148217810316822,"train",7920.0,"2021-11-21 13:18:17.430149","","","","","","",""
7.0,0.4926576018333435,0.0010185650774487127,"train",7940.0,"2021-11-21 13:18:21.086574","","","","","","",""
7.0,0.6199310421943665,0.0010223086999605951,"train",7960.0,"2021-11-21 13:18:24.826706","","","","","","",""
7.0,0.6963619589805603,0.0010260525916146609,"train",7980.0,"2021-11-21 13:18:28.466369","","","","","","",""
7.0,0.7477505207061768,0.0010297966954541469,"train",8000.0,"2021-11-21 13:18:32.634872","","","","","","",""
7.0,0.6333534121513367,0.001033540954519064,"train",8020.0,"2021-11-21 13:18:36.233554","","","","","","",""
7.0,0.7064536213874817,0.0010372853118470592,"train",8040.0,"2021-11-21 13:18:39.972939","","","","","","",""
7.0,0.7824878692626953,0.0010410297104742857,"train",8060.0,"2021-11-21 13:18:43.572162","","","","","","",""
7.0,0.7642590999603271,0.0010447740934362692,"train",8080.0,"2021-11-21 13:18:47.237287","","","","","","",""
7.0,0.410807341337204,0.0010485184037687715,"train",8100.0,"2021-11-21 13:18:50.995881","","","","","","",""
7.0,0.5309077501296997,0.0010522625845086615,"train",8120.0,"2021-11-21 13:18:55.246762","","","","","","",""
7.0,0.47503897547721863,0.0010560065786947796,"train",8140.0,"2021-11-21 13:18:58.922716","","","","","","",""
7.0,0.6087433099746704,0.0010597503293688013,"train",8160.0,"2021-11-21 13:19:02.612705","","","","","","",""
7.0,0.7992438077926636,0.001063493779576111,"train",8180.0,"2021-11-21 13:19:06.336587","","","","","","",""
7.0,0.47769004106521606,0.0010672368723666614,"train",8200.0,"2021-11-21 13:19:10.030874","","","","","","",""
7.0,0.8101627826690674,0.0010709795507958426,"train",8220.0,"2021-11-21 13:19:14.209561","","","","","","",""
7.0,1.1428142786026,0.0010747217579253504,"train",8240.0,"2021-11-21 13:19:17.784271","","","","","","",""
7.0,0.5325124263763428,0.0010784634368240487,"train",8260.0,"2021-11-21 13:19:21.362977","","","","","","",""
7.0,0.5013020634651184,0.0010822045305688382,"train",8280.0,"2021-11-21 13:19:24.900617","","","","","","",""
7.0,0.48404034972190857,0.0010859449822455227,"train",8300.0,"2021-11-21 13:19:28.389496","","","","","","",""
7.0,0.6493834257125854,0.001089684734949672,"train",8320.0,"2021-11-21 13:19:32.416231","","","","","","",""
7.0,0.38902026414871216,0.00109342373178749,"train",8340.0,"2021-11-21 13:19:35.809139","","","","","","",""
7.0,0.6560220718383789,0.0010971619158766821,"train",8360.0,"2021-11-21 13:19:39.218034","","","","","","",""
7.0,0.6517981290817261,0.0011008992303473152,"train",8380.0,"2021-11-21 13:19:42.710165","","","","","","",""
7.0,0.456394225358963,0.001104635618342687,"train",8400.0,"2021-11-21 13:19:46.326378","","","","","","",""
7.0,0.5370972156524658,0.001108371023020191,"train",8420.0,"2021-11-21 13:19:50.455122","","","","","","",""
7.0,0.4843161404132843,0.0011121053875521787,"train",8440.0,"2021-11-21 13:19:54.090289","","","","","","",""
7.0,0.4564964771270752,0.0011158386551268257,"train",8460.0,"2021-11-21 13:19:57.728657","","","","","","",""
7.0,0.534599781036377,0.0011195707689489972,"train",8480.0,"2021-11-21 13:20:01.308693","","","","","","",""
7.0,0.5399745106697083,0.0011233016722411097,"train",8500.0,"2021-11-21 13:20:04.931193","","","","","","",""
7.0,0.41491538286209106,0.0011270313082439951,"train",8520.0,"2021-11-21 13:20:09.205724","","","","","","",""
7.0,0.718741238117218,0.001130759620217767,"train",8540.0,"2021-11-21 13:20:12.846700","","","","","","",""
7.0,0.9411985278129578,0.0011344865514426794,"train",8560.0,"2021-11-21 13:20:16.502400","","","","","","",""
7.0,0.44630616903305054,0.0011382120452199938,"train",8580.0,"2021-11-21 13:20:20.124303","","","","","","",""
7.0,"","","train",8592.0,"2021-11-21 13:22:00.705859",0.4779596885687259,0.4765655920929171,0.9197264114196463,0.4313106365868533,0.34191312222082654,0.35358934850086043,0.2227851078297382
7.0,"","","val",8592.0,"2021-11-21 13:22:26.271680",0.47181955235996753,0.4419523304241852,0.9097221673574533,0.4221569412492858,0.3256023603795813,0.33387865099274394,0.21116957077101087
8.0,0.5373548865318298,0.001141936044872839,"train",8600.0,"2021-11-21 13:22:30.625752","","","","","","",""
8.0,0.5025277137756348,0.0011456584937470744,"train",8620.0,"2021-11-21 13:22:34.863724","","","","","","",""
8.0,0.47662436962127686,0.0011493793352121522,"train",8640.0,"2021-11-21 13:22:38.514250","","","","","","",""
8.0,0.50360107421875,0.0011530985126619784,"train",8660.0,"2021-11-21 13:22:42.145428","","","","","","",""
8.0,0.5366076231002808,0.001156815969515773,"train",8680.0,"2021-11-21 13:22:45.783664","","","","","","",""
8.0,0.3469213843345642,0.001160531649218934,"train",8700.0,"2021-11-21 13:22:49.436361","","","","","","",""
8.0,0.5309068560600281,0.001164245495243894,"train",8720.0,"2021-11-21 13:22:53.603529","","","","","","",""
8.0,0.5288213491439819,0.0011679574510909817,"train",8740.0,"2021-11-21 13:22:57.227355","","","","","","",""
8.0,0.5574708580970764,0.0011716674602892828,"train",8760.0,"2021-11-21 13:23:00.829966","","","","","","",""
8.0,0.5043419003486633,0.0011753754663974968,"train",8780.0,"2021-11-21 13:23:04.486972","","","","","","",""
8.0,0.4600081145763397,0.0011790814130047968,"train",8800.0,"2021-11-21 13:23:08.259132","","","","","","",""
8.0,0.6268750429153442,0.001182785243731688,"train",8820.0,"2021-11-21 13:23:12.392938","","","","","","",""
8.0,0.5163357853889465,0.0011864869022308656,"train",8840.0,"2021-11-21 13:23:16.004387","","","","","","",""
8.0,0.6688218116760254,0.0011901863321880693,"train",8860.0,"2021-11-21 13:23:19.610213","","","","","","",""
8.0,0.584122359752655,0.001193883477322945,"train",8880.0,"2021-11-21 13:23:23.321894","","","","","","",""
8.0,0.48730650544166565,0.0011975782813898961,"train",8900.0,"2021-11-21 13:23:27.065338","","","","","","",""
8.0,0.5651153326034546,0.0012012706881789417,"train",8920.0,"2021-11-21 13:23:31.347781","","","","","","",""
8.0,0.4469154477119446,0.001204960641516572,"train",8940.0,"2021-11-21 13:23:35.063268","","","","","","",""
8.0,0.35815250873565674,0.0012086480852666014,"train",8960.0,"2021-11-21 13:23:38.799475","","","","","","",""
8.0,0.48058241605758667,0.0012123329633310235,"train",8980.0,"2021-11-21 13:23:42.514886","","","","","","",""
8.0,0.8123890161514282,0.0012160152196508643,"train",9000.0,"2021-11-21 13:23:46.224949","","","","","","",""
8.0,0.36248332262039185,0.0012196947982070355,"train",9020.0,"2021-11-21 13:23:50.514539","","","","","","",""
8.0,0.5920075178146362,0.0012233716430211856,"train",9040.0,"2021-11-21 13:23:54.285120","","","","","","",""
8.0,0.5332423448562622,0.001227045698156553,"train",9060.0,"2021-11-21 13:23:57.917539","","","","","","",""
8.0,0.45071595907211304,0.0012307169077188148,"train",9080.0,"2021-11-21 13:24:01.539989","","","","","","",""
8.0,0.6398947238922119,0.0012343852158569401,"train",9100.0,"2021-11-21 13:24:05.139879","","","","","","",""
8.0,0.5255321264266968,0.0012380505667640377,"train",9120.0,"2021-11-21 13:24:09.350437","","","","","","",""
8.0,0.4023425579071045,0.0012417129046782046,"train",9140.0,"2021-11-21 13:24:13.024690","","","","","","",""
8.0,0.42206016182899475,0.0012453721738833758,"train",9160.0,"2021-11-21 13:24:16.634534","","","","","","",""
8.0,0.5830153226852417,0.001249028318710172,"train",9180.0,"2021-11-21 13:24:20.233422","","","","","","",""
8.0,0.6516878008842468,0.0012526812835367447,"train",9200.0,"2021-11-21 13:24:23.862241","","","","","","",""
8.0,0.6609072089195251,0.0012563310127896242,"train",9220.0,"2021-11-21 13:24:27.472434","","","","","","",""
8.0,0.5527650117874146,0.0012599774509445645,"train",9240.0,"2021-11-21 13:24:31.643602","","","","","","",""
8.0,0.5854470133781433,0.0012636205425273874,"train",9260.0,"2021-11-21 13:24:35.361082","","","","","","",""
8.0,0.7187215685844421,0.0012672602321148268,"train",9280.0,"2021-11-21 13:24:38.967541","","","","","","",""
8.0,0.620296061038971,0.0012708964643353732,"train",9300.0,"2021-11-21 13:24:42.536879","","","","","","",""
8.0,0.5762847065925598,0.001274529183870114,"train",9320.0,"2021-11-21 13:24:46.113830","","","","","","",""
8.0,0.43394047021865845,0.0012781583354535748,"train",9340.0,"2021-11-21 13:24:50.303146","","","","","","",""
8.0,0.48672789335250854,0.0012817838638745646,"train",9360.0,"2021-11-21 13:24:54.084358","","","","","","",""
8.0,0.6143171191215515,0.001285405713977009,"train",9380.0,"2021-11-21 13:24:57.818761","","","","","","",""
8.0,0.47547298669815063,0.0012890238306607947,"train",9400.0,"2021-11-21 13:25:01.637310","","","","","","",""
8.0,0.24901987612247467,0.001292638158882606,"train",9420.0,"2021-11-21 13:25:05.310145","","","","","","",""
8.0,0.5598384737968445,0.0012962486436567603,"train",9440.0,"2021-11-21 13:25:09.469227","","","","","","",""
8.0,0.4205436110496521,0.0012998552300560484,"train",9460.0,"2021-11-21 13:25:13.169467","","","","","","",""
8.0,0.7968049049377441,0.0013034578632125668,"train",9480.0,"2021-11-21 13:25:16.894353","","","","","","",""
8.0,0.8134940266609192,0.0013070564883185534,"train",9500.0,"2021-11-21 13:25:20.623712","","","","","","",""
8.0,0.8608652353286743,0.001310651050627223,"train",9520.0,"2021-11-21 13:25:24.329102","","","","","","",""
8.0,0.4773188531398773,0.001314241495453598,"train",9540.0,"2021-11-21 13:25:28.586562","","","","","","",""
8.0,0.6341176629066467,0.00131782776817534,"train",9560.0,"2021-11-21 13:25:32.225668","","","","","","",""
8.0,0.49343132972717285,0.0013214098142335837,"train",9580.0,"2021-11-21 13:25:35.991690","","","","","","",""
8.0,0.8053647875785828,0.001324987579133764,"train",9600.0,"2021-11-21 13:25:39.762664","","","","","","",""
8.0,0.6368644833564758,0.0013285610084464463,"train",9620.0,"2021-11-21 13:25:43.467533","","","","","","",""
8.0,0.5585060119628906,0.001332130047808155,"train",9640.0,"2021-11-21 13:25:47.668213","","","","","","",""
8.0,0.4227942228317261,0.001335694642922199,"train",9660.0,"2021-11-21 13:25:51.286683","","","","","","",""
8.0,"","","train",9666.0,"2021-11-21 13:27:26.448734",0.4666666666666667,0.47381713534454156,0.9160162281431817,0.4053861286030427,0.3544641654330883,0.35111518106506673,0.22101055940504116
8.0,"","","val",9666.0,"2021-11-21 13:27:52.055480",0.45906297112373884,0.437588521414186,0.9040235427221283,0.3936161217819913,0.3429368886768441,0.3387023822944641,0.21155571010088942
9.0,0.683678150177002,0.0013392547395594985,"train",9680.0,"2021-11-21 13:27:57.646886","","","","","","",""
9.0,0.7451781034469604,0.001342810283559412,"train",9700.0,"2021-11-21 13:28:01.363839","","","","","","",""
9.0,0.6115778684616089,0.0013463612208305564,"train",9720.0,"2021-11-21 13:28:05.031480","","","","","","",""
9.0,0.6267544627189636,0.0013499074973516321,"train",9740.0,"2021-11-21 13:28:09.341626","","","","","","",""
9.0,0.45408952236175537,0.0013534490591722464,"train",9760.0,"2021-11-21 13:28:13.006955","","","","","","",""
9.0,0.4549466073513031,0.0013569858524137305,"train",9780.0,"2021-11-21 13:28:16.551754","","","","","","",""
9.0,0.6550796627998352,0.001360517823269962,"train",9800.0,"2021-11-21 13:28:20.209164","","","","","","",""
9.0,0.6655977368354797,0.0013640449180081834,"train",9820.0,"2021-11-21 13:28:23.878625","","","","","","",""
9.0,0.46129316091537476,0.0013675670829698173,"train",9840.0,"2021-11-21 13:28:28.073627","","","","","","",""
9.0,0.48852473497390747,0.0013710842645712853,"train",9860.0,"2021-11-21 13:28:31.679045","","","","","","",""
9.0,0.46382686495780945,0.0013745964093048219,"train",9880.0,"2021-11-21 13:28:35.262860","","","","","","",""
9.0,0.7088662981987,0.0013781034637392886,"train",9900.0,"2021-11-21 13:28:38.849485","","","","","","",""
9.0,0.7233109474182129,0.0013816053745209864,"train",9920.0,"2021-11-21 13:28:42.452712","","","","","","",""
9.0,0.34093546867370605,0.0013851020883744697,"train",9940.0,"2021-11-21 13:28:46.694967","","","","","","",""
9.0,0.47662943601608276,0.001388593552103353,"train",9960.0,"2021-11-21 13:28:50.414163","","","","","","",""
9.0,0.4962010681629181,0.0013920797125911233,"train",9980.0,"2021-11-21 13:28:54.242700","","","","","","",""
9.0,0.3815324604511261,0.001395560516801947,"train",10000.0,"2021-11-21 13:28:58.000801","","","","","","",""
9.0,0.526249885559082,0.0013990359117814774,"train",10020.0,"2021-11-21 13:29:01.825643","","","","","","",""
9.0,0.4955459237098694,0.0014025058446576583,"train",10040.0,"2021-11-21 13:29:06.060888","","","","","","",""
9.0,0.6019352078437805,0.0014059702626415317,"train",10060.0,"2021-11-21 13:29:09.808725","","","","","","",""
9.0,0.710553765296936,0.0014094291130280377,"train",10080.0,"2021-11-21 13:29:13.551238","","","","","","",""
9.0,0.77789705991745,0.0014128823431968183,"train",10100.0,"2021-11-21 13:29:17.251951","","","","","","",""
9.0,0.32972636818885803,0.001416329900613017,"train",10120.0,"2021-11-21 13:29:20.931280","","","","","","",""
9.0,0.3835936188697815,0.0014197717328280782,"train",10140.0,"2021-11-21 13:29:25.112427","","","","","","",""
9.0,0.6241461634635925,0.0014232077874805457,"train",10160.0,"2021-11-21 13:29:28.810268","","","","","","",""
9.0,0.6486121416091919,0.0014266380122968589,"train",10180.0,"2021-11-21 13:29:32.480241","","","","","","",""
9.0,0.6397417783737183,0.0014300623550921468,"train",10200.0,"2021-11-21 13:29:36.135237","","","","","","",""
9.0,0.5980024337768555,0.0014334807637710243,"train",10220.0,"2021-11-21 13:29:39.798924","","","","","","",""
9.0,0.3650822639465332,0.0014368931863283831,"train",10240.0,"2021-11-21 13:29:43.411274","","","","","","",""
9.0,0.6253374814987183,0.0014402995708501826,"train",10260.0,"2021-11-21 13:29:47.566311","","","","","","",""
9.0,0.5116339921951294,0.0014436998655142422,"train",10280.0,"2021-11-21 13:29:51.307044","","","","","","",""
9.0,0.49703434109687805,0.0014470940185910258,"train",10300.0,"2021-11-21 13:29:55.088577","","","","","","",""
9.0,0.4622125029563904,0.001450481978444431,"train",10320.0,"2021-11-21 13:29:58.782533","","","","","","",""
9.0,0.4270961880683899,0.0014538636935325763,"train",10340.0,"2021-11-21 13:30:02.438609","","","","","","",""
9.0,0.30834469199180603,0.0014572391124085817,"train",10360.0,"2021-11-21 13:30:06.549481","","","","","","",""
9.0,0.33655866980552673,0.0014606081837213525,"train",10380.0,"2021-11-21 13:30:10.085011","","","","","","",""
9.0,0.5431737899780273,0.0014639708562163639,"train",10400.0,"2021-11-21 13:30:13.714790","","","","","","",""
9.0,0.5870564579963684,0.001467327078736435,"train",10420.0,"2021-11-21 13:30:17.366502","","","","","","",""
9.0,0.5583036541938782,0.0014706768002225108,"train",10440.0,"2021-11-21 13:30:20.906512","","","","","","",""
9.0,0.4721229672431946,0.0014740199697144392,"train",10460.0,"2021-11-21 13:30:25.022118","","","","","","",""
9.0,0.44943487644195557,0.0014773565363517442,"train",10480.0,"2021-11-21 13:30:28.546727","","","","","","",""
9.0,0.5927667021751404,0.0014806864493744007,"train",10500.0,"2021-11-21 13:30:32.076495","","","","","","",""
9.0,0.4645560383796692,0.0014840096581236072,"train",10520.0,"2021-11-21 13:30:35.610489","","","","","","",""
9.0,0.5998687148094177,0.001487326112042556,"train",10540.0,"2021-11-21 13:30:39.168528","","","","","","",""
9.0,0.4276818037033081,0.0014906357606772013,"train",10560.0,"2021-11-21 13:30:43.215286","","","","","","",""
9.0,0.532593309879303,0.0014939385536770291,"train",10580.0,"2021-11-21 13:30:46.806607","","","","","","",""
9.0,0.5434655547142029,0.0014972344407958218,"train",10600.0,"2021-11-21 13:30:50.356934","","","","","","",""
9.0,0.411271333694458,0.0015005233718924213,"train",10620.0,"2021-11-21 13:30:54.011074","","","","","","",""
9.0,0.3456588387489319,0.0015038052969314946,"train",10640.0,"2021-11-21 13:30:57.651696","","","","","","",""
9.0,0.44703152775764465,0.0015070801659842939,"train",10660.0,"2021-11-21 13:31:01.837250","","","","","","",""
9.0,0.5499861240386963,0.001510347929229414,"train",10680.0,"2021-11-21 13:31:05.521223","","","","","","",""
9.0,0.8231068253517151,0.0015136085369535537,"train",10700.0,"2021-11-21 13:31:09.190318","","","","","","",""
9.0,0.5281389951705933,0.0015168619395522708,"train",10720.0,"2021-11-21 13:31:12.847736","","","","","","",""
9.0,0.5509058237075806,0.0015201080875307349,"train",10740.0,"2021-11-21 13:31:16.422510","","","","","","",""
9.0,"","","train",10740.0,"2021-11-21 13:32:50.857904",0.49028596376337047,0.5156890725519442,0.9296625989603682,0.44193149221838235,0.3670950685810165,0.3807174079243071,0.23900844523369205
9.0,"","","val",10740.0,"2021-11-21 13:33:16.331098",0.48306853763191465,0.47184450241044473,0.9177255771286267,0.4278802194794649,0.34830564538825787,0.3588326517618699,0.223932799264643
10.0,0.45336249470710754,0.0015233469315044834,"train",10760.0,"2021-11-21 13:33:23.369375","","","","","","",""
10.0,0.6092579364776611,0.0015265784222001709,"train",10780.0,"2021-11-21 13:33:26.983431","","","","","","",""
10.0,0.5120229721069336,0.0015298025104563185,"train",10800.0,"2021-11-21 13:33:30.673978","","","","","","",""
10.0,0.5133035778999329,0.001533019147224064,"train",10820.0,"2021-11-21 13:33:34.389268","","","","","","",""
10.0,0.7096394896507263,0.0015362282835679054,"train",10840.0,"2021-11-21 13:33:38.084810","","","","","","",""
10.0,0.3000195622444153,0.0015394298706664469,"train",10860.0,"2021-11-21 13:33:42.457614","","","","","","",""
10.0,0.4218677282333374,0.001542623859813141,"train",10880.0,"2021-11-21 13:33:46.230445","","","","","","",""
10.0,0.3968259394168854,0.00154581020241703,"train",10900.0,"2021-11-21 13:33:49.886210","","","","","","",""
10.0,0.5196262001991272,0.0015489888500034858,"train",10920.0,"2021-11-21 13:33:53.529210","","","","","","",""
10.0,0.5629448890686035,0.0015521597542149444,"train",10940.0,"2021-11-21 13:33:57.259990","","","","","","",""
10.0,0.5473073124885559,0.0015553228668116455,"train",10960.0,"2021-11-21 13:34:01.493704","","","","","","",""
10.0,0.5112625360488892,0.0015584781396723642,"train",10980.0,"2021-11-21 13:34:05.165260","","","","","","",""
10.0,0.4244212806224823,0.0015616255247951432,"train",11000.0,"2021-11-21 13:34:08.878916","","","","","","",""
10.0,0.5292456746101379,0.0015647649742980233,"train",11020.0,"2021-11-21 13:34:12.559223","","","","","","",""
10.0,0.38282978534698486,0.0015678964404197727,"train",11040.0,"2021-11-21 13:34:16.244814","","","","","","",""
10.0,0.5823912024497986,0.0015710198755206112,"train",11060.0,"2021-11-21 13:34:20.387545","","","","","","",""
10.0,0.6226871609687805,0.0015741352320829379,"train",11080.0,"2021-11-21 13:34:23.933355","","","","","","",""
10.0,0.4574773609638214,0.0015772424627120527,"train",11100.0,"2021-11-21 13:34:27.510017","","","","","","",""
10.0,0.5413491129875183,0.0015803415201368761,"train",11120.0,"2021-11-21 13:34:31.164128","","","","","","",""
10.0,0.30468979477882385,0.001583432357210671,"train",11140.0,"2021-11-21 13:34:34.879840","","","","","","",""
10.0,0.41385358572006226,0.001586514926911758,"train",11160.0,"2021-11-21 13:34:39.087390","","","","","","",""
10.0,0.5351057052612305,0.0015895891823442313,"train",11180.0,"2021-11-21 13:34:42.771007","","","","","","",""
10.0,0.488736093044281,0.0015926550767386717,"train",11200.0,"2021-11-21 13:34:46.425131","","","","","","",""
10.0,0.7131927609443665,0.0015957125634528599,"train",11220.0,"2021-11-21 13:34:50.123871","","","","","","",""
10.0,0.32263144850730896,0.0015987615959724836,"train",11240.0,"2021-11-21 13:34:53.918575","","","","","","",""
10.0,0.39070239663124084,0.0016018021279118457,"train",11260.0,"2021-11-21 13:34:57.512989","","","","","","",""
10.0,0.8467589616775513,0.0016048341130145728,"train",11280.0,"2021-11-21 13:35:01.606434","","","","","","",""
10.0,0.5602225661277771,0.0016078575051543145,"train",11300.0,"2021-11-21 13:35:05.208389","","","","","","",""
10.0,0.4044371545314789,0.0016108722583354478,"train",11320.0,"2021-11-21 13:35:08.818861","","","","","","",""
10.0,0.5432142019271851,0.0016138783266937777,"train",11340.0,"2021-11-21 13:35:12.407948","","","","","","",""
10.0,0.5368708372116089,0.0016168756644972322,"train",11360.0,"2021-11-21 13:35:16.085853","","","","","","",""
10.0,0.5461559295654297,0.0016198642261465587,"train",11380.0,"2021-11-21 13:35:20.225594","","","","","","",""
10.0,0.5404542088508606,0.0016228439661760208,"train",11400.0,"2021-11-21 13:35:23.882167","","","","","","",""
10.0,0.49640047550201416,0.001625814839254086,"train",11420.0,"2021-11-21 13:35:27.568431","","","","","","",""
10.0,0.6026504635810852,0.0016287768001841164,"train",11440.0,"2021-11-21 13:35:31.276645","","","","","","",""
10.0,0.6885167360305786,0.001631729803905059,"train",11460.0,"2021-11-21 13:35:35.053466","","","","","","",""
10.0,0.4654254615306854,0.0016346738054921273,"train",11480.0,"2021-11-21 13:35:39.441801","","","","","","",""
10.0,0.7690397500991821,0.001637608760157486,"train",11500.0,"2021-11-21 13:35:43.210052","","","","","","",""
10.0,0.6629142761230469,0.0016405346232509356,"train",11520.0,"2021-11-21 13:35:47.002783","","","","","","",""
10.0,0.5596863031387329,0.0016434513502605861,"train",11540.0,"2021-11-21 13:35:50.771651","","","","","","",""
10.0,0.6080257296562195,0.0016463588968135383,"train",11560.0,"2021-11-21 13:35:54.418219","","","","","","",""
10.0,0.5795091986656189,0.0016492572186765577,"train",11580.0,"2021-11-21 13:35:58.520867","","","","","","",""
10.0,0.48184001445770264,0.001652146271756747,"train",11600.0,"2021-11-21 13:36:02.185177","","","","","","",""
10.0,0.4585932791233063,0.0016550260121022172,"train",11620.0,"2021-11-21 13:36:05.846699","","","","","","",""
10.0,0.4434424340724945,0.0016578963959027562,"train",11640.0,"2021-11-21 13:36:09.513679","","","","","","",""
10.0,0.767848551273346,0.001660757379490496,"train",11660.0,"2021-11-21 13:36:13.220964","","","","","","",""
10.0,0.6545304656028748,0.0016636089193405761,"train",11680.0,"2021-11-21 13:36:17.452935","","","","","","",""
10.0,0.3830042779445648,0.0016664509720718049,"train",11700.0,"2021-11-21 13:36:21.036823","","","","","","",""
10.0,0.7964551448822021,0.0016692834944473224,"train",11720.0,"2021-11-21 13:36:24.654844","","","","","","",""
10.0,0.7296923398971558,0.0016721064433752554,"train",11740.0,"2021-11-21 13:36:28.264151","","","","","","",""
10.0,0.5516303777694702,0.0016749197759093734,"train",11760.0,"2021-11-21 13:36:31.874397","","","","","","",""
10.0,0.5226337313652039,0.0016777234492497436,"train",11780.0,"2021-11-21 13:36:36.038933","","","","","","",""
10.0,0.4562261402606964,0.0016805174207433808,"train",11800.0,"2021-11-21 13:36:39.686994","","","","","","",""
10.0,"","","train",11814.0,"2021-11-21 13:38:15.817575",0.49507385578112495,0.5251537759007755,0.9318589839630257,0.4765258326135181,0.4329666351232796,0.4409709011081976,0.2759871398731995
10.0,"","","val",11814.0,"2021-11-21 13:38:42.354569",0.4862576829409718,0.47270563848207997,0.9171458586744715,0.46191024472816317,0.40128104691165156,0.4066291021269161,0.250735866487553
11.0,0.4036714732646942,0.0016833016478848956,"train",11820.0,"2021-11-21 13:38:46.316643","","","","","","",""
11.0,0.50593501329422,0.0016860760883171426,"train",11840.0,"2021-11-21 13:38:50.050699","","","","","","",""
11.0,0.475637823343277,0.001688840699831864,"train",11860.0,"2021-11-21 13:38:53.794231","","","","","","",""
11.0,0.759760320186615,0.0016915954403703313,"train",11880.0,"2021-11-21 13:38:58.183437","","","","","","",""
11.0,0.280834823846817,0.0016943402680239862,"train",11900.0,"2021-11-21 13:39:01.858584","","","","","","",""
11.0,0.3905467391014099,0.0016970751410350774,"train",11920.0,"2021-11-21 13:39:05.516641","","","","","","",""
11.0,0.7044209837913513,0.001699800017797296,"train",11940.0,"2021-11-21 13:39:09.124700","","","","","","",""
11.0,0.49845924973487854,0.0017025148568564086,"train",11960.0,"2021-11-21 13:39:12.678230","","","","","","",""
11.0,0.37561267614364624,0.001705219616910888,"train",11980.0,"2021-11-21 13:39:16.803278","","","","","","",""
11.0,0.4980447590351105,0.001707914256812541,"train",12000.0,"2021-11-21 13:39:20.294757","","","","","","",""
11.0,0.5950027704238892,0.0017105987355671352,"train",12020.0,"2021-11-21 13:39:23.840419","","","","","","",""
11.0,0.7274608016014099,0.0017132730123350227,"train",12040.0,"2021-11-21 13:39:27.296381","","","","","","",""
11.0,0.5354729890823364,0.00171593704643176,"train",12060.0,"2021-11-21 13:39:30.918517","","","","","","",""
11.0,0.6681819558143616,0.0017185907973287285,"train",12080.0,"2021-11-21 13:39:35.075104","","","","","","",""
11.0,0.4687812626361847,0.0017212342246537506,"train",12100.0,"2021-11-21 13:39:38.809649","","","","","","",""
11.0,0.4548126459121704,0.0017238672881917032,"train",12120.0,"2021-11-21 13:39:42.586231","","","","","","",""
11.0,0.522358238697052,0.001726489947885131,"train",12140.0,"2021-11-21 13:39:46.401090","","","","","","",""
11.0,0.4752975106239319,0.0017291021638348543,"train",12160.0,"2021-11-21 13:39:50.113866","","","","","","",""
11.0,0.42113423347473145,0.0017317038963005765,"train",12180.0,"2021-11-21 13:39:54.310886","","","","","","",""
11.0,0.6596669554710388,0.00173429510570149,"train",12200.0,"2021-11-21 13:39:57.906818","","","","","","",""
11.0,0.5607951879501343,0.0017368757526168759,"train",12220.0,"2021-11-21 13:40:01.454496","","","","","","",""
11.0,0.5085431933403015,0.0017394457977867057,"train",12240.0,"2021-11-21 13:40:05.010943","","","","","","",""
11.0,0.5125511884689331,0.0017420052021122378,"train",12260.0,"2021-11-21 13:40:08.675105","","","","","","",""
11.0,0.31345778703689575,0.0017445539266566128,"train",12280.0,"2021-11-21 13:40:12.323553","","","","","","",""
11.0,0.43003714084625244,0.001747091932645445,"train",12300.0,"2021-11-21 13:40:16.562471","","","","","","",""
11.0,0.6437015533447266,0.0017496191814674125,"train",12320.0,"2021-11-21 13:40:20.147009","","","","","","",""
11.0,0.4131847321987152,0.001752135634674846,"train",12340.0,"2021-11-21 13:40:23.788122","","","","","","",""
11.0,0.3934176564216614,0.0017546412539843118,"train",12360.0,"2021-11-21 13:40:27.417233","","","","","","",""
11.0,0.698395311832428,0.001757136001277194,"train",12380.0,"2021-11-21 13:40:31.022804","","","","","","",""
11.0,0.5203116536140442,0.001759619838600278,"train",12400.0,"2021-11-21 13:40:35.063639","","","","","","",""
11.0,0.6989408135414124,0.0017620927281663229,"train",12420.0,"2021-11-21 13:40:38.561347","","","","","","",""
11.0,0.5551807284355164,0.0017645546323546398,"train",12440.0,"2021-11-21 13:40:42.060612","","","","","","",""
11.0,0.7507345676422119,0.0017670055137116636,"train",12460.0,"2021-11-21 13:40:45.554905","","","","","","",""
11.0,0.4783039391040802,0.0017694453349515209,"train",12480.0,"2021-11-21 13:40:49.091973","","","","","","",""
11.0,0.6690492033958435,0.0017718740589566,"train",12500.0,"2021-11-21 13:40:53.208064","","","","","","",""
11.0,0.44990336894989014,0.0017742916487781134,"train",12520.0,"2021-11-21 13:40:56.782283","","","","","","",""
11.0,0.6420885920524597,0.0017766980676366608,"train",12540.0,"2021-11-21 13:41:00.357554","","","","","","",""
11.0,0.3108043670654297,0.001779093278922789,"train",12560.0,"2021-11-21 13:41:03.997423","","","","","","",""
11.0,0.40209129452705383,0.001781477246197548,"train",12580.0,"2021-11-21 13:41:07.600528","","","","","","",""
11.0,0.7808187007904053,0.0017838499331930462,"train",12600.0,"2021-11-21 13:41:11.745263","","","","","","",""
11.0,0.8856304287910461,0.001786211303813001,"train",12620.0,"2021-11-21 13:41:15.409993","","","","","","",""
11.0,0.44796061515808105,0.0017885613221332894,"train",12640.0,"2021-11-21 13:41:19.057082","","","","","","",""
11.0,0.5645967125892639,0.0017908999524024931,"train",12660.0,"2021-11-21 13:41:22.731617","","","","","","",""
11.0,0.8768667578697205,0.0017932271590424438,"train",12680.0,"2021-11-21 13:41:26.307391","","","","","","",""
11.0,0.5145106315612793,0.0017955429066487635,"train",12700.0,"2021-11-21 13:41:30.421267","","","","","","",""
11.0,0.5193933248519897,0.0017978471599914025,"train",12720.0,"2021-11-21 13:41:33.934423","","","","","","",""
11.0,0.4285273253917694,0.0018001398840151778,"train",12740.0,"2021-11-21 13:41:37.468553","","","","","","",""
11.0,0.556471049785614,0.0018024210438403031,"train",12760.0,"2021-11-21 13:41:41.071187","","","","","","",""
11.0,0.6307060718536377,0.0018046906047629228,"train",12780.0,"2021-11-21 13:41:44.756777","","","","","","",""
11.0,0.44775304198265076,0.0018069485322556372,"train",12800.0,"2021-11-21 13:41:48.991247","","","","","","",""
11.0,0.6633859872817993,0.001809194791968029,"train",12820.0,"2021-11-21 13:41:52.660436","","","","","","",""
11.0,0.5751133561134338,0.0018114293497271863,"train",12840.0,"2021-11-21 13:41:56.258583","","","","","","",""
11.0,0.8524283170700073,0.0018136521715382218,"train",12860.0,"2021-11-21 13:41:59.957059","","","","","","",""
11.0,0.4019105136394501,0.0018158632235847892,"train",12880.0,"2021-11-21 13:42:03.458182","","","","","","",""
11.0,"","","train",12888.0,"2021-11-21 13:43:38.018527",0.5136142035945572,0.5491809890672279,0.9362349005537032,0.48894145849428794,0.4185698544725339,0.4372999477854779,0.2751125344515247
11.0,"","","val",12888.0,"2021-11-21 13:44:03.262498",0.5057404615563029,0.49307545733891256,0.9236757320666196,0.47519842079499375,0.39487403647977687,0.4104405283976745,0.25316282579920457
12.0,0.5955991744995117,0.0018180624722295999,"train",12900.0,"2021-11-21 13:44:08.951939","","","","","","",""
12.0,0.5107505917549133,0.001820249884014933,"train",12920.0,"2021-11-21 13:44:12.617879","","","","","","",""
12.0,0.48166558146476746,0.001822425425663144,"train",12940.0,"2021-11-21 13:44:16.287996","","","","","","",""
12.0,0.6803572177886963,0.0018245890640771725,"train",12960.0,"2021-11-21 13:44:19.965265","","","","","","",""
12.0,0.5106436610221863,0.0018267407663410452,"train",12980.0,"2021-11-21 13:44:23.737936","","","","","","",""
12.0,0.6859498023986816,0.0018288804997203755,"train",13000.0,"2021-11-21 13:44:27.988209","","","","","","",""
12.0,0.3749634921550751,0.0018310082316628634,"train",13020.0,"2021-11-21 13:44:31.665450","","","","","","",""
12.0,0.8316318988800049,0.0018331239297987893,"train",13040.0,"2021-11-21 13:44:35.339523","","","","","","",""
12.0,0.6034500002861023,0.0018352275619415066,"train",13060.0,"2021-11-21 13:44:39.086403","","","","","","",""
12.0,0.40394365787506104,0.0018373190960879326,"train",13080.0,"2021-11-21 13:44:42.741138","","","","","","",""
12.0,0.47492432594299316,0.0018393985004190336,"train",13100.0,"2021-11-21 13:44:46.908966","","","","","","",""
12.0,0.6636013388633728,0.00184146574330031,"train",13120.0,"2021-11-21 13:44:50.560239","","","","","","",""
12.0,0.47734400629997253,0.001843520793282278,"train",13140.0,"2021-11-21 13:44:54.137856","","","","","","",""
12.0,0.37305232882499695,0.0018455636191009464,"train",13160.0,"2021-11-21 13:44:57.701646","","","","","","",""
12.0,1.0499857664108276,0.001847594189678294,"train",13180.0,"2021-11-21 13:45:01.285751","","","","","","",""
12.0,0.6264687776565552,0.0018496124741227415,"train",13200.0,"2021-11-21 13:45:05.434404","","","","","","",""
12.0,0.6489993333816528,0.001851618441729622,"train",13220.0,"2021-11-21 13:45:09.017446","","","","","","",""
12.0,0.37947574257850647,0.0018536120619816467,"train",13240.0,"2021-11-21 13:45:12.617451","","","","","","",""
12.0,0.4505743682384491,0.0018555933045493712,"train",13260.0,"2021-11-21 13:45:16.188047","","","","","","",""
12.0,0.4940114915370941,0.0018575621392916554,"train",13280.0,"2021-11-21 13:45:19.785186","","","","","","",""
12.0,0.36951881647109985,0.0018595185362561225,"train",13300.0,"2021-11-21 13:45:23.887631","","","","","","",""
12.0,0.3755967319011688,0.0018614624656796155,"train",13320.0,"2021-11-21 13:45:27.515646","","","","","","",""
12.0,0.49725255370140076,0.0018633938979886484,"train",13340.0,"2021-11-21 13:45:31.104715","","","","","","",""
12.0,0.452172189950943,0.0018653128037998568,"train",13360.0,"2021-11-21 13:45:34.706163","","","","","","",""
12.0,0.9795864820480347,0.0018672191539204459,"train",13380.0,"2021-11-21 13:45:38.337254","","","","","","",""
12.0,0.43359091877937317,0.0018691129193486335,"train",13400.0,"2021-11-21 13:45:41.969445","","","","","","",""
12.0,0.8580063581466675,0.0018709940712740908,"train",13420.0,"2021-11-21 13:45:46.071429","","","","","","",""
12.0,0.49289947748184204,0.0018728625810783823,"train",13440.0,"2021-11-21 13:45:49.651268","","","","","","",""
12.0,0.3730423152446747,0.0018747184203353996,"train",13460.0,"2021-11-21 13:45:53.237584","","","","","","",""
12.0,0.47092410922050476,0.0018765615608117947,"train",13480.0,"2021-11-21 13:45:56.829444","","","","","","",""
12.0,0.3459129333496094,0.0018783919744674096,"train",13500.0,"2021-11-21 13:46:00.420657","","","","","","",""
12.0,0.3821144700050354,0.0018802096334557027,"train",13520.0,"2021-11-21 13:46:04.468771","","","","","","",""
12.0,0.4551398456096649,0.0018820145101241712,"train",13540.0,"2021-11-21 13:46:08.141379","","","","","","",""
12.0,0.37282678484916687,0.0018838065770147745,"train",13560.0,"2021-11-21 13:46:11.883718","","","","","","",""
12.0,0.48561593890190125,0.0018855858068643496,"train",13580.0,"2021-11-21 13:46:15.603116","","","","","","",""
12.0,0.6627529263496399,0.001887352172605026,"train",13600.0,"2021-11-21 13:46:19.309538","","","","","","",""
12.0,0.30807000398635864,0.0018891056473646398,"train",13620.0,"2021-11-21 13:46:23.588487","","","","","","",""
12.0,0.39450910687446594,0.0018908462044671395,"train",13640.0,"2021-11-21 13:46:27.316445","","","","","","",""
12.0,0.5619084239006042,0.001892573817432993,"train",13660.0,"2021-11-21 13:46:31.029209","","","","","","",""
12.0,0.3505350649356842,0.0018942884599795914,"train",13680.0,"2021-11-21 13:46:34.678557","","","","","","",""
12.0,0.42188742756843567,0.001895990106021648,"train",13700.0,"2021-11-21 13:46:38.247554","","","","","","",""
12.0,0.7291676998138428,0.0018976787296715943,"train",13720.0,"2021-11-21 13:46:42.338696","","","","","","",""
12.0,0.48179349303245544,0.0018993543052399757,"train",13740.0,"2021-11-21 13:46:45.993643","","","","","","",""
12.0,0.4620087146759033,0.0019010168072358413,"train",13760.0,"2021-11-21 13:46:49.676467","","","","","","",""
12.0,0.49340832233428955,0.0019026662103671305,"train",13780.0,"2021-11-21 13:46:53.266958","","","","","","",""
12.0,0.40745508670806885,0.0019043024895410605,"train",13800.0,"2021-11-21 13:46:56.972710","","","","","","",""
12.0,0.7707481384277344,0.001905925619864506,"train",13820.0,"2021-11-21 13:47:01.258419","","","","","","",""
12.0,0.3941701054573059,0.001907535576644378,"train",13840.0,"2021-11-21 13:47:04.978628","","","","","","",""
12.0,0.6574211120605469,0.0019091323353880008,"train",13860.0,"2021-11-21 13:47:08.683016","","","","","","",""
12.0,0.3389727771282196,0.0019107158718034828,"train",13880.0,"2021-11-21 13:47:12.400775","","","","","","",""
12.0,0.5335929989814758,0.001912286161800088,"train",13900.0,"2021-11-21 13:47:15.993712","","","","","","",""
12.0,0.4479730427265167,0.0019138431814886008,"train",13920.0,"2021-11-21 13:47:20.241573","","","","","","",""
12.0,0.42165234684944153,0.0019153869071816896,"train",13940.0,"2021-11-21 13:47:23.877357","","","","","","",""
12.0,0.5398823022842407,0.0019169173153942693,"train",13960.0,"2021-11-21 13:47:27.464231","","","","","","",""
12.0,"","","train",13962.0,"2021-11-21 13:49:01.603551",0.5268427563123045,0.5819277952370389,0.943569595846103,0.5107814938049533,0.43976773328190694,0.4556609120070414,0.29138326553803684
12.0,"","","val",13962.0,"2021-11-21 13:49:27.325014",0.5142061927403456,0.5139820853542754,0.9291626041988814,0.49333937369356434,0.40913172298179834,0.4217508671746516,0.2618297072150191
13.0,0.3941243290901184,0.0019184343828438557,"train",13980.0,"2021-11-21 13:49:33.557960","","","","","","",""
13.0,0.44328218698501587,0.0019199380864509208,"train",14000.0,"2021-11-21 13:49:37.139953","","","","","","",""
13.0,0.4390868544578552,0.0019214284033392457,"train",14020.0,"2021-11-21 13:49:41.357525","","","","","","",""
13.0,0.43920043110847473,0.0019229053108362649,"train",14040.0,"2021-11-21 13:49:44.952278","","","","","","",""
13.0,0.6387363076210022,0.0019243687864734145,"train",14060.0,"2021-11-21 13:49:48.551869","","","","","","",""
13.0,0.5722426176071167,0.0019258188079864732,"train",14080.0,"2021-11-21 13:49:52.133502","","","","","","",""
13.0,0.6062383055686951,0.0019272553533158999,"train",14100.0,"2021-11-21 13:49:55.743415","","","","","","",""
13.0,0.3106193244457245,0.0019286784006071697,"train",14120.0,"2021-11-21 13:49:59.864880","","","","","","",""
13.0,0.5504169464111328,0.0019300879282111083,"train",14140.0,"2021-11-21 13:50:03.475090","","","","","","",""
13.0,0.4134546220302582,0.0019314839146842185,"train",14160.0,"2021-11-21 13:50:07.105981","","","","","","",""
13.0,0.4351979196071625,0.0019328663387890076,"train",14180.0,"2021-11-21 13:50:10.748121","","","","","","",""
13.0,0.36769235134124756,0.0019342351794943119,"train",14200.0,"2021-11-21 13:50:14.508777","","","","","","",""
13.0,0.6085881590843201,0.0019355904159756138,"train",14220.0,"2021-11-21 13:50:18.676008","","","","","","",""
13.0,0.36169683933258057,0.0019369320276153613,"train",14240.0,"2021-11-21 13:50:22.349619","","","","","","",""
13.0,0.2896095812320709,0.00193825999400328,"train",14260.0,"2021-11-21 13:50:26.087404","","","","","","",""
13.0,0.3121729791164398,0.0019395742949366843,"train",14280.0,"2021-11-21 13:50:29.803270","","","","","","",""
13.0,0.2530486583709717,0.0019408749104207845,"train",14300.0,"2021-11-21 13:50:33.362081","","","","","","",""
13.0,0.5370347499847412,0.0019421618206689913,"train",14320.0,"2021-11-21 13:50:37.454088","","","","","","",""
13.0,0.38460013270378113,0.0019434350061032163,"train",14340.0,"2021-11-21 13:50:40.889878","","","","","","",""
13.0,0.4083540439605713,0.0019446944473541703,"train",14360.0,"2021-11-21 13:50:44.384125","","","","","","",""
13.0,0.3427809476852417,0.0019459401252616573,"train",14380.0,"2021-11-21 13:50:47.913656","","","","","","",""
13.0,0.44116970896720886,0.001947172020874868,"train",14400.0,"2021-11-21 13:50:51.525613","","","","","","",""
13.0,0.8328039050102234,0.0019483901154526647,"train",14420.0,"2021-11-21 13:50:55.111873","","","","","","",""
13.0,0.45113101601600647,0.0019495943904638694,"train",14440.0,"2021-11-21 13:50:59.214830","","","","","","",""
13.0,0.5175732970237732,0.0019507848275875444,"train",14460.0,"2021-11-21 13:51:02.688472","","","","","","",""
13.0,0.39532017707824707,0.0019519614087132712,"train",14480.0,"2021-11-21 13:51:06.193702","","","","","","",""
13.0,0.47209858894348145,0.0019531241159414263,"train",14500.0,"2021-11-21 13:51:09.700330","","","","","","",""
13.0,0.650998592376709,0.001954272931583453,"train",14520.0,"2021-11-21 13:51:13.347372","","","","","","",""
13.0,0.42312052845954895,0.0019554078381621306,"train",14540.0,"2021-11-21 13:51:17.516071","","","","","","",""
13.0,0.3351055383682251,0.0019565288184118417,"train",14560.0,"2021-11-21 13:51:21.114485","","","","","","",""
13.0,0.8210286498069763,0.0019576358552788314,"train",14580.0,"2021-11-21 13:51:24.790763","","","","","","",""
13.0,0.5446153879165649,0.0019587289319214713,"train",14600.0,"2021-11-21 13:51:28.465140","","","","","","",""
13.0,0.5553105473518372,0.0019598080317105113,"train",14620.0,"2021-11-21 13:51:32.104376","","","","","","",""
13.0,0.4935164153575897,0.001960873138229337,"train",14640.0,"2021-11-21 13:51:36.342941","","","","","","",""
13.0,0.4424903690814972,0.0019619242352742153,"train",14660.0,"2021-11-21 13:51:39.958577","","","","","","",""
13.0,0.42257624864578247,0.001962961306854543,"train",14680.0,"2021-11-21 13:51:43.503490","","","","","","",""
13.0,0.422457754611969,0.0019639843371930905,"train",14700.0,"2021-11-21 13:51:47.094109","","","","","","",""
13.0,0.337604820728302,0.001964993310726241,"train",14720.0,"2021-11-21 13:51:50.745367","","","","","","",""
13.0,0.5002726912498474,0.0019659882121042262,"train",14740.0,"2021-11-21 13:51:54.947151","","","","","","",""
13.0,0.5623226165771484,0.001966969026191363,"train",14760.0,"2021-11-21 13:51:58.659548","","","","","","",""
13.0,0.7494127750396729,0.0019679357380662805,"train",14780.0,"2021-11-21 13:52:02.312932","","","","","","",""
13.0,0.26462897658348083,0.001968888333022148,"train",14800.0,"2021-11-21 13:52:05.949999","","","","","","",""
13.0,0.44076722860336304,0.0019698267965669,"train",14820.0,"2021-11-21 13:52:09.660267","","","","","","",""
13.0,0.5354555249214172,0.0019707511144234557,"train",14840.0,"2021-11-21 13:52:13.843583","","","","","","",""
13.0,0.29462307691574097,0.001971661272529935,"train",14860.0,"2021-11-21 13:52:17.440380","","","","","","",""
13.0,0.4522828459739685,0.001972557257039875,"train",14880.0,"2021-11-21 13:52:21.088222","","","","","","",""
13.0,0.46168234944343567,0.0019734390543224385,"train",14900.0,"2021-11-21 13:52:24.723679","","","","","","",""
13.0,0.5081603527069092,0.001974306650962622,"train",14920.0,"2021-11-21 13:52:28.377077","","","","","","",""
13.0,0.625565767288208,0.0019751600337614608,"train",14940.0,"2021-11-21 13:52:32.541327","","","","","","",""
13.0,0.6432072520256042,0.0019759991897362284,"train",14960.0,"2021-11-21 13:52:36.227047","","","","","","",""
13.0,0.5475714206695557,0.0019768241061206343,"train",14980.0,"2021-11-21 13:52:39.887710","","","","","","",""
13.0,0.520461916923523,0.0019776347703650186,"train",15000.0,"2021-11-21 13:52:43.533216","","","","","","",""
13.0,0.3638938069343567,0.001978431170136543,"train",15020.0,"2021-11-21 13:52:47.143545","","","","","","",""
13.0,"","","train",15036.0,"2021-11-21 13:54:25.178536",0.5355599214145383,0.5962910997001705,0.9466730500765832,0.5361117832493879,0.48268927405103934,0.503891957369475,0.31716855150220385
13.0,"","","val",15036.0,"2021-11-21 13:54:50.734854",0.5176272758900614,0.5215493634498819,0.9318537449392406,0.5096786411345191,0.43111342053087215,0.4527507458458407,0.27317905202273474
14.0,0.4879140257835388,0.0019792132933193784,"train",15040.0,"2021-11-21 13:54:54.357003","","","","","","",""
14.0,0.312331885099411,0.001979981128014888,"train",15060.0,"2021-11-21 13:54:58.041583","","","","","","",""
14.0,0.39955639839172363,0.001980734662541811,"train",15080.0,"2021-11-21 13:55:01.644824","","","","","","",""
14.0,0.37951815128326416,0.0019814738854364374,"train",15100.0,"2021-11-21 13:55:05.176690","","","","","","",""
14.0,0.4914608299732208,0.0019821987854527832,"train",15120.0,"2021-11-21 13:55:08.627886","","","","","","",""
14.0,0.37163567543029785,0.0019829093515627634,"train",15140.0,"2021-11-21 13:55:12.848095","","","","","","",""
14.0,0.6139154434204102,0.001983605572956358,"train",15160.0,"2021-11-21 13:55:16.505094","","","","","","",""
14.0,0.3813271224498749,0.001984287439041775,"train",15180.0,"2021-11-21 13:55:20.218796","","","","","","",""
14.0,0.407609224319458,0.001984954939445616,"train",15200.0,"2021-11-21 13:55:23.887229","","","","","","",""
14.0,0.7026886343955994,0.0019856080640130295,"train",15220.0,"2021-11-21 13:55:27.552610","","","","","","",""
14.0,0.39193639159202576,0.0019862468028078676,"train",15240.0,"2021-11-21 13:55:31.811422","","","","","","",""
14.0,0.3193802833557129,0.001986871146112837,"train",15260.0,"2021-11-21 13:55:35.469049","","","","","","",""
14.0,0.3710900843143463,0.0019874810844296466,"train",15280.0,"2021-11-21 13:55:39.105188","","","","","","",""
14.0,0.6262330412864685,0.0019880766084791517,"train",15300.0,"2021-11-21 13:55:42.738631","","","","","","",""
14.0,0.5088925361633301,0.0019886577092014953,"train",15320.0,"2021-11-21 13:55:46.375874","","","","","","",""
14.0,0.5543723106384277,0.001989224377756247,"train",15340.0,"2021-11-21 13:55:50.531397","","","","","","",""
14.0,0.7166774272918701,0.0019897766055225353,"train",15360.0,"2021-11-21 13:55:54.238336","","","","","","",""
14.0,0.4049856662750244,0.0019903143840991813,"train",15380.0,"2021-11-21 13:55:57.902057","","","","","","",""
14.0,0.6545439958572388,0.0019908377053048246,"train",15400.0,"2021-11-21 13:56:01.527761","","","","","","",""
14.0,0.43873414397239685,0.001991346561178048,"train",15420.0,"2021-11-21 13:56:05.069104","","","","","","",""
14.0,0.5230825543403625,0.0019918409439775003,"train",15440.0,"2021-11-21 13:56:08.719311","","","","","","",""
14.0,0.7024439573287964,0.0019923208461820117,"train",15460.0,"2021-11-21 13:56:12.985049","","","","","","",""
14.0,0.561241090297699,0.001992786260490709,"train",15480.0,"2021-11-21 13:56:16.519460","","","","","","",""
14.0,0.4472186863422394,0.0019932371798231287,"train",15500.0,"2021-11-21 13:56:20.047429","","","","","","",""
14.0,0.5107797384262085,0.0019936735973193212,"train",15520.0,"2021-11-21 13:56:23.619981","","","","","","",""
14.0,0.7371310591697693,0.001994095506339958,"train",15540.0,"2021-11-21 13:56:27.140760","","","","","","",""
14.0,0.8119223713874817,0.001994502900466431,"train",15560.0,"2021-11-21 13:56:31.318867","","","","","","",""
14.0,0.5971733927726746,0.0019948957735009517,"train",15580.0,"2021-11-21 13:56:35.137407","","","","","","",""
14.0,0.46724560856819153,0.0019952741194666436,"train",15600.0,"2021-11-21 13:56:38.928564","","","","","","",""
14.0,0.43362027406692505,0.0019956379326076354,"train",15620.0,"2021-11-21 13:56:42.573552","","","","","","",""
14.0,0.3307056128978729,0.001995987207389146,"train",15640.0,"2021-11-21 13:56:46.209578","","","","","","",""
14.0,0.45576712489128113,0.0019963219384975706,"train",15660.0,"2021-11-21 13:56:50.396211","","","","","","",""
14.0,0.4381135106086731,0.001996642120840561,"train",15680.0,"2021-11-21 13:56:54.045566","","","","","","",""
14.0,0.5285239219665527,0.001996947749547103,"train",15700.0,"2021-11-21 13:56:57.664198","","","","","","",""
14.0,0.4705987572669983,0.0019972388199675905,"train",15720.0,"2021-11-21 13:57:01.256746","","","","","","",""
14.0,0.3682873845100403,0.001997515327673896,"train",15740.0,"2021-11-21 13:57:04.846833","","","","","","",""
14.0,0.3972834646701813,0.0019977772684594388,"train",15760.0,"2021-11-21 13:57:08.983237","","","","","","",""
14.0,0.4826395511627197,0.0019980246383392475,"train",15780.0,"2021-11-21 13:57:12.656932","","","","","","",""
14.0,0.3834526538848877,0.0019982574335500225,"train",15800.0,"2021-11-21 13:57:16.358070","","","","","","",""
14.0,0.551800549030304,0.001998475650550192,"train",15820.0,"2021-11-21 13:57:20.005851","","","","","","",""
14.0,0.682219386100769,0.0019986792860199657,"train",15840.0,"2021-11-21 13:57:23.738737","","","","","","",""
14.0,0.30753809213638306,0.001998868336861386,"train",15860.0,"2021-11-21 13:57:27.882119","","","","","","",""
14.0,0.6837113499641418,0.001999042800198376,"train",15880.0,"2021-11-21 13:57:31.347753","","","","","","",""
14.0,0.33804288506507874,0.00199920267337678,"train",15900.0,"2021-11-21 13:57:34.811223","","","","","","",""
14.0,0.46908026933670044,0.0019993479539644077,"train",15920.0,"2021-11-21 13:57:38.275894","","","","","","",""
14.0,0.4636763334274292,0.0019994786397510697,"train",15940.0,"2021-11-21 13:57:41.791953","","","","","","",""
14.0,0.5367211699485779,0.0019995947287486096,"train",15960.0,"2021-11-21 13:57:46.092104","","","","","","",""
14.0,0.4767528176307678,0.0019996962191909367,"train",15980.0,"2021-11-21 13:57:49.736981","","","","","","",""
14.0,0.37773895263671875,0.0019997831095340513,"train",16000.0,"2021-11-21 13:57:53.380915","","","","","","",""
14.0,0.33044126629829407,0.001999855398456069,"train",16020.0,"2021-11-21 13:57:57.031076","","","","","","",""
14.0,0.5701325535774231,0.00199991308485724,"train",16040.0,"2021-11-21 13:58:00.697324","","","","","","",""
14.0,0.2821969985961914,0.001999956167859967,"train",16060.0,"2021-11-21 13:58:04.857646","","","","","","",""
14.0,0.51433926820755,0.0019999846468088172,"train",16080.0,"2021-11-21 13:58:08.508545","","","","","","",""
14.0,0.4782297909259796,0.0019999985212705335,"train",16100.0,"2021-11-21 13:58:12.157030","","","","","","",""
14.0,"","","train",16110.0,"2021-11-21 13:59:48.332364",0.5415265953576366,0.6033242255670718,0.9485188636168274,0.5276006760582739,0.49947873364478707,0.517055334306188,0.3306877181922172
14.0,"","","val",16110.0,"2021-11-21 14:00:14.958032",0.525397193552128,0.5224709728339254,0.9332035535046006,0.5020812270834576,0.4391908725074585,0.4523762635425126,0.2792394901423678
15.0,0.2818542420864105,0.0019999995774202316,"train",16120.0,"2021-11-21 14:00:19.729448","","","","","","",""
15.0,0.41644996404647827,0.0019999966438102564,"train",16140.0,"2021-11-21 14:00:23.424412","","","","","","",""
15.0,0.37851306796073914,0.0019999909162942875,"train",16160.0,"2021-11-21 14:00:27.651895","","","","","","",""
15.0,0.7942563891410828,0.001999982394888327,"train",16180.0,"2021-11-21 14:00:31.165346","","","","","","",""
15.0,0.44989004731178284,0.0019999710796161823,"train",16200.0,"2021-11-21 14:00:34.671208","","","","","","",""
15.0,0.36100253462791443,0.0019999569705094686,"train",16220.0,"2021-11-21 14:00:38.283137","","","","","","",""
15.0,0.37774449586868286,0.001999940067607605,"train",16240.0,"2021-11-21 14:00:41.998297","","","","","","",""
15.0,0.3680415749549866,0.001999920370957817,"train",16260.0,"2021-11-21 14:00:46.191089","","","","","","",""
15.0,0.4218786060810089,0.0019998978806151355,"train",16280.0,"2021-11-21 14:00:49.861994","","","","","","",""
15.0,0.47152209281921387,0.0019998725966423976,"train",16300.0,"2021-11-21 14:00:53.552051","","","","","","",""
15.0,0.5325382947921753,0.001999844519110244,"train",16320.0,"2021-11-21 14:00:57.257407","","","","","","",""
15.0,0.502898097038269,0.001999813648097122,"train",16340.0,"2021-11-21 14:01:00.956670","","","","","","",""
15.0,0.5317919850349426,0.001999779983689282,"train",16360.0,"2021-11-21 14:01:05.272497","","","","","","",""
15.0,0.35547521710395813,0.0019997435259807806,"train",16380.0,"2021-11-21 14:01:08.953942","","","","","","",""
15.0,0.38886404037475586,0.001999704275073478,"train",16400.0,"2021-11-21 14:01:12.593862","","","","","","",""
15.0,0.4143051207065582,0.0019996622310770383,"train",16420.0,"2021-11-21 14:01:16.243126","","","","","","",""
15.0,0.5790919661521912,0.0019996173941089286,"train",16440.0,"2021-11-21 14:01:19.863382","","","","","","",""
15.0,0.7575409412384033,0.0019995697642944212,"train",16460.0,"2021-11-21 14:01:24.056135","","","","","","",""
15.0,0.666869580745697,0.0019995193417665894,"train",16480.0,"2021-11-21 14:01:27.746675","","","","","","",""
15.0,0.6291964650154114,0.0019994661266663108,"train",16500.0,"2021-11-21 14:01:31.545451","","","","","","",""
15.0,0.38755279779434204,0.001999410119142264,"train",16520.0,"2021-11-21 14:01:35.215454","","","","","","",""
15.0,0.460508793592453,0.0019993513193509297,"train",16540.0,"2021-11-21 14:01:38.853984","","","","","","",""
15.0,0.3509984016418457,0.0019992897274565906,"train",16560.0,"2021-11-21 14:01:42.492185","","","","","","",""
15.0,0.3048579692840576,0.0019992253436313303,"train",16580.0,"2021-11-21 14:01:46.618779","","","","","","",""
15.0,0.31691670417785645,0.0019991581680550313,"train",16600.0,"2021-11-21 14:01:50.214005","","","","","","",""
15.0,0.40800395607948303,0.0019990882009153785,"train",16620.0,"2021-11-21 14:01:53.951729","","","","","","",""
15.0,0.4228566288948059,0.001999015442407854,"train",16640.0,"2021-11-21 14:01:57.704192","","","","","","",""
15.0,0.7010443806648254,0.0019989398927357403,"train",16660.0,"2021-11-21 14:02:01.495196","","","","","","",""
15.0,0.4064708352088928,0.0019988615521101174,"train",16680.0,"2021-11-21 14:02:05.674971","","","","","","",""
15.0,0.47500714659690857,0.0019987804207498637,"train",16700.0,"2021-11-21 14:02:09.398207","","","","","","",""
15.0,0.6279471516609192,0.0019986964988816533,"train",16720.0,"2021-11-21 14:02:13.092301","","","","","","",""
15.0,0.483437180519104,0.0019986097867399585,"train",16740.0,"2021-11-21 14:02:16.785967","","","","","","",""
15.0,0.6306249499320984,0.0019985202845670463,"train",16760.0,"2021-11-21 14:02:20.477407","","","","","","",""
15.0,0.23194780945777893,0.0019984279926129798,"train",16780.0,"2021-11-21 14:02:24.748031","","","","","","",""
15.0,0.3576603829860687,0.001998332911135615,"train",16800.0,"2021-11-21 14:02:28.437950","","","","","","",""
15.0,0.406995564699173,0.0019982350404006036,"train",16820.0,"2021-11-21 14:02:32.105610","","","","","","",""
15.0,0.26336464285850525,0.0019981343806813883,"train",16840.0,"2021-11-21 14:02:35.763114","","","","","","",""
15.0,0.38578885793685913,0.001998030932259205,"train",16860.0,"2021-11-21 14:02:39.410592","","","","","","",""
15.0,0.4766937494277954,0.0019979246954230823,"train",16880.0,"2021-11-21 14:02:43.657075","","","","","","",""
15.0,0.41389763355255127,0.0019978156704698363,"train",16900.0,"2021-11-21 14:02:47.281642","","","","","","",""
15.0,0.3532949388027191,0.001997703857704076,"train",16920.0,"2021-11-21 14:02:50.957393","","","","","","",""
15.0,0.3826186954975128,0.0019975892574381976,"train",16940.0,"2021-11-21 14:02:54.632694","","","","","","",""
15.0,0.5867004990577698,0.001997471869992386,"train",16960.0,"2021-11-21 14:02:58.289739","","","","","","",""
15.0,0.3012937009334564,0.0019973516956946127,"train",16980.0,"2021-11-21 14:03:02.389523","","","","","","",""
15.0,0.5315321087837219,0.0019972287348806366,"train",17000.0,"2021-11-21 14:03:05.953814","","","","","","",""
15.0,0.3489989638328552,0.0019971029878940003,"train",17020.0,"2021-11-21 14:03:09.559421","","","","","","",""
15.0,0.46520447731018066,0.0019969744550860317,"train",17040.0,"2021-11-21 14:03:13.210934","","","","","","",""
15.0,0.6071519255638123,0.0019968431368158433,"train",17060.0,"2021-11-21 14:03:16.916332","","","","","","",""
15.0,0.5249323844909668,0.001996709033450327,"train",17080.0,"2021-11-21 14:03:21.151240","","","","","","",""
15.0,0.19709987938404083,0.0019965721453641585,"train",17100.0,"2021-11-21 14:03:24.893931","","","","","","",""
15.0,0.337894082069397,0.0019964324729397935,"train",17120.0,"2021-11-21 14:03:28.583071","","","","","","",""
15.0,0.4386022090911865,0.0019962900165674657,"train",17140.0,"2021-11-21 14:03:32.231654","","","","","","",""
15.0,0.6271457672119141,0.0019961447766451887,"train",17160.0,"2021-11-21 14:03:35.895230","","","","","","",""
15.0,0.4265107214450836,0.001995996753578751,"train",17180.0,"2021-11-21 14:03:40.023328","","","","","","",""
15.0,"","","train",17184.0,"2021-11-21 14:05:17.666378",0.549996361784181,0.6265843322352741,0.9528328653309222,0.5536239531526725,0.5156596019816088,0.5419232707129094,0.3408222115555749
15.0,"","","val",17184.0,"2021-11-21 14:05:43.158586",0.5273106807375624,0.5394732760316744,0.9381288879737882,0.5245810905533775,0.4541693345091101,0.4756486738485688,0.28548519444660914
16.0,0.5308378338813782,0.001995845947781719,"train",17200.0,"2021-11-21 14:05:49.012312","","","","","","",""
16.0,0.3294955790042877,0.001995692359675433,"train",17220.0,"2021-11-21 14:05:52.770590","","","","","","",""
16.0,0.3633083999156952,0.0019955359896890066,"train",17240.0,"2021-11-21 14:05:56.320447","","","","","","",""
16.0,0.42659667134284973,0.0019953768382593258,"train",17260.0,"2021-11-21 14:05:59.809211","","","","","","",""
16.0,0.47127336263656616,0.0019952149058310486,"train",17280.0,"2021-11-21 14:06:03.929226","","","","","","",""
16.0,0.270353227853775,0.001995050192856602,"train",17300.0,"2021-11-21 14:06:07.394772","","","","","","",""
16.0,0.3682524859905243,0.001994882699796182,"train",17320.0,"2021-11-21 14:06:10.892748","","","","","","",""
16.0,0.5917415618896484,0.001994712427117752,"train",17340.0,"2021-11-21 14:06:14.474828","","","","","","",""
16.0,0.6872095465660095,0.0019945393752970413,"train",17360.0,"2021-11-21 14:06:18.058310","","","","","","",""
16.0,0.2979851961135864,0.001994363544817544,"train",17380.0,"2021-11-21 14:06:22.225995","","","","","","",""
16.0,0.6774064898490906,0.001994184936170517,"train",17400.0,"2021-11-21 14:06:25.815385","","","","","","",""
16.0,0.43092626333236694,0.0019940035498549804,"train",17420.0,"2021-11-21 14:06:29.315373","","","","","","",""
16.0,0.46625494956970215,0.0019938193863777145,"train",17440.0,"2021-11-21 14:06:32.690585","","","","","","",""
16.0,0.3964318633079529,0.001993632446253258,"train",17460.0,"2021-11-21 14:06:36.069407","","","","","","",""
16.0,0.464012086391449,0.0019934427300039074,"train",17480.0,"2021-11-21 14:06:39.536152","","","","","","",""
16.0,0.418648362159729,0.001993250238159717,"train",17500.0,"2021-11-21 14:06:43.099756","","","","","","",""
16.0,0.25695687532424927,0.0019930549712584944,"train",17520.0,"2021-11-21 14:06:47.221091","","","","","","",""
16.0,0.5416632890701294,0.001992856929845801,"train",17540.0,"2021-11-21 14:06:50.758586","","","","","","",""
16.0,0.49094027280807495,0.0019926561144749497,"train",17560.0,"2021-11-21 14:06:54.394054","","","","","","",""
16.0,0.4412955641746521,0.001992452525707004,"train",17580.0,"2021-11-21 14:06:58.036503","","","","","","",""
16.0,0.4069906771183014,0.0019922461641107767,"train",17600.0,"2021-11-21 14:07:01.708564","","","","","","",""
16.0,0.3638966381549835,0.001992037030262826,"train",17620.0,"2021-11-21 14:07:05.494562","","","","","","",""
16.0,0.6905746459960938,0.0019918251247474567,"train",17640.0,"2021-11-21 14:07:09.788349","","","","","","",""
16.0,0.4363759756088257,0.001991610448156718,"train",17660.0,"2021-11-21 14:07:13.413607","","","","","","",""
16.0,0.34968626499176025,0.0019913930010903996,"train",17680.0,"2021-11-21 14:07:17.062744","","","","","","",""
16.0,0.5518158674240112,0.001991172784156033,"train",17700.0,"2021-11-21 14:07:20.743946","","","","","","",""
16.0,0.4137815535068512,0.0019909497979688877,"train",17720.0,"2021-11-21 14:07:24.372527","","","","","","",""
16.0,0.4480504095554352,0.0019907240431519713,"train",17740.0,"2021-11-21 14:07:27.986845","","","","","","",""
16.0,0.4458005130290985,0.001990495520336026,"train",17760.0,"2021-11-21 14:07:32.165319","","","","","","",""
16.0,0.6318854093551636,0.0019902642301595284,"train",17780.0,"2021-11-21 14:07:35.769864","","","","","","",""
16.0,0.3495190739631653,0.001990030173268685,"train",17800.0,"2021-11-21 14:07:39.369757","","","","","","",""
16.0,0.4286482334136963,0.0019897933503174345,"train",17820.0,"2021-11-21 14:07:42.963145","","","","","","",""
16.0,0.5423504710197449,0.0019895537619674425,"train",17840.0,"2021-11-21 14:07:46.560923","","","","","","",""
16.0,0.4140538275241852,0.001989311408888101,"train",17860.0,"2021-11-21 14:07:50.126373","","","","","","",""
16.0,0.503891110420227,0.001989066291756527,"train",17880.0,"2021-11-21 14:07:54.274107","","","","","","",""
16.0,0.28232231736183167,0.00198881841125756,"train",17900.0,"2021-11-21 14:07:57.847532","","","","","","",""
16.0,0.40174493193626404,0.0019885677680837595,"train",17920.0,"2021-11-21 14:08:01.458049","","","","","","",""
16.0,0.3018122911453247,0.001988314362935404,"train",17940.0,"2021-11-21 14:08:05.093119","","","","","","",""
16.0,0.592429518699646,0.0019880581965204896,"train",17960.0,"2021-11-21 14:08:08.715992","","","","","","",""
16.0,0.36197277903556824,0.0019877992695547255,"train",17980.0,"2021-11-21 14:08:12.274891","","","","","","",""
16.0,0.4355960488319397,0.0019875375827615354,"train",18000.0,"2021-11-21 14:08:16.441841","","","","","","",""
16.0,0.5695800185203552,0.0019872731368720527,"train",18020.0,"2021-11-21 14:08:20.011969","","","","","","",""
16.0,0.40544283390045166,0.00198700593262512,"train",18040.0,"2021-11-21 14:08:23.590220","","","","","","",""
16.0,0.3119594156742096,0.001986735970767286,"train",18060.0,"2021-11-21 14:08:27.201810","","","","","","",""
16.0,0.3153250515460968,0.001986463252052804,"train",18080.0,"2021-11-21 14:08:30.790405","","","","","","",""
16.0,0.5139188766479492,0.0019861877772436305,"train",18100.0,"2021-11-21 14:08:34.405711","","","","","","",""
16.0,0.42163240909576416,0.001985909547109422,"train",18120.0,"2021-11-21 14:08:38.520189","","","","","","",""
16.0,0.44399958848953247,0.001985628562427533,"train",18140.0,"2021-11-21 14:08:42.152698","","","","","","",""
16.0,0.4760591983795166,0.001985344823983014,"train",18160.0,"2021-11-21 14:08:45.769782","","","","","","",""
16.0,0.3674008548259735,0.001985058332568609,"train",18180.0,"2021-11-21 14:08:49.411718","","","","","","",""
16.0,0.30423933267593384,0.001984769088984755,"train",18200.0,"2021-11-21 14:08:53.077682","","","","","","",""
16.0,0.4302375912666321,0.001984477094039576,"train",18220.0,"2021-11-21 14:08:56.684889","","","","","","",""
16.0,0.28768977522850037,0.001984182348548885,"train",18240.0,"2021-11-21 14:09:00.833465","","","","","","",""
16.0,"","","train",18258.0,"2021-11-21 14:10:38.691735",0.5575492978243469,0.6406423341337606,0.9553649446030102,0.5491325854550536,0.515533879109553,0.5337258177908399,0.34246724851102134
16.0,"","","val",18258.0,"2021-11-21 14:11:05.549947",0.5322393598515598,0.5389604647164278,0.9386849344429415,0.5176547840001855,0.4504189896889195,0.46679072486772955,0.28626936296538374
17.0,0.2955784797668457,0.00198388485333618,"train",18260.0,"2021-11-21 14:11:08.786799","","","","","","",""
17.0,0.31227439641952515,0.0019835846092326396,"train",18280.0,"2021-11-21 14:11:12.582279","","","","","","",""
17.0,0.6468726396560669,0.0019832816170771246,"train",18300.0,"2021-11-21 14:11:16.318897","","","","","","",""
17.0,0.3261343240737915,0.001982975877716172,"train",18320.0,"2021-11-21 14:11:19.980198","","","","","","",""
17.0,0.35673055052757263,0.0019826673920039957,"train",18340.0,"2021-11-21 14:11:23.635784","","","","","","",""
17.0,0.4072771966457367,0.0019823561608024822,"train",18360.0,"2021-11-21 14:11:27.895576","","","","","","",""
17.0,0.3197270929813385,0.0019820421849811886,"train",18380.0,"2021-11-21 14:11:31.520807","","","","","","",""
17.0,0.36872598528862,0.0019817254654173402,"train",18400.0,"2021-11-21 14:11:35.148287","","","","","","",""
17.0,0.43982425332069397,0.0019814060029958278,"train",18420.0,"2021-11-21 14:11:38.820850","","","","","","",""
17.0,0.5115292072296143,0.001981083798609206,"train",18440.0,"2021-11-21 14:11:42.387178","","","","","","",""
17.0,0.27113792300224304,0.0019807588531576908,"train",18460.0,"2021-11-21 14:11:45.942297","","","","","","",""
17.0,0.3158748745918274,0.0019804311675491555,"train",18480.0,"2021-11-21 14:11:49.996239","","","","","","",""
17.0,0.40400639176368713,0.00198010074269913,"train",18500.0,"2021-11-21 14:11:53.636350","","","","","","",""
17.0,0.35526445508003235,0.0019797675795307965,"train",18520.0,"2021-11-21 14:11:57.248709","","","","","","",""
17.0,0.25897809863090515,0.0019794316789749885,"train",18540.0,"2021-11-21 14:12:00.845335","","","","","","",""
17.0,0.29953303933143616,0.0019790930419701877,"train",18560.0,"2021-11-21 14:12:04.454791","","","","","","",""
17.0,0.5284702181816101,0.0019787516694625214,"train",18580.0,"2021-11-21 14:12:08.017229","","","","","","",""
17.0,0.40186765789985657,0.0019784075624057584,"train",18600.0,"2021-11-21 14:12:12.229586","","","","","","",""
17.0,0.3738557994365692,0.0019780607217613094,"train",18620.0,"2021-11-21 14:12:15.895540","","","","","","",""
17.0,0.39295729994773865,0.001977711148498221,"train",18640.0,"2021-11-21 14:12:19.578692","","","","","","",""
17.0,0.5434995889663696,0.0019773588435931756,"train",18660.0,"2021-11-21 14:12:23.275663","","","","","","",""
17.0,0.6985463500022888,0.0019770038080304873,"train",18680.0,"2021-11-21 14:12:27.028323","","","","","","",""
17.0,0.6755799055099487,0.001976646042802099,"train",18700.0,"2021-11-21 14:12:30.756268","","","","","","",""
17.0,0.5374638438224792,0.0019762855489075808,"train",18720.0,"2021-11-21 14:12:35.050253","","","","","","",""
17.0,0.38843274116516113,0.001975922327354126,"train",18740.0,"2021-11-21 14:12:38.812501","","","","","","",""
17.0,0.4245315194129944,0.001975556379156549,"train",18760.0,"2021-11-21 14:12:42.587933","","","","","","",""
17.0,0.6123602986335754,0.0019751877053372823,"train",18780.0,"2021-11-21 14:12:46.284408","","","","","","",""
17.0,0.4675377607345581,0.001974816306926373,"train",18800.0,"2021-11-21 14:12:49.871345","","","","","","",""
17.0,0.40850692987442017,0.001974442184961482,"train",18820.0,"2021-11-21 14:12:53.561667","","","","","","",""
17.0,0.4076104760169983,0.0019740653404878776,"train",18840.0,"2021-11-21 14:12:57.701459","","","","","","",""
17.0,0.49445879459381104,0.0019736857745584362,"train",18860.0,"2021-11-21 14:13:01.186852","","","","","","",""
17.0,0.3138033151626587,0.0019733034882336367,"train",18880.0,"2021-11-21 14:13:04.735096","","","","","","",""
17.0,0.4092108905315399,0.0019729184825815586,"train",18900.0,"2021-11-21 14:13:08.297554","","","","","","",""
17.0,0.32081618905067444,0.0019725307586778806,"train",18920.0,"2021-11-21 14:13:11.970473","","","","","","",""
17.0,0.3935856223106384,0.001972140317605874,"train",18940.0,"2021-11-21 14:13:15.593427","","","","","","",""
17.0,0.3407764136791229,0.0019717471604564028,"train",18960.0,"2021-11-21 14:13:19.757186","","","","","","",""
17.0,0.4504023492336273,0.0019713512883279185,"train",18980.0,"2021-11-21 14:13:23.411041","","","","","","",""
17.0,0.36846810579299927,0.00197095270232646,"train",19000.0,"2021-11-21 14:13:27.027833","","","","","","",""
17.0,0.414832204580307,0.001970551403565646,"train",19020.0,"2021-11-21 14:13:30.675616","","","","","","",""
17.0,0.42577096819877625,0.0019701473931666765,"train",19040.0,"2021-11-21 14:13:34.259569","","","","","","",""
17.0,0.4601285755634308,0.001969740672258327,"train",19060.0,"2021-11-21 14:13:37.845330","","","","","","",""
17.0,0.5734642148017883,0.0019693312419769454,"train",19080.0,"2021-11-21 14:13:41.593452","","","","","","",""
17.0,0.5565579533576965,0.0019689191034664498,"train",19100.0,"2021-11-21 14:13:45.877709","","","","","","",""
17.0,0.5549754500389099,0.0019685042578783257,"train",19120.0,"2021-11-21 14:13:49.591317","","","","","","",""
17.0,0.34743526577949524,0.00196808670637162,"train",19140.0,"2021-11-21 14:13:53.311377","","","","","","",""
17.0,0.5270665884017944,0.001967666450112942,"train",19160.0,"2021-11-21 14:13:56.984022","","","","","","",""
17.0,0.5334681272506714,0.001967243490276456,"train",19180.0,"2021-11-21 14:14:00.684366","","","","","","",""
17.0,0.36320731043815613,0.0019668178280438818,"train",19200.0,"2021-11-21 14:14:04.463801","","","","","","",""
17.0,0.324577271938324,0.0019663894646044875,"train",19220.0,"2021-11-21 14:14:08.757648","","","","","","",""
17.0,0.8116487860679626,0.001965958401155089,"train",19240.0,"2021-11-21 14:14:12.473625","","","","","","",""
17.0,0.5510145425796509,0.0019655246389000463,"train",19260.0,"2021-11-21 14:14:16.218773","","","","","","",""
17.0,0.4710065722465515,0.0019650881790512597,"train",19280.0,"2021-11-21 14:14:20.008804","","","","","","",""
17.0,0.3755502700805664,0.001964649022828165,"train",19300.0,"2021-11-21 14:14:23.879203","","","","","","",""
17.0,0.2609435021877289,0.0019642071714577325,"train",19320.0,"2021-11-21 14:14:27.586567","","","","","","",""
17.0,"","","train",19332.0,"2021-11-21 14:16:03.240639",0.5580004365858983,0.6530440105525984,0.9579057323793917,0.576432591524668,0.5250112804238649,0.5477421558977469,0.35468481280898373
17.0,"","","val",19332.0,"2021-11-21 14:16:28.661144",0.5367041632842399,0.5407210660131477,0.9409279021283048,0.5437342149955944,0.4546114926021909,0.4743284133153734,0.292039589231727
18.0,0.3100090026855469,0.0019637626261744634,"train",19340.0,"2021-11-21 14:16:32.972999","","","","","","",""
18.0,0.5404934883117676,0.001963315388220384,"train",19360.0,"2021-11-21 14:16:36.784004","","","","","","",""
18.0,0.30525150895118713,0.0019628654588450443,"train",19380.0,"2021-11-21 14:16:40.545494","","","","","","",""
18.0,0.6190522313117981,0.001962412839305514,"train",19400.0,"2021-11-21 14:16:44.219457","","","","","","",""
18.0,0.47717535495758057,0.0019619575308663785,"train",19420.0,"2021-11-21 14:16:47.882087","","","","","","",""
18.0,0.6439061164855957,0.001961499534799737,"train",19440.0,"2021-11-21 14:16:51.568895","","","","","","",""
18.0,0.4242253005504608,0.001961038852385196,"train",19460.0,"2021-11-21 14:16:55.999430","","","","","","",""
18.0,0.3759329915046692,0.0019605754849098683,"train",19480.0,"2021-11-21 14:16:59.674138","","","","","","",""
18.0,0.2722160518169403,0.0019601094336683693,"train",19500.0,"2021-11-21 14:17:03.343933","","","","","","",""
18.0,0.5786710977554321,0.0019596406999628116,"train",19520.0,"2021-11-21 14:17:07.074797","","","","","","",""
18.0,0.5984811782836914,0.0019591692851028022,"train",19540.0,"2021-11-21 14:17:10.835027","","","","","","",""
18.0,0.40943899750709534,0.001958695190405441,"train",19560.0,"2021-11-21 14:17:14.484948","","","","","","",""
18.0,0.3324981927871704,0.001958218417195312,"train",19580.0,"2021-11-21 14:17:18.674367","","","","","","",""
18.0,0.4860028028488159,0.001957738966804486,"train",19600.0,"2021-11-21 14:17:22.361432","","","","","","",""
18.0,0.5150336027145386,0.001957256840572511,"train",19620.0,"2021-11-21 14:17:26.003043","","","","","","",""
18.0,0.2909775972366333,0.0019567720398464133,"train",19640.0,"2021-11-21 14:17:29.682589","","","","","","",""
18.0,0.35814809799194336,0.00195628456598069,"train",19660.0,"2021-11-21 14:17:33.353286","","","","","","",""
18.0,0.35562458634376526,0.001955794420337307,"train",19680.0,"2021-11-21 14:17:37.050323","","","","","","",""
18.0,0.48052194714546204,0.0019553016042856957,"train",19700.0,"2021-11-21 14:17:41.343719","","","","","","",""
18.0,0.5391055941581726,0.001954806119202748,"train",19720.0,"2021-11-21 14:17:45.006430","","","","","","",""
18.0,0.230032280087471,0.001954307966472812,"train",19740.0,"2021-11-21 14:17:48.805151","","","","","","",""
18.0,0.3490450382232666,0.0019538071474876914,"train",19760.0,"2021-11-21 14:17:52.460019","","","","","","",""
18.0,0.5824446082115173,0.001953303663646636,"train",19780.0,"2021-11-21 14:17:56.175225","","","","","","",""
18.0,0.4522934556007385,0.0019527975163563436,"train",19800.0,"2021-11-21 14:17:59.929215","","","","","","",""
18.0,0.32876697182655334,0.0019522887070309524,"train",19820.0,"2021-11-21 14:18:04.175042","","","","","","",""
18.0,0.3086981177330017,0.0019517772370920379,"train",19840.0,"2021-11-21 14:18:07.879951","","","","","","",""
18.0,0.5718240141868591,0.0019512631079686104,"train",19860.0,"2021-11-21 14:18:11.628712","","","","","","",""
18.0,0.24705861508846283,0.001950746321097108,"train",19880.0,"2021-11-21 14:18:15.400919","","","","","","",""
18.0,0.4733753502368927,0.0019502268779213957,"train",19900.0,"2021-11-21 14:18:19.190617","","","","","","",""
18.0,0.43701085448265076,0.0019497047798927598,"train",19920.0,"2021-11-21 14:18:22.956868","","","","","","",""
18.0,0.4278029203414917,0.001949180028469903,"train",19940.0,"2021-11-21 14:18:27.213499","","","","","","",""
18.0,0.6747795939445496,0.0019486526251189435,"train",19960.0,"2021-11-21 14:18:30.952052","","","","","","",""
18.0,0.37485721707344055,0.0019481225713134064,"train",19980.0,"2021-11-21 14:18:34.664348","","","","","","",""
18.0,0.3753335177898407,0.0019475898685342235,"train",20000.0,"2021-11-21 14:18:38.385126","","","","","","",""
18.0,0.5020967721939087,0.0019470545182697272,"train",20020.0,"2021-11-21 14:18:42.060267","","","","","","",""
18.0,0.47935542464256287,0.001946516522015647,"train",20040.0,"2021-11-21 14:18:45.651935","","","","","","",""
18.0,0.43791624903678894,0.0019459758812751047,"train",20060.0,"2021-11-21 14:18:49.861526","","","","","","",""
18.0,0.42211636900901794,0.0019454325975586106,"train",20080.0,"2021-11-21 14:18:53.463952","","","","","","",""
18.0,0.3204183578491211,0.0019448866723840602,"train",20100.0,"2021-11-21 14:18:57.062637","","","","","","",""
18.0,0.4491162598133087,0.001944338107276728,"train",20120.0,"2021-11-21 14:19:00.708436","","","","","","",""
18.0,0.6482195258140564,0.0019437869037692644,"train",20140.0,"2021-11-21 14:19:04.359237","","","","","","",""
18.0,0.3817331790924072,0.0019432330634016912,"train",20160.0,"2021-11-21 14:19:07.927933","","","","","","",""
18.0,0.4731176197528839,0.0019426765877213986,"train",20180.0,"2021-11-21 14:19:12.027886","","","","","","",""
18.0,0.34973838925361633,0.0019421174782831383,"train",20200.0,"2021-11-21 14:19:15.634727","","","","","","",""
18.0,0.4168601334095001,0.0019415557366490208,"train",20220.0,"2021-11-21 14:19:19.203232","","","","","","",""
18.0,0.6364569067955017,0.0019409913643885113,"train",20240.0,"2021-11-21 14:19:22.837252","","","","","","",""
18.0,0.3678014576435089,0.0019404243630784246,"train",20260.0,"2021-11-21 14:19:26.529393","","","","","","",""
18.0,0.5301023721694946,0.0019398547343029203,"train",20280.0,"2021-11-21 14:19:30.140451","","","","","","",""
18.0,0.2863944470882416,0.0019392824796534997,"train",20300.0,"2021-11-21 14:19:34.311167","","","","","","",""
18.0,0.341781347990036,0.0019387076007289998,"train",20320.0,"2021-11-21 14:19:37.878168","","","","","","",""
18.0,0.23377586901187897,0.0019381300991355903,"train",20340.0,"2021-11-21 14:19:41.521290","","","","","","",""
18.0,0.6897527575492859,0.0019375499764867684,"train",20360.0,"2021-11-21 14:19:45.237737","","","","","","",""
18.0,0.43452244997024536,0.001936967234403354,"train",20380.0,"2021-11-21 14:19:48.914402","","","","","","",""
