"epoch","loss","lr","part","step","time","accuracy","auprc","auroc","challenge_metric","f_beta_measure","f_measure","g_beta_measure"
0.0,0.4602632224559784,8.000730236035311e-05,"train",20.0,"2021-11-21 08:23:13.741010","","","","","","",""
0.0,0.2736780643463135,8.002920933031948e-05,"train",40.0,"2021-11-21 08:23:17.633023","","","","","","",""
0.0,0.12120503932237625,8.006572057662293e-05,"train",60.0,"2021-11-21 08:23:20.860334","","","","","","",""
0.0,0.1358409821987152,8.011683554380914e-05,"train",80.0,"2021-11-21 08:23:24.116891","","","","","","",""
0.0,0.1291947066783905,8.018255345425274e-05,"train",100.0,"2021-11-21 08:23:27.340290","","","","","","",""
0.0,0.13552497327327728,8.026287330817079e-05,"train",120.0,"2021-11-21 08:23:30.564444","","","","","","",""
0.0,0.13247328996658325,8.03577938836373e-05,"train",140.0,"2021-11-21 08:23:34.439934","","","","","","",""
0.0,0.13536231219768524,8.04673137366021e-05,"train",160.0,"2021-11-21 08:23:37.711878","","","","","","",""
0.0,0.12050464004278183,8.059143120091187e-05,"train",180.0,"2021-11-21 08:23:40.959923","","","","","","",""
0.0,0.11825323849916458,8.073014438833613e-05,"train",200.0,"2021-11-21 08:23:44.136567","","","","","","",""
0.0,0.11444825679063797,8.088345118859724e-05,"train",220.0,"2021-11-21 08:23:47.316481","","","","","","",""
0.0,0.1386728286743164,8.10513492693996e-05,"train",240.0,"2021-11-21 08:23:51.043908","","","","","","",""
0.0,0.12149984389543533,8.123383607646804e-05,"train",260.0,"2021-11-21 08:23:54.269874","","","","","","",""
0.0,0.12172574549913406,8.143090883358495e-05,"train",280.0,"2021-11-21 08:23:57.552684","","","","","","",""
0.0,0.1232551634311676,8.164256454263295e-05,"train",300.0,"2021-11-21 08:24:00.834303","","","","","","",""
0.0,0.12142996490001678,8.186879998364088e-05,"train",320.0,"2021-11-21 08:24:04.069765","","","","","","",""
0.0,0.121072918176651,8.210961171483213e-05,"train",340.0,"2021-11-21 08:24:07.864457","","","","","","",""
0.0,0.11870739609003067,8.236499607267717e-05,"train",360.0,"2021-11-21 08:24:11.070572","","","","","","",""
0.0,0.11801182478666306,8.26349491719505e-05,"train",380.0,"2021-11-21 08:24:14.280367","","","","","","",""
0.0,0.11065395176410675,8.291946690578713e-05,"train",400.0,"2021-11-21 08:24:17.452268","","","","","","",""
0.0,0.11239404231309891,8.321854494574774e-05,"train",420.0,"2021-11-21 08:24:20.604953","","","","","","",""
0.0,0.12097865343093872,8.353217874188293e-05,"train",440.0,"2021-11-21 08:24:24.305461","","","","","","",""
0.0,0.12028052657842636,8.38603635228035e-05,"train",460.0,"2021-11-21 08:24:27.495783","","","","","","",""
0.0,0.11338634043931961,8.420309429575212e-05,"train",480.0,"2021-11-21 08:24:30.746257","","","","","","",""
0.0,0.1050930768251419,8.456036584667914e-05,"train",500.0,"2021-11-21 08:24:33.880498","","","","","","",""
0.0,0.11465052515268326,8.493217274032315e-05,"train",520.0,"2021-11-21 08:24:37.013715","","","","","","",""
0.0,0.11045291274785995,8.531850932029235e-05,"train",540.0,"2021-11-21 08:24:40.632219","","","","","","",""
0.0,0.10831179469823837,8.571936970915212e-05,"train",560.0,"2021-11-21 08:24:43.780211","","","","","","",""
0.0,0.11033535748720169,8.613474780851246e-05,"train",580.0,"2021-11-21 08:24:46.921781","","","","","","",""
0.0,0.1127452701330185,8.656463729912224e-05,"train",600.0,"2021-11-21 08:24:50.118595","","","","","","",""
0.0,0.09581839293241501,8.700903164096468e-05,"train",620.0,"2021-11-21 08:24:53.344398","","","","","","",""
0.0,0.10673387348651886,8.746792407335769e-05,"train",640.0,"2021-11-21 08:24:57.131892","","","","","","",""
0.0,0.09581813961267471,8.794130761505497e-05,"train",660.0,"2021-11-21 08:25:00.349407","","","","","","",""
0.0,0.1039060577750206,8.842917506435462e-05,"train",680.0,"2021-11-21 08:25:03.572671","","","","","","",""
0.0,0.09280700981616974,8.893151899920645e-05,"train",700.0,"2021-11-21 08:25:06.793216","","","","","","",""
0.0,0.11211206763982773,8.944833177732632e-05,"train",720.0,"2021-11-21 08:25:09.998351","","","","","","",""
0.0,0.10286390036344528,8.997960553631186e-05,"train",740.0,"2021-11-21 08:25:13.729190","","","","","","",""
0.0,0.11131945252418518,9.052533219376224e-05,"train",760.0,"2021-11-21 08:25:16.931323","","","","","","",""
0.0,0.1036103367805481,9.108550344740104e-05,"train",780.0,"2021-11-21 08:25:20.136283","","","","","","",""
0.0,0.10789570957422256,9.166011077520208e-05,"train",800.0,"2021-11-21 08:25:23.399528","","","","","","",""
0.0,0.0884936973452568,9.224914543552059e-05,"train",820.0,"2021-11-21 08:25:26.588734","","","","","","",""
0.0,0.09947219491004944,9.285259846722417e-05,"train",840.0,"2021-11-21 08:25:30.278437","","","","","","",""
0.0,0.1053689494729042,9.34704606898307e-05,"train",860.0,"2021-11-21 08:25:33.438104","","","","","","",""
0.0,0.08275741338729858,9.410272270364735e-05,"train",880.0,"2021-11-21 08:25:36.573491","","","","","","",""
0.0,0.09289199113845825,9.474937488991348e-05,"train",900.0,"2021-11-21 08:25:39.738898","","","","","","",""
0.0,0.09371918439865112,9.541040741094719e-05,"train",920.0,"2021-11-21 08:25:42.924292","","","","","","",""
0.0,0.10949620604515076,9.608581021029522e-05,"train",940.0,"2021-11-21 08:25:46.712569","","","","","","",""
0.0,0.09256179630756378,9.677557301288509e-05,"train",960.0,"2021-11-21 08:25:49.889104","","","","","","",""
0.0,0.09928678721189499,9.747968532518238e-05,"train",980.0,"2021-11-21 08:25:53.060020","","","","","","",""
0.0,0.08359219878911972,9.819813643535029e-05,"train",1000.0,"2021-11-21 08:25:56.232996","","","","","","",""
0.0,0.10246028006076813,9.893091541341185e-05,"train",1020.0,"2021-11-21 08:25:59.406330","","","","","","",""
0.0,0.10096031427383423,9.967801111141644e-05,"train",1040.0,"2021-11-21 08:26:03.054168","","","","","","",""
0.0,0.08224938809871674,0.00010043941216361023,"train",1060.0,"2021-11-21 08:26:06.210018","","","","","","",""
0.0,"","","train",1074.0,"2021-11-21 08:27:41.859647",0.4093283853598195,0.2234400852433654,0.7892141820018904,0.2976190623392245,0.1446584577566284,0.14054924582405673,0.0956411136752824
0.0,"","","val",1074.0,"2021-11-21 08:28:06.774572",0.4058332366925664,0.21990008668453306,0.7904898377280392,0.2938346001792963,0.14273797800683574,0.13851157516879103,0.09397711634465448
1.0,0.10085012763738632,0.00010121510698660771,"train",1080.0,"2021-11-21 08:28:10.435111","","","","","","",""
1.0,0.11143551021814346,0.00010200508377956928,"train",1100.0,"2021-11-21 08:28:13.707244","","","","","","",""
1.0,0.08406729251146317,0.00010280933052437993,"train",1120.0,"2021-11-21 08:28:16.950813","","","","","","",""
1.0,0.08787079155445099,0.00010362783498583223,"train",1140.0,"2021-11-21 08:28:20.811760","","","","","","",""
1.0,0.08951282501220703,0.0001044605847118124,"train",1160.0,"2021-11-21 08:28:24.100792","","","","","","",""
1.0,0.07341337203979492,0.0001053075670334907,"train",1180.0,"2021-11-21 08:28:27.331622","","","","","","",""
1.0,0.07975947111845016,0.00010616876906551181,"train",1200.0,"2021-11-21 08:28:30.574523","","","","","","",""
1.0,0.0774001032114029,0.0001070441777061941,"train",1220.0,"2021-11-21 08:28:33.780643","","","","","","",""
1.0,0.07544444501399994,0.00010793377963772563,"train",1240.0,"2021-11-21 08:28:37.536649","","","","","","",""
1.0,0.10264798998832703,0.0001088375613263698,"train",1260.0,"2021-11-21 08:28:40.748942","","","","","","",""
1.0,0.09608470648527145,0.00010975550902266908,"train",1280.0,"2021-11-21 08:28:43.970297","","","","","","",""
1.0,0.09458353370428085,0.00011068760876165474,"train",1300.0,"2021-11-21 08:28:47.171585","","","","","","",""
1.0,0.09175174683332443,0.0001116338463630598,"train",1320.0,"2021-11-21 08:28:50.377177","","","","","","",""
1.0,0.08375480026006699,0.00011259420743153455,"train",1340.0,"2021-11-21 08:28:54.032257","","","","","","",""
1.0,0.0910772830247879,0.00011356867735686535,"train",1360.0,"2021-11-21 08:28:57.229433","","","","","","",""
1.0,0.09527698159217834,0.00011455724131419621,"train",1380.0,"2021-11-21 08:29:00.445604","","","","","","",""
1.0,0.08343552052974701,0.00011555988426425654,"train",1400.0,"2021-11-21 08:29:03.640054","","","","","","",""
1.0,0.09879197925329208,0.00011657659095358746,"train",1420.0,"2021-11-21 08:29:06.847881","","","","","","",""
1.0,0.06656277924776077,0.00011760734591477516,"train",1440.0,"2021-11-21 08:29:10.560628","","","","","","",""
1.0,0.09735507518053055,0.00011865213346668618,"train",1460.0,"2021-11-21 08:29:13.784901","","","","","","",""
1.0,0.08056110143661499,0.00011971093771470502,"train",1480.0,"2021-11-21 08:29:17.054180","","","","","","",""
1.0,0.08653347939252853,0.0001207837425509777,"train",1500.0,"2021-11-21 08:29:20.287231","","","","","","",""
1.0,0.08188627660274506,0.00012187053165465503,"train",1520.0,"2021-11-21 08:29:23.488872","","","","","","",""
1.0,0.08713812381029129,0.000122971288492142,"train",1540.0,"2021-11-21 08:29:27.165300","","","","","","",""
1.0,0.07703724503517151,0.00012408599631734863,"train",1560.0,"2021-11-21 08:29:30.334585","","","","","","",""
1.0,0.09872876107692719,0.00012521463817194542,"train",1580.0,"2021-11-21 08:29:33.555677","","","","","","",""
1.0,0.08593594282865524,0.00012635719688562077,"train",1600.0,"2021-11-21 08:29:36.707637","","","","","","",""
1.0,0.0786033347249031,0.00012751365507634267,"train",1620.0,"2021-11-21 08:29:39.850966","","","","","","",""
1.0,0.08691161125898361,0.0001286839951506226,"train",1640.0,"2021-11-21 08:29:43.586165","","","","","","",""
1.0,0.08359257131814957,0.00012986819930378333,"train",1660.0,"2021-11-21 08:29:46.778204","","","","","","",""
1.0,0.0834370031952858,0.00013106624952023064,"train",1680.0,"2021-11-21 08:29:49.991677","","","","","","",""
1.0,0.06971283257007599,0.00013227812757372545,"train",1700.0,"2021-11-21 08:29:53.189317","","","","","","",""
1.0,0.06672888994216919,0.00013350381502766394,"train",1720.0,"2021-11-21 08:29:56.416885","","","","","","",""
1.0,0.07578147947788239,0.00013474329323535494,"train",1740.0,"2021-11-21 08:30:00.088328","","","","","","",""
1.0,0.08212939649820328,0.0001359965433403059,"train",1760.0,"2021-11-21 08:30:03.214466","","","","","","",""
1.0,0.08658380061388016,0.00013726354627650872,"train",1780.0,"2021-11-21 08:30:06.340392","","","","","","",""
1.0,0.08864966779947281,0.00013854428276873052,"train",1800.0,"2021-11-21 08:30:09.490595","","","","","","",""
1.0,0.07025613635778427,0.00013983873333280506,"train",1820.0,"2021-11-21 08:30:12.624085","","","","","","",""
1.0,0.08733579516410828,0.00014114687827593156,"train",1840.0,"2021-11-21 08:30:16.305999","","","","","","",""
1.0,0.0837937742471695,0.00014246869769697352,"train",1860.0,"2021-11-21 08:30:19.444799","","","","","","",""
1.0,0.0781092420220375,0.00014380417148676054,"train",1880.0,"2021-11-21 08:30:22.649235","","","","","","",""
1.0,0.07783589512109756,0.00014515327932839404,"train",1900.0,"2021-11-21 08:30:25.877980","","","","","","",""
1.0,0.08997086435556412,0.0001465160006975598,"train",1920.0,"2021-11-21 08:30:29.150770","","","","","","",""
1.0,0.07938974350690842,0.00014789231486283454,"train",1940.0,"2021-11-21 08:30:32.810248","","","","","","",""
1.0,0.07566676288843155,0.00014928220088600633,"train",1960.0,"2021-11-21 08:30:36.018649","","","","","","",""
1.0,0.07809348404407501,0.00015068563762239045,"train",1980.0,"2021-11-21 08:30:39.243440","","","","","","",""
1.0,0.08036438375711441,0.00015210260372115238,"train",2000.0,"2021-11-21 08:30:42.470872","","","","","","",""
1.0,0.09946247935295105,0.00015353307762563115,"train",2020.0,"2021-11-21 08:30:45.674836","","","","","","",""
1.0,0.07996673882007599,0.00015497703757366872,"train",2040.0,"2021-11-21 08:30:49.384110","","","","","","",""
1.0,0.07756855338811874,0.00015643446159794,"train",2060.0,"2021-11-21 08:30:52.566481","","","","","","",""
1.0,0.07509621232748032,0.0001579053275262887,"train",2080.0,"2021-11-21 08:30:55.801358","","","","","","",""
1.0,0.087262362241745,0.00015938961298206183,"train",2100.0,"2021-11-21 08:30:59.033878","","","","","","",""
1.0,0.07162445038557053,0.00016088729538445297,"train",2120.0,"2021-11-21 08:31:02.281681","","","","","","",""
1.0,0.07962612062692642,0.000162398351948844,"train",2140.0,"2021-11-21 08:31:06.012763","","","","","","",""
1.0,"","","train",2148.0,"2021-11-21 08:32:43.350245",0.43741541148220914,0.3128535585009828,0.8554180153608942,0.3684317524368442,0.1905461907966398,0.1847061242723465,0.13028171854193962
1.0,"","","val",2148.0,"2021-11-21 08:33:10.050333",0.4351153890757277,0.31086298418604313,0.8534839648193097,0.3648250112550815,0.19013222863517704,0.18457757625564153,0.1280976740295501
2.0,0.08789192885160446,0.00016392275968715297,"train",2160.0,"2021-11-21 08:33:14.805173","","","","","","",""
2.0,0.07743320614099503,0.00016546049540818223,"train",2180.0,"2021-11-21 08:33:17.968227","","","","","","",""
2.0,0.08771051466464996,0.00016701153571797313,"train",2200.0,"2021-11-21 08:33:21.137255","","","","","","",""
2.0,0.07285962998867035,0.00016857585702016015,"train",2220.0,"2021-11-21 08:33:24.325809","","","","","","",""
2.0,0.08087948709726334,0.00017015343551633126,"train",2240.0,"2021-11-21 08:33:28.154393","","","","","","",""
2.0,0.07969009131193161,0.0001717442472063892,"train",2260.0,"2021-11-21 08:33:31.441037","","","","","","",""
2.0,0.0835542157292366,0.00017334826788891681,"train",2280.0,"2021-11-21 08:33:34.716175","","","","","","",""
2.0,0.08426813036203384,0.00017496547316154555,"train",2300.0,"2021-11-21 08:33:37.988730","","","","","","",""
2.0,0.07384741306304932,0.00017659583842132573,"train",2320.0,"2021-11-21 08:33:41.256812","","","","","","",""
2.0,0.10372121632099152,0.00017823933886510217,"train",2340.0,"2021-11-21 08:33:45.028147","","","","","","",""
2.0,0.08319110423326492,0.00017989594948989015,"train",2360.0,"2021-11-21 08:33:48.237328","","","","","","",""
2.0,0.07529948651790619,0.00018156564509325753,"train",2380.0,"2021-11-21 08:33:51.460792","","","","","","",""
2.0,0.08638811111450195,0.0001832484002737059,"train",2400.0,"2021-11-21 08:33:54.724974","","","","","","",""
2.0,0.07836814969778061,0.00018494418943105877,"train",2420.0,"2021-11-21 08:33:57.983812","","","","","","",""
2.0,0.07440054416656494,0.00018665298676685078,"train",2440.0,"2021-11-21 08:34:01.761896","","","","","","",""
2.0,0.08302000910043716,0.0001883747662847191,"train",2460.0,"2021-11-21 08:34:04.987971","","","","","","",""
2.0,0.082197405397892,0.00019010950179080112,"train",2480.0,"2021-11-21 08:34:08.224228","","","","","","",""
2.0,0.0827023833990097,0.00019185716689412995,"train",2500.0,"2021-11-21 08:34:11.464778","","","","","","",""
2.0,0.0831376239657402,0.00019361773500703797,"train",2520.0,"2021-11-21 08:34:14.753703","","","","","","",""
2.0,0.08536381274461746,0.00019539117934556168,"train",2540.0,"2021-11-21 08:34:18.534456","","","","","","",""
2.0,0.06761648505926132,0.00019717747292984696,"train",2560.0,"2021-11-21 08:34:21.768272","","","","","","",""
2.0,0.07812245190143585,0.0001989765885845624,"train",2580.0,"2021-11-21 08:34:25.012046","","","","","","",""
2.0,0.08701889961957932,0.00020078849893931014,"train",2600.0,"2021-11-21 08:34:28.185376","","","","","","",""
2.0,0.06914330273866653,0.0002026131764290434,"train",2620.0,"2021-11-21 08:34:31.330026","","","","","","",""
2.0,0.07397619634866714,0.00020445059329448614,"train",2640.0,"2021-11-21 08:34:34.961754","","","","","","",""
2.0,0.06776692718267441,0.00020630072158255497,"train",2660.0,"2021-11-21 08:34:38.077161","","","","","","",""
2.0,0.0773238092660904,0.00020816353314678467,"train",2680.0,"2021-11-21 08:34:41.203702","","","","","","",""
2.0,0.06806186586618423,0.00021003899964775505,"train",2700.0,"2021-11-21 08:34:44.324645","","","","","","",""
2.0,0.08902573585510254,0.00021192709255352473,"train",2720.0,"2021-11-21 08:34:47.600710","","","","","","",""
2.0,0.07561586797237396,0.00021382778314006255,"train",2740.0,"2021-11-21 08:34:51.396782","","","","","","",""
2.0,0.07675057649612427,0.00021574104249168615,"train",2760.0,"2021-11-21 08:34:54.627472","","","","","","",""
2.0,0.08030179142951965,0.00021766684150150133,"train",2780.0,"2021-11-21 08:34:57.762575","","","","","","",""
2.0,0.07457901537418365,0.00021960515087184485,"train",2800.0,"2021-11-21 08:35:00.889856","","","","","","",""
2.0,0.07296130806207657,0.00022155594111472978,"train",2820.0,"2021-11-21 08:35:04.104140","","","","","","",""
2.0,0.07484086602926254,0.0002235191825522959,"train",2840.0,"2021-11-21 08:35:07.799071","","","","","","",""
2.0,0.07737413793802261,0.00022549484531725838,"train",2860.0,"2021-11-21 08:35:10.952771","","","","","","",""
2.0,0.08050480484962463,0.00022748289935336434,"train",2880.0,"2021-11-21 08:35:14.080058","","","","","","",""
2.0,0.07518496364355087,0.00022948331441584964,"train",2900.0,"2021-11-21 08:35:17.214045","","","","","","",""
2.0,0.0732484981417656,0.00023149606007189785,"train",2920.0,"2021-11-21 08:35:20.341856","","","","","","",""
2.0,0.09227743744850159,0.00023352110570110476,"train",2940.0,"2021-11-21 08:35:23.957628","","","","","","",""
2.0,0.06271366029977798,0.00023555842049594305,"train",2960.0,"2021-11-21 08:35:27.083498","","","","","","",""
2.0,0.07722651958465576,0.00023760797346223305,"train",2980.0,"2021-11-21 08:35:30.206322","","","","","","",""
2.0,0.06021202355623245,0.00023966973341961028,"train",3000.0,"2021-11-21 08:35:33.364866","","","","","","",""
2.0,0.08046836405992508,0.0002417436690020044,"train",3020.0,"2021-11-21 08:35:36.545286","","","","","","",""
2.0,0.06881546229124069,0.00024382974865811325,"train",3040.0,"2021-11-21 08:35:40.240490","","","","","","",""
2.0,0.07422655075788498,0.000245927940651884,"train",3060.0,"2021-11-21 08:35:43.452164","","","","","","",""
2.0,0.07516390085220337,0.0002480382130629953,"train",3080.0,"2021-11-21 08:35:46.654443","","","","","","",""
2.0,0.05703422799706459,0.0002501605337873443,"train",3100.0,"2021-11-21 08:35:49.880169","","","","","","",""
2.0,0.06443728506565094,0.0002522948705375337,"train",3120.0,"2021-11-21 08:35:53.084432","","","","","","",""
2.0,0.06985505670309067,0.00025444119084336303,"train",3140.0,"2021-11-21 08:35:56.789873","","","","","","",""
2.0,0.07263671606779099,0.00025659946205232364,"train",3160.0,"2021-11-21 08:35:59.960433","","","","","","",""
2.0,0.06728240847587585,0.0002587696513300941,"train",3180.0,"2021-11-21 08:36:03.169477","","","","","","",""
2.0,0.08646499365568161,0.0002609517256610412,"train",3200.0,"2021-11-21 08:36:06.392520","","","","","","",""
2.0,0.07541321963071823,0.00026314565184872084,"train",3220.0,"2021-11-21 08:36:09.557265","","","","","","",""
2.0,"","","train",3222.0,"2021-11-21 08:37:49.745000",0.4710470785126974,0.38194514096864796,0.874797312058239,0.43212930479122036,0.2858011008776471,0.2937365653163751,0.1879263122885234
2.0,"","","val",3222.0,"2021-11-21 08:38:15.705092",0.468340484750087,0.37473672354881093,0.87005265899414,0.4253194972762201,0.28548856797887745,0.29022419132774174,0.1869828838187249
3.0,0.07763862609863281,0.0002653513965163838,"train",3240.0,"2021-11-21 08:38:21.943804","","","","","","",""
3.0,0.06640305370092392,0.0002675689261074836,"train",3260.0,"2021-11-21 08:38:25.103968","","","","","","",""
3.0,0.08414778858423233,0.00026979820688618605,"train",3280.0,"2021-11-21 08:38:28.260532","","","","","","",""
3.0,0.07498817890882492,0.00027203920493788433,"train",3300.0,"2021-11-21 08:38:31.406707","","","","","","",""
3.0,0.06256528943777084,0.00027429188616971277,"train",3320.0,"2021-11-21 08:38:34.577984","","","","","","",""
3.0,0.08579949289560318,0.0002765562163110668,"train",3340.0,"2021-11-21 08:38:38.238728","","","","","","",""
3.0,0.06463638693094254,0.00027883216091412503,"train",3360.0,"2021-11-21 08:38:41.398061","","","","","","",""
3.0,0.0746232271194458,0.0002811196853543707,"train",3380.0,"2021-11-21 08:38:44.563923","","","","","","",""
3.0,0.08089879155158997,0.00028341875483112134,"train",3400.0,"2021-11-21 08:38:47.733550","","","","","","",""
3.0,0.06923434883356094,0.00028572933436805644,"train",3420.0,"2021-11-21 08:38:50.953515","","","","","","",""
3.0,0.0792195126414299,0.0002880513888137504,"train",3440.0,"2021-11-21 08:38:54.675762","","","","","","",""
3.0,0.0818633884191513,0.0002903848828422063,"train",3460.0,"2021-11-21 08:38:57.906451","","","","","","",""
3.0,0.07318639755249023,0.00029272978095339465,"train",3480.0,"2021-11-21 08:39:01.108635","","","","","","",""
3.0,0.07643551379442215,0.00029508604747379243,"train",3500.0,"2021-11-21 08:39:04.315651","","","","","","",""
3.0,0.07472026348114014,0.00029745364655692653,"train",3520.0,"2021-11-21 08:39:07.518419","","","","","","",""
3.0,0.07213637977838516,0.0002998325421839181,"train",3540.0,"2021-11-21 08:39:11.292129","","","","","","",""
3.0,0.06979729235172272,0.0003022226981640318,"train",3560.0,"2021-11-21 08:39:14.491031","","","","","","",""
3.0,0.06695715337991714,0.00030462407813522494,"train",3580.0,"2021-11-21 08:39:17.681487","","","","","","",""
3.0,0.061717238277196884,0.0003070366455647027,"train",3600.0,"2021-11-21 08:39:20.862704","","","","","","",""
3.0,0.07567358016967773,0.000309460363749471,"train",3620.0,"2021-11-21 08:39:24.042836","","","","","","",""
3.0,0.06767357885837555,0.0003118951958168978,"train",3640.0,"2021-11-21 08:39:27.708566","","","","","","",""
3.0,0.07853638380765915,0.0003143411047252722,"train",3660.0,"2021-11-21 08:39:30.906074","","","","","","",""
3.0,0.07806376367807388,0.0003167980532643691,"train",3680.0,"2021-11-21 08:39:34.090489","","","","","","",""
3.0,0.06607208400964737,0.0003192660040560141,"train",3700.0,"2021-11-21 08:39:37.273086","","","","","","",""
3.0,0.07857707142829895,0.0003217449195546528,"train",3720.0,"2021-11-21 08:39:40.470238","","","","","","",""
3.0,0.06990418583154678,0.00032423476204792244,"train",3740.0,"2021-11-21 08:39:44.219782","","","","","","",""
3.0,0.06325273960828781,0.0003267354936572248,"train",3760.0,"2021-11-21 08:39:47.415275","","","","","","",""
3.0,0.07146228849887848,0.0003292470763383026,"train",3780.0,"2021-11-21 08:39:50.576429","","","","","","",""
3.0,0.07473653554916382,0.0003317694718818192,"train",3800.0,"2021-11-21 08:39:53.763039","","","","","","",""
3.0,0.0653872862458229,0.00033430264191393853,"train",3820.0,"2021-11-21 08:39:56.961648","","","","","","",""
3.0,0.0705653727054596,0.0003368465478969097,"train",3840.0,"2021-11-21 08:40:00.683137","","","","","","",""
3.0,0.05993025749921799,0.0003394011511296533,"train",3860.0,"2021-11-21 08:40:03.919456","","","","","","",""
3.0,0.06473221629858017,0.0003419664127483496,"train",3880.0,"2021-11-21 08:40:07.232634","","","","","","",""
3.0,0.0646696463227272,0.00034454229372703074,"train",3900.0,"2021-11-21 08:40:10.435391","","","","","","",""
3.0,0.06367463618516922,0.00034712875487817314,"train",3920.0,"2021-11-21 08:40:13.583300","","","","","","",""
3.0,0.07041075080633163,0.00034972575685329526,"train",3940.0,"2021-11-21 08:40:17.214537","","","","","","",""
3.0,0.07200732827186584,0.0003523332601435541,"train",3960.0,"2021-11-21 08:40:20.369522","","","","","","",""
3.0,0.08013733476400375,0.00035495122508034916,"train",3980.0,"2021-11-21 08:40:23.528829","","","","","","",""
3.0,0.06590381264686584,0.0003575796118359231,"train",4000.0,"2021-11-21 08:40:26.692938","","","","","","",""
3.0,0.0678410679101944,0.00036021838042396906,"train",4020.0,"2021-11-21 08:40:29.927678","","","","","","",""
3.0,0.0842394307255745,0.0003628674907002389,"train",4040.0,"2021-11-21 08:40:33.674505","","","","","","",""
3.0,0.06100625544786453,0.00036552690236315395,"train",4060.0,"2021-11-21 08:40:36.907901","","","","","","",""
3.0,0.0743495523929596,0.00036819657495441773,"train",4080.0,"2021-11-21 08:40:40.147285","","","","","","",""
3.0,0.07115660607814789,0.0003708764678596317,"train",4100.0,"2021-11-21 08:40:43.377214","","","","","","",""
3.0,0.0789828971028328,0.00037356654030891293,"train",4120.0,"2021-11-21 08:40:46.532023","","","","","","",""
3.0,0.07204554229974747,0.0003762667513775148,"train",4140.0,"2021-11-21 08:40:50.247628","","","","","","",""
3.0,0.07365775108337402,0.0003789770599864498,"train",4160.0,"2021-11-21 08:40:53.385964","","","","","","",""
3.0,0.06080181151628494,0.000381697424903113,"train",4180.0,"2021-11-21 08:40:56.527039","","","","","","",""
3.0,0.07168489694595337,0.0003844278047419108,"train",4200.0,"2021-11-21 08:40:59.689434","","","","","","",""
3.0,0.08118106424808502,0.0003871681579648903,"train",4220.0,"2021-11-21 08:41:02.842763","","","","","","",""
3.0,0.0798460841178894,0.0003899184428823709,"train",4240.0,"2021-11-21 08:41:06.516525","","","","","","",""
3.0,0.07496868073940277,0.0003926786176535783,"train",4260.0,"2021-11-21 08:41:09.649033","","","","","","",""
3.0,0.06665050238370895,0.0003954486402872818,"train",4280.0,"2021-11-21 08:41:12.783170","","","","","","",""
3.0,"","","train",4296.0,"2021-11-21 08:42:53.774078",0.5022047587862912,0.42682934310167586,0.896460720775161,0.4953152975332375,0.3362485349251251,0.3421227492226827,0.22574828215752105
3.0,"","","val",4296.0,"2021-11-21 08:43:20.500919",0.49797054389423634,0.41489022516601637,0.891135887409736,0.48660886908632317,0.3306296973946361,0.33243062520259864,0.2211386622848313
4.0,0.059386931359767914,0.0003982284686424324,"train",4300.0,"2021-11-21 08:43:23.939774","","","","","","",""
4.0,0.08233046531677246,0.0004010180604288045,"train",4320.0,"2021-11-21 08:43:27.216846","","","","","","",""
4.0,0.06418993324041367,0.00040381737320763873,"train",4340.0,"2021-11-21 08:43:31.073410","","","","","","",""
4.0,0.07546176761388779,0.0004066263643922878,"train",4360.0,"2021-11-21 08:43:34.314141","","","","","","",""
4.0,0.058806054294109344,0.0004094449912488646,"train",4380.0,"2021-11-21 08:43:37.539741","","","","","","",""
4.0,0.05948464944958687,0.0004122732108968923,"train",4400.0,"2021-11-21 08:43:40.752035","","","","","","",""
4.0,0.06338624656200409,0.0004151109803099558,"train",4420.0,"2021-11-21 08:43:44.026949","","","","","","",""
4.0,0.06963324546813965,0.00041795825631635764,"train",4440.0,"2021-11-21 08:43:47.763696","","","","","","",""
4.0,0.0747721716761589,0.0004208149955997739,"train",4460.0,"2021-11-21 08:43:50.993008","","","","","","",""
4.0,0.0712534561753273,0.0004236811546999141,"train",4480.0,"2021-11-21 08:43:54.206359","","","","","","",""
4.0,0.07057876139879227,0.0004265566900131805,"train",4500.0,"2021-11-21 08:43:57.438860","","","","","","",""
4.0,0.06937233358621597,0.0004294415577933337,"train",4520.0,"2021-11-21 08:44:00.644191","","","","","","",""
4.0,0.06867212057113647,0.00043233571415215717,"train",4540.0,"2021-11-21 08:44:04.377119","","","","","","",""
4.0,0.08203865587711334,0.0004352391150601242,"train",4560.0,"2021-11-21 08:44:07.592413","","","","","","",""
4.0,0.06922752410173416,0.0004381517163470684,"train",4580.0,"2021-11-21 08:44:10.799477","","","","","","",""
4.0,0.07465343922376633,0.00044107347370285683,"train",4600.0,"2021-11-21 08:44:14.092787","","","","","","",""
4.0,0.07165732234716415,0.00044400434267806194,"train",4620.0,"2021-11-21 08:44:17.335612","","","","","","",""
4.0,0.0628882348537445,0.00044694427868463907,"train",4640.0,"2021-11-21 08:44:21.062602","","","","","","",""
4.0,0.0750502198934555,0.00044989323699660467,"train",4660.0,"2021-11-21 08:44:24.275949","","","","","","",""
4.0,0.06322451680898666,0.0004528511727507165,"train",4680.0,"2021-11-21 08:44:27.489077","","","","","","",""
4.0,0.08113783597946167,0.00045581804094715645,"train",4700.0,"2021-11-21 08:44:30.692587","","","","","","",""
4.0,0.06736067682504654,0.00045879379645021425,"train",4720.0,"2021-11-21 08:44:33.951283","","","","","","",""
4.0,0.07385767996311188,0.0004617783939889759,"train",4740.0,"2021-11-21 08:44:37.718817","","","","","","",""
4.0,0.06777030229568481,0.0004647717881580103,"train",4760.0,"2021-11-21 08:44:40.979414","","","","","","",""
4.0,0.06592132896184921,0.0004677739334180617,"train",4780.0,"2021-11-21 08:44:44.224526","","","","","","",""
4.0,0.06726962327957153,0.00047078478409674144,"train",4800.0,"2021-11-21 08:44:47.442993","","","","","","",""
4.0,0.08210765570402145,0.00047380429438922305,"train",4820.0,"2021-11-21 08:44:50.684537","","","","","","",""
4.0,0.07116399705410004,0.00047683241835893946,"train",4840.0,"2021-11-21 08:44:54.501556","","","","","","",""
4.0,0.06589999794960022,0.0004798691099382815,"train",4860.0,"2021-11-21 08:44:57.757569","","","","","","",""
4.0,0.07505658268928528,0.0004829143229292986,"train",4880.0,"2021-11-21 08:45:01.008047","","","","","","",""
4.0,0.07008809596300125,0.0004859680110044023,"train",4900.0,"2021-11-21 08:45:04.250657","","","","","","",""
4.0,0.06770096719264984,0.0004890301277070699,"train",4920.0,"2021-11-21 08:45:07.486210","","","","","","",""
4.0,0.064361073076725,0.0004921006264525525,"train",4940.0,"2021-11-21 08:45:11.198664","","","","","","",""
4.0,0.06933523714542389,0.0004951794605285824,"train",4960.0,"2021-11-21 08:45:14.498518","","","","","","",""
4.0,0.06691017746925354,0.0004982665830960853,"train",4980.0,"2021-11-21 08:45:17.740951","","","","","","",""
4.0,0.08093898743391037,0.0005013619471898913,"train",5000.0,"2021-11-21 08:45:20.969621","","","","","","",""
4.0,0.05787523090839386,0.0005044655057194504,"train",5020.0,"2021-11-21 08:45:24.202364","","","","","","",""
4.0,0.0757538378238678,0.0005075772114695486,"train",5040.0,"2021-11-21 08:45:27.947071","","","","","","",""
4.0,0.08221246302127838,0.0005106970171010257,"train",5060.0,"2021-11-21 08:45:31.190369","","","","","","",""
4.0,0.08748605847358704,0.0005138248751514966,"train",5080.0,"2021-11-21 08:45:34.422546","","","","","","",""
4.0,0.07352884113788605,0.0005169607380360731,"train",5100.0,"2021-11-21 08:45:37.647899","","","","","","",""
4.0,0.09020482748746872,0.000520104558048086,"train",5120.0,"2021-11-21 08:45:40.929317","","","","","","",""
4.0,0.0688951313495636,0.0005232562873598136,"train",5140.0,"2021-11-21 08:45:44.773637","","","","","","",""
4.0,0.07081428915262222,0.0005264158780232072,"train",5160.0,"2021-11-21 08:45:48.082089","","","","","","",""
4.0,0.0645168125629425,0.0005295832819706228,"train",5180.0,"2021-11-21 08:45:51.388421","","","","","","",""
4.0,0.07295451313257217,0.0005327584510155488,"train",5200.0,"2021-11-21 08:45:54.636809","","","","","","",""
4.0,0.06667394191026688,0.000535941336853343,"train",5220.0,"2021-11-21 08:45:57.877702","","","","","","",""
4.0,0.07941260188817978,0.0005391318910619655,"train",5240.0,"2021-11-21 08:46:01.570198","","","","","","",""
4.0,0.06816510856151581,0.0005423300651027144,"train",5260.0,"2021-11-21 08:46:04.752879","","","","","","",""
4.0,0.0815943032503128,0.0005455358103209663,"train",5280.0,"2021-11-21 08:46:07.932916","","","","","","",""
4.0,0.07078965753316879,0.0005487490779469157,"train",5300.0,"2021-11-21 08:46:11.117406","","","","","","",""
4.0,0.055649153888225555,0.000551969819096316,"train",5320.0,"2021-11-21 08:46:14.295908","","","","","","",""
4.0,0.06694629043340683,0.0005551979847712252,"train",5340.0,"2021-11-21 08:46:18.030432","","","","","","",""
4.0,0.07877610623836517,0.0005584335258607489,"train",5360.0,"2021-11-21 08:46:21.209142","","","","","","",""
4.0,"","","train",5370.0,"2021-11-21 08:47:55.798647",0.5277013752455796,0.4629084150613281,0.9034727184990303,0.49535401702559717,0.3522093728779796,0.3537956706527864,0.23820711219714483
4.0,"","","val",5370.0,"2021-11-21 08:48:21.117229",0.5204105299779659,0.4424119306583888,0.8924327589434934,0.4827754499222165,0.34053757852897043,0.339778869079321,0.22650639427090993
5.0,0.07415037602186203,0.0005616763931417894,"train",5380.0,"2021-11-21 08:48:25.433881","","","","","","",""
5.0,0.05368072912096977,0.0005649265372797939,"train",5400.0,"2021-11-21 08:48:28.632624","","","","","","",""
5.0,0.07645721733570099,0.0005681839088295046,"train",5420.0,"2021-11-21 08:48:31.818952","","","","","","",""
5.0,0.07100837677717209,0.0005714484582357109,"train",5440.0,"2021-11-21 08:48:35.628636","","","","","","",""
5.0,0.059409018605947495,0.0005747201358340048,"train",5460.0,"2021-11-21 08:48:38.802012","","","","","","",""
5.0,0.05961057171225548,0.0005779988918515344,"train",5480.0,"2021-11-21 08:48:41.999598","","","","","","",""
5.0,0.05245433747768402,0.0005812846764077623,"train",5500.0,"2021-11-21 08:48:45.237115","","","","","","",""
5.0,0.0698956698179245,0.0005845774395152243,"train",5520.0,"2021-11-21 08:48:48.458413","","","","","","",""
5.0,0.05576369911432266,0.0005878771310802895,"train",5540.0,"2021-11-21 08:48:52.062249","","","","","","",""
5.0,0.05702684074640274,0.0005911837009039229,"train",5560.0,"2021-11-21 08:48:55.171044","","","","","","",""
5.0,0.07547304034233093,0.0005944970986824485,"train",5580.0,"2021-11-21 08:48:58.326377","","","","","","",""
5.0,0.0612105093896389,0.000597817274008315,"train",5600.0,"2021-11-21 08:49:01.452071","","","","","","",""
5.0,0.07066994160413742,0.0006011441763708635,"train",5620.0,"2021-11-21 08:49:04.645554","","","","","","",""
5.0,0.059336647391319275,0.0006044777551570929,"train",5640.0,"2021-11-21 08:49:08.265659","","","","","","",""
5.0,0.0849904865026474,0.000607817959652434,"train",5660.0,"2021-11-21 08:49:11.405333","","","","","","",""
5.0,0.06574371457099915,0.0006111647390415189,"train",5680.0,"2021-11-21 08:49:14.509466","","","","","","",""
5.0,0.09007815271615982,0.0006145180424089525,"train",5700.0,"2021-11-21 08:49:17.604321","","","","","","",""
5.0,0.06343536078929901,0.0006178778187400902,"train",5720.0,"2021-11-21 08:49:20.701365","","","","","","",""
5.0,0.060440775007009506,0.0006212440169218129,"train",5740.0,"2021-11-21 08:49:24.295904","","","","","","",""
5.0,0.07902739197015762,0.0006246165857433027,"train",5760.0,"2021-11-21 08:49:27.471795","","","","","","",""
5.0,0.06573222577571869,0.0006279954738968251,"train",5780.0,"2021-11-21 08:49:30.655982","","","","","","",""
5.0,0.07245264947414398,0.0006313806299785075,"train",5800.0,"2021-11-21 08:49:33.799970","","","","","","",""
5.0,0.05153382197022438,0.0006347720024891209,"train",5820.0,"2021-11-21 08:49:36.869103","","","","","","",""
5.0,0.07777893543243408,0.0006381695398348657,"train",5840.0,"2021-11-21 08:49:40.555331","","","","","","",""
5.0,0.07150905579328537,0.0006415731903281542,"train",5860.0,"2021-11-21 08:49:43.758828","","","","","","",""
5.0,0.0670296922326088,0.0006449829021883979,"train",5880.0,"2021-11-21 08:49:46.952591","","","","","","",""
5.0,0.06044728308916092,0.0006483986235427956,"train",5900.0,"2021-11-21 08:49:50.160211","","","","","","",""
5.0,0.0614272840321064,0.0006518203024271213,"train",5920.0,"2021-11-21 08:49:53.390016","","","","","","",""
5.0,0.06305771321058273,0.0006552478867865169,"train",5940.0,"2021-11-21 08:49:57.111238","","","","","","",""
5.0,0.07740367949008942,0.0006586813244762815,"train",5960.0,"2021-11-21 08:50:00.240833","","","","","","",""
5.0,0.06353510916233063,0.0006621205632626672,"train",5980.0,"2021-11-21 08:50:03.381053","","","","","","",""
5.0,0.07643536478281021,0.0006655655508236717,"train",6000.0,"2021-11-21 08:50:06.513499","","","","","","",""
5.0,0.06908275187015533,0.0006690162347498356,"train",6020.0,"2021-11-21 08:50:09.650661","","","","","","",""
5.0,0.06567668914794922,0.0006724725625450389,"train",6040.0,"2021-11-21 08:50:13.285261","","","","","","",""
5.0,0.05745425820350647,0.0006759344816273003,"train",6060.0,"2021-11-21 08:50:16.419136","","","","","","",""
5.0,0.04921497032046318,0.0006794019393295771,"train",6080.0,"2021-11-21 08:50:19.531222","","","","","","",""
5.0,0.061503443866968155,0.0006828748829005654,"train",6100.0,"2021-11-21 08:50:22.674032","","","","","","",""
5.0,0.07425856590270996,0.0006863532595055041,"train",6120.0,"2021-11-21 08:50:25.822859","","","","","","",""
5.0,0.06493643671274185,0.0006898370162269777,"train",6140.0,"2021-11-21 08:50:29.533272","","","","","","",""
5.0,0.07272286713123322,0.0006933261000657217,"train",6160.0,"2021-11-21 08:50:32.701004","","","","","","",""
5.0,0.0678192749619484,0.000696820457941429,"train",6180.0,"2021-11-21 08:50:35.854202","","","","","","",""
5.0,0.05642514303326607,0.000700320036693557,"train",6200.0,"2021-11-21 08:50:39.004115","","","","","","",""
5.0,0.06909727305173874,0.0007038247830821358,"train",6220.0,"2021-11-21 08:50:42.189322","","","","","","",""
5.0,0.0660884827375412,0.0007073346437885815,"train",6240.0,"2021-11-21 08:50:45.869878","","","","","","",""
5.0,0.0566282719373703,0.000710849565416502,"train",6260.0,"2021-11-21 08:50:49.018993","","","","","","",""
5.0,0.06741851568222046,0.0007143694944925134,"train",6280.0,"2021-11-21 08:50:52.165362","","","","","","",""
5.0,0.05910566449165344,0.0007178943774670524,"train",6300.0,"2021-11-21 08:50:55.448368","","","","","","",""
5.0,0.0688566267490387,0.0007214241607151901,"train",6320.0,"2021-11-21 08:50:58.695039","","","","","","",""
5.0,0.05982532352209091,0.000724958790537449,"train",6340.0,"2021-11-21 08:51:02.429503","","","","","","",""
5.0,0.06261478364467621,0.0007284982131606195,"train",6360.0,"2021-11-21 08:51:05.646150","","","","","","",""
5.0,0.07862196117639542,0.0007320423747385781,"train",6380.0,"2021-11-21 08:51:08.886718","","","","","","",""
5.0,0.0655551552772522,0.0007355912213531054,"train",6400.0,"2021-11-21 08:51:12.119915","","","","","","",""
5.0,0.07275718450546265,0.000739144699014708,"train",6420.0,"2021-11-21 08:51:15.343647","","","","","","",""
5.0,0.06584981083869934,0.0007427027536634401,"train",6440.0,"2021-11-21 08:51:19.012140","","","","","","",""
5.0,"","","train",6444.0,"2021-11-21 08:52:53.661717",0.5510150622134905,0.5041031657984194,0.9230729084129815,0.5349211169328877,0.3832529544401088,0.3956662195932013,0.26285178066327747
5.0,"","","val",6444.0,"2021-11-21 08:53:19.777369",0.538095790328192,0.481665795388835,0.9152162058757332,0.516070287955645,0.37101381848312986,0.3813947977252606,0.2519675795375899
6.0,0.06854366511106491,0.0007462653311697235,"train",6460.0,"2021-11-21 08:53:25.117466","","","","","","",""
6.0,0.06185726076364517,0.0007498323773351733,"train",6480.0,"2021-11-21 08:53:28.335814","","","","","","",""
6.0,0.06448839604854584,0.0007534038378934223,"train",6500.0,"2021-11-21 08:53:31.554893","","","","","","",""
6.0,0.06188737601041794,0.0007569796585109453,"train",6520.0,"2021-11-21 08:53:34.773615","","","","","","",""
6.0,0.04548239707946777,0.0007605597847878862,"train",6540.0,"2021-11-21 08:53:38.598765","","","","","","",""
6.0,0.07078850269317627,0.0007641441622588871,"train",6560.0,"2021-11-21 08:53:41.817355","","","","","","",""
6.0,0.06693360954523087,0.0007677327363939143,"train",6580.0,"2021-11-21 08:53:45.038545","","","","","","",""
6.0,0.060630232095718384,0.0007713254525990895,"train",6600.0,"2021-11-21 08:53:48.245958","","","","","","",""
6.0,0.0607566311955452,0.0007749222562175211,"train",6620.0,"2021-11-21 08:53:51.442760","","","","","","",""
6.0,0.05446049943566322,0.000778523092530133,"train",6640.0,"2021-11-21 08:53:55.119349","","","","","","",""
6.0,0.06586401909589767,0.0007821279067564996,"train",6660.0,"2021-11-21 08:53:58.293292","","","","","","",""
6.0,0.06907521188259125,0.0007857366440556786,"train",6680.0,"2021-11-21 08:54:01.456237","","","","","","",""
6.0,0.06972132623195648,0.0007893492495270442,"train",6700.0,"2021-11-21 08:54:04.627186","","","","","","",""
6.0,0.07537945359945297,0.0007929656682111239,"train",6720.0,"2021-11-21 08:54:07.825555","","","","","","",""
6.0,0.05927625298500061,0.0007965858450904332,"train",6740.0,"2021-11-21 08:54:11.523724","","","","","","",""
6.0,0.056254081428050995,0.000800209725090314,"train",6760.0,"2021-11-21 08:54:14.724310","","","","","","",""
6.0,0.05798441916704178,0.0008038372530797706,"train",6780.0,"2021-11-21 08:54:17.936404","","","","","","",""
6.0,0.05075375735759735,0.0008074683738723109,"train",6800.0,"2021-11-21 08:54:21.130067","","","","","","",""
6.0,0.05741949379444122,0.0008111030322267832,"train",6820.0,"2021-11-21 08:54:24.310951","","","","","","",""
6.0,0.052874669432640076,0.0008147411728482187,"train",6840.0,"2021-11-21 08:54:28.014847","","","","","","",""
6.0,0.05440981686115265,0.0008183827403886721,"train",6860.0,"2021-11-21 08:54:31.167625","","","","","","",""
6.0,0.06280548125505447,0.0008220276794480633,"train",6880.0,"2021-11-21 08:54:34.342508","","","","","","",""
6.0,0.07344001531600952,0.0008256759345750203,"train",6900.0,"2021-11-21 08:54:37.592303","","","","","","",""
6.0,0.05952237546443939,0.0008293274502677234,"train",6920.0,"2021-11-21 08:54:40.791219","","","","","","",""
6.0,0.07200004905462265,0.0008329821709747486,"train",6940.0,"2021-11-21 08:54:44.482149","","","","","","",""
6.0,0.051515888422727585,0.0008366400410959136,"train",6960.0,"2021-11-21 08:54:47.689866","","","","","","",""
6.0,0.07509072124958038,0.000840301004983123,"train",6980.0,"2021-11-21 08:54:50.930896","","","","","","",""
6.0,0.05976767838001251,0.0008439650069412147,"train",7000.0,"2021-11-21 08:54:54.073693","","","","","","",""
6.0,0.05809476971626282,0.0008476319912288095,"train",7020.0,"2021-11-21 08:54:57.176694","","","","","","",""
6.0,0.0572124607861042,0.0008513019020591544,"train",7040.0,"2021-11-21 08:55:00.803502","","","","","","",""
6.0,0.0674554705619812,0.0008549746836009771,"train",7060.0,"2021-11-21 08:55:04.059263","","","","","","",""
6.0,0.07628300040960312,0.0008586502799793306,"train",7080.0,"2021-11-21 08:55:07.313206","","","","","","",""
6.0,0.07477527856826782,0.0008623286352764453,"train",7100.0,"2021-11-21 08:55:10.543163","","","","","","",""
6.0,0.06545470654964447,0.0008660096935325802,"train",7120.0,"2021-11-21 08:55:13.655547","","","","","","",""
6.0,0.06947321444749832,0.0008696933987468731,"train",7140.0,"2021-11-21 08:55:17.328974","","","","","","",""
6.0,0.07190660387277603,0.0008733796948781924,"train",7160.0,"2021-11-21 08:55:20.512526","","","","","","",""
6.0,0.06880154460668564,0.0008770685258459915,"train",7180.0,"2021-11-21 08:55:23.642719","","","","","","",""
6.0,0.0613972432911396,0.0008807598355311595,"train",7200.0,"2021-11-21 08:55:26.771943","","","","","","",""
6.0,0.05011841282248497,0.0008844535677768764,"train",7220.0,"2021-11-21 08:55:29.982016","","","","","","",""
6.0,0.05574573203921318,0.0008881496663894681,"train",7240.0,"2021-11-21 08:55:33.766037","","","","","","",""
6.0,0.07068324089050293,0.0008918480751392592,"train",7260.0,"2021-11-21 08:55:36.926377","","","","","","",""
6.0,0.0628766193985939,0.00089554873776143,"train",7280.0,"2021-11-21 08:55:40.098475","","","","","","",""
6.0,0.059763822704553604,0.0008992515979568724,"train",7300.0,"2021-11-21 08:55:43.332624","","","","","","",""
6.0,0.06963448226451874,0.0009029565993930457,"train",7320.0,"2021-11-21 08:55:46.554192","","","","","","",""
6.0,0.052745915949344635,0.0009066636857048339,"train",7340.0,"2021-11-21 08:55:50.260750","","","","","","",""
6.0,0.06324726343154907,0.0009103728004954039,"train",7360.0,"2021-11-21 08:55:53.473424","","","","","","",""
6.0,0.06380382925271988,0.0009140838873370617,"train",7380.0,"2021-11-21 08:55:56.711591","","","","","","",""
6.0,0.05697415769100189,0.0009177968897721136,"train",7400.0,"2021-11-21 08:55:59.954837","","","","","","",""
6.0,0.07328446209430695,0.0009215117513137218,"train",7420.0,"2021-11-21 08:56:03.168219","","","","","","",""
6.0,0.06012404337525368,0.0009252284154467663,"train",7440.0,"2021-11-21 08:56:06.884243","","","","","","",""
6.0,0.05887002497911453,0.0009289468256287042,"train",7460.0,"2021-11-21 08:56:10.082313","","","","","","",""
6.0,0.06310739368200302,0.0009326669252904287,"train",7480.0,"2021-11-21 08:56:13.299994","","","","","","",""
6.0,0.055439263582229614,0.0009363886578371307,"train",7500.0,"2021-11-21 08:56:16.527602","","","","","","",""
6.0,"","","train",7518.0,"2021-11-21 08:57:56.561692",0.5731063086662301,0.5283963590227605,0.9287725532860929,0.5540929885258069,0.41214969255155537,0.4265830354372286,0.28361612867770974
6.0,"","","val",7518.0,"2021-11-21 08:58:22.373221",0.5570567088020411,0.49995625380683156,0.9182188851275274,0.5330567657469945,0.39512926862871467,0.40624027646764865,0.265792608612247
7.0,0.05767180398106575,0.0009401119666491604,"train",7520.0,"2021-11-21 08:58:25.401157","","","","","","",""
7.0,0.056193746626377106,0.0009438367950828869,"train",7540.0,"2021-11-21 08:58:28.675447","","","","","","",""
7.0,0.050719909369945526,0.000947563086471561,"train",7560.0,"2021-11-21 08:58:32.522498","","","","","","",""
7.0,0.06502926349639893,0.0009512907841261783,"train",7580.0,"2021-11-21 08:58:35.752453","","","","","","",""
7.0,0.06589400768280029,0.0009550198313363391,"train",7600.0,"2021-11-21 08:58:39.045211","","","","","","",""
7.0,0.06980939954519272,0.0009587501713711128,"train",7620.0,"2021-11-21 08:58:42.294670","","","","","","",""
7.0,0.0528164841234684,0.0009624817474799023,"train",7640.0,"2021-11-21 08:58:45.465501","","","","","","",""
7.0,0.055323466658592224,0.0009662145028933038,"train",7660.0,"2021-11-21 08:58:49.202335","","","","","","",""
7.0,0.0640534833073616,0.0009699483808239733,"train",7680.0,"2021-11-21 08:58:52.361052","","","","","","",""
7.0,0.05864802747964859,0.0009736833244674895,"train",7700.0,"2021-11-21 08:58:55.522358","","","","","","",""
7.0,0.06234436109662056,0.0009774192770032192,"train",7720.0,"2021-11-21 08:58:58.683092","","","","","","",""
7.0,0.057033780962228775,0.0009811561815951785,"train",7740.0,"2021-11-21 08:59:01.834919","","","","","","",""
7.0,0.06670895963907242,0.0009848939813929015,"train",7760.0,"2021-11-21 08:59:05.524762","","","","","","",""
7.0,0.0632559061050415,0.0009886326195323026,"train",7780.0,"2021-11-21 08:59:08.711789","","","","","","",""
7.0,0.06449943780899048,0.0009923720391365428,"train",7800.0,"2021-11-21 08:59:11.839587","","","","","","",""
7.0,0.06047424301505089,0.000996112183316893,"train",7820.0,"2021-11-21 08:59:14.998759","","","","","","",""
7.0,0.06190866976976395,0.0009998529951736029,"train",7840.0,"2021-11-21 08:59:18.150026","","","","","","",""
7.0,0.06626234948635101,0.0010035944177967638,"train",7860.0,"2021-11-21 08:59:21.818562","","","","","","",""
7.0,0.06245161220431328,0.0010073363942671744,"train",7880.0,"2021-11-21 08:59:24.963653","","","","","","",""
7.0,0.06160829961299896,0.0010110788676572094,"train",7900.0,"2021-11-21 08:59:28.122979","","","","","","",""
7.0,0.06641699373722076,0.0010148217810316822,"train",7920.0,"2021-11-21 08:59:31.264450","","","","","","",""
7.0,0.06483105570077896,0.0010185650774487127,"train",7940.0,"2021-11-21 08:59:34.412142","","","","","","",""
7.0,0.06142736226320267,0.0010223086999605951,"train",7960.0,"2021-11-21 08:59:38.091389","","","","","","",""
7.0,0.06657304614782333,0.0010260525916146609,"train",7980.0,"2021-11-21 08:59:41.293970","","","","","","",""
7.0,0.06122739613056183,0.0010297966954541469,"train",8000.0,"2021-11-21 08:59:44.524104","","","","","","",""
7.0,0.06433998048305511,0.001033540954519064,"train",8020.0,"2021-11-21 08:59:47.773870","","","","","","",""
7.0,0.061528850346803665,0.0010372853118470592,"train",8040.0,"2021-11-21 08:59:50.982314","","","","","","",""
7.0,0.05258481577038765,0.0010410297104742857,"train",8060.0,"2021-11-21 08:59:54.701096","","","","","","",""
7.0,0.06579213589429855,0.0010447740934362692,"train",8080.0,"2021-11-21 08:59:57.922716","","","","","","",""
7.0,0.06697617471218109,0.0010485184037687715,"train",8100.0,"2021-11-21 09:00:01.254006","","","","","","",""
7.0,0.06450305134057999,0.0010522625845086615,"train",8120.0,"2021-11-21 09:00:04.568696","","","","","","",""
7.0,0.04137839004397392,0.0010560065786947796,"train",8140.0,"2021-11-21 09:00:07.853916","","","","","","",""
7.0,0.06347793340682983,0.0010597503293688013,"train",8160.0,"2021-11-21 09:00:11.590381","","","","","","",""
7.0,0.07294577360153198,0.001063493779576111,"train",8180.0,"2021-11-21 09:00:14.816313","","","","","","",""
7.0,0.06656672060489655,0.0010672368723666614,"train",8200.0,"2021-11-21 09:00:18.004276","","","","","","",""
7.0,0.06170793995261192,0.0010709795507958426,"train",8220.0,"2021-11-21 09:00:21.219849","","","","","","",""
7.0,0.06052147597074509,0.0010747217579253504,"train",8240.0,"2021-11-21 09:00:24.420280","","","","","","",""
7.0,0.049827493727207184,0.0010784634368240487,"train",8260.0,"2021-11-21 09:00:28.154066","","","","","","",""
7.0,0.06460268795490265,0.0010822045305688382,"train",8280.0,"2021-11-21 09:00:31.374761","","","","","","",""
7.0,0.07547026127576828,0.0010859449822455227,"train",8300.0,"2021-11-21 09:00:34.591811","","","","","","",""
7.0,0.06636346876621246,0.001089684734949672,"train",8320.0,"2021-11-21 09:00:37.800684","","","","","","",""
7.0,0.05897355452179909,0.00109342373178749,"train",8340.0,"2021-11-21 09:00:41.010407","","","","","","",""
7.0,0.06378452479839325,0.0010971619158766821,"train",8360.0,"2021-11-21 09:00:44.816466","","","","","","",""
7.0,0.06149512156844139,0.0011008992303473152,"train",8380.0,"2021-11-21 09:00:48.035563","","","","","","",""
7.0,0.059645555913448334,0.001104635618342687,"train",8400.0,"2021-11-21 09:00:51.221962","","","","","","",""
7.0,0.057518262416124344,0.001108371023020191,"train",8420.0,"2021-11-21 09:00:54.454791","","","","","","",""
7.0,0.06142933666706085,0.0011121053875521787,"train",8440.0,"2021-11-21 09:00:57.689332","","","","","","",""
7.0,0.06037984788417816,0.0011158386551268257,"train",8460.0,"2021-11-21 09:01:01.465577","","","","","","",""
7.0,0.06205702945590019,0.0011195707689489972,"train",8480.0,"2021-11-21 09:01:04.716507","","","","","","",""
7.0,0.06409846991300583,0.0011233016722411097,"train",8500.0,"2021-11-21 09:01:07.951598","","","","","","",""
7.0,0.05535367876291275,0.0011270313082439951,"train",8520.0,"2021-11-21 09:01:11.162228","","","","","","",""
7.0,0.06473162025213242,0.001130759620217767,"train",8540.0,"2021-11-21 09:01:14.372011","","","","","","",""
7.0,0.05480784922838211,0.0011344865514426794,"train",8560.0,"2021-11-21 09:01:18.085005","","","","","","",""
7.0,0.057071391493082047,0.0011382120452199938,"train",8580.0,"2021-11-21 09:01:21.288078","","","","","","",""
7.0,"","","train",8592.0,"2021-11-21 09:02:57.274362",0.5892745397656989,0.5661559818493863,0.9409136373040821,0.6020776329655565,0.4602572695969459,0.4767696458142536,0.316040619094494
7.0,"","","val",8592.0,"2021-11-21 09:03:22.519653",0.5702191812594225,0.5357206058866963,0.9308569709470988,0.5750772130898575,0.43900839321588087,0.4511686648420192,0.29360189154286165
8.0,0.06960918009281158,0.001141936044872839,"train",8600.0,"2021-11-21 09:03:26.544826","","","","","","",""
8.0,0.05873213708400726,0.0011456584937470744,"train",8620.0,"2021-11-21 09:03:29.792244","","","","","","",""
8.0,0.058811817318201065,0.0011493793352121522,"train",8640.0,"2021-11-21 09:03:33.015629","","","","","","",""
8.0,0.05291134864091873,0.0011530985126619784,"train",8660.0,"2021-11-21 09:03:36.846478","","","","","","",""
8.0,0.05791810154914856,0.001156815969515773,"train",8680.0,"2021-11-21 09:03:40.080884","","","","","","",""
8.0,0.05251072347164154,0.001160531649218934,"train",8700.0,"2021-11-21 09:03:43.313882","","","","","","",""
8.0,0.05775076895952225,0.001164245495243894,"train",8720.0,"2021-11-21 09:03:46.607722","","","","","","",""
8.0,0.06055924668908119,0.0011679574510909817,"train",8740.0,"2021-11-21 09:03:49.806341","","","","","","",""
8.0,0.058940961956977844,0.0011716674602892828,"train",8760.0,"2021-11-21 09:03:53.577295","","","","","","",""
8.0,0.051441170275211334,0.0011753754663974968,"train",8780.0,"2021-11-21 09:03:56.789053","","","","","","",""
8.0,0.053148794919252396,0.0011790814130047968,"train",8800.0,"2021-11-21 09:03:59.945544","","","","","","",""
8.0,0.061523012816905975,0.001182785243731688,"train",8820.0,"2021-11-21 09:04:03.101597","","","","","","",""
8.0,0.06362492591142654,0.0011864869022308656,"train",8840.0,"2021-11-21 09:04:06.247230","","","","","","",""
8.0,0.06111058220267296,0.0011901863321880693,"train",8860.0,"2021-11-21 09:04:09.879973","","","","","","",""
8.0,0.062402788549661636,0.001193883477322945,"train",8880.0,"2021-11-21 09:04:13.097668","","","","","","",""
8.0,0.06086312234401703,0.0011975782813898961,"train",8900.0,"2021-11-21 09:04:16.324662","","","","","","",""
8.0,0.059496570378541946,0.0012012706881789417,"train",8920.0,"2021-11-21 09:04:19.491733","","","","","","",""
8.0,0.05464465171098709,0.001204960641516572,"train",8940.0,"2021-11-21 09:04:22.626463","","","","","","",""
8.0,0.05845150724053383,0.0012086480852666014,"train",8960.0,"2021-11-21 09:04:26.259896","","","","","","",""
8.0,0.051618967205286026,0.0012123329633310235,"train",8980.0,"2021-11-21 09:04:29.400406","","","","","","",""
8.0,0.05829394981265068,0.0012160152196508643,"train",9000.0,"2021-11-21 09:04:32.547376","","","","","","",""
8.0,0.06495588272809982,0.0012196947982070355,"train",9020.0,"2021-11-21 09:04:35.669287","","","","","","",""
8.0,0.06128563731908798,0.0012233716430211856,"train",9040.0,"2021-11-21 09:04:38.799115","","","","","","",""
8.0,0.050954077392816544,0.001227045698156553,"train",9060.0,"2021-11-21 09:04:42.430029","","","","","","",""
8.0,0.06163179501891136,0.0012307169077188148,"train",9080.0,"2021-11-21 09:04:45.552526","","","","","","",""
8.0,0.05035840719938278,0.0012343852158569401,"train",9100.0,"2021-11-21 09:04:48.723102","","","","","","",""
8.0,0.0596567839384079,0.0012380505667640377,"train",9120.0,"2021-11-21 09:04:51.903396","","","","","","",""
8.0,0.05963608995079994,0.0012417129046782046,"train",9140.0,"2021-11-21 09:04:55.130832","","","","","","",""
8.0,0.0630667433142662,0.0012453721738833758,"train",9160.0,"2021-11-21 09:04:58.871934","","","","","","",""
8.0,0.059220023453235626,0.001249028318710172,"train",9180.0,"2021-11-21 09:05:02.089480","","","","","","",""
8.0,0.061685215681791306,0.0012526812835367447,"train",9200.0,"2021-11-21 09:05:05.337438","","","","","","",""
8.0,0.0798964872956276,0.0012563310127896242,"train",9220.0,"2021-11-21 09:05:08.559510","","","","","","",""
8.0,0.05334066227078438,0.0012599774509445645,"train",9240.0,"2021-11-21 09:05:11.772318","","","","","","",""
8.0,0.046328939497470856,0.0012636205425273874,"train",9260.0,"2021-11-21 09:05:15.464552","","","","","","",""
8.0,0.0700836330652237,0.0012672602321148268,"train",9280.0,"2021-11-21 09:05:18.702785","","","","","","",""
8.0,0.06260049343109131,0.0012708964643353732,"train",9300.0,"2021-11-21 09:05:21.934696","","","","","","",""
8.0,0.053110428154468536,0.001274529183870114,"train",9320.0,"2021-11-21 09:05:25.160294","","","","","","",""
8.0,0.0478631928563118,0.0012781583354535748,"train",9340.0,"2021-11-21 09:05:28.421223","","","","","","",""
8.0,0.06293393671512604,0.0012817838638745646,"train",9360.0,"2021-11-21 09:05:32.200138","","","","","","",""
8.0,0.05709150433540344,0.001285405713977009,"train",9380.0,"2021-11-21 09:05:35.403513","","","","","","",""
8.0,0.05063818395137787,0.0012890238306607947,"train",9400.0,"2021-11-21 09:05:38.553452","","","","","","",""
8.0,0.054774798452854156,0.001292638158882606,"train",9420.0,"2021-11-21 09:05:41.684560","","","","","","",""
8.0,0.05518205091357231,0.0012962486436567603,"train",9440.0,"2021-11-21 09:05:44.811200","","","","","","",""
8.0,0.06946705281734467,0.0012998552300560484,"train",9460.0,"2021-11-21 09:05:48.437117","","","","","","",""
8.0,0.05673765391111374,0.0013034578632125668,"train",9480.0,"2021-11-21 09:05:51.592332","","","","","","",""
8.0,0.06025337427854538,0.0013070564883185534,"train",9500.0,"2021-11-21 09:05:54.817080","","","","","","",""
8.0,0.061184611171483994,0.001310651050627223,"train",9520.0,"2021-11-21 09:05:58.050011","","","","","","",""
8.0,0.057204537093639374,0.001314241495453598,"train",9540.0,"2021-11-21 09:06:01.264440","","","","","","",""
8.0,0.06826206296682358,0.00131782776817534,"train",9560.0,"2021-11-21 09:06:04.981594","","","","","","",""
8.0,0.054468877613544464,0.0013214098142335837,"train",9580.0,"2021-11-21 09:06:08.200425","","","","","","",""
8.0,0.061750736087560654,0.001324987579133764,"train",9600.0,"2021-11-21 09:06:11.417452","","","","","","",""
8.0,0.04886223003268242,0.0013285610084464463,"train",9620.0,"2021-11-21 09:06:14.629707","","","","","","",""
8.0,0.05617886409163475,0.001332130047808155,"train",9640.0,"2021-11-21 09:06:17.864856","","","","","","",""
8.0,0.049870625138282776,0.001335694642922199,"train",9660.0,"2021-11-21 09:06:21.652615","","","","","","",""
8.0,"","","train",9666.0,"2021-11-21 09:08:01.716893",0.5751873681146765,0.5792436715503703,0.9425701773142701,0.570775323430843,0.4484856048459911,0.4680825401273027,0.3035752394806751
8.0,"","","val",9666.0,"2021-11-21 09:08:27.265668",0.5596080250492868,0.5399619489561954,0.9292949014351923,0.5448640550746212,0.4232884442114417,0.4393209028388044,0.2811980817915268
9.0,0.06352764368057251,0.0013392547395594985,"train",9680.0,"2021-11-21 09:08:32.197702","","","","","","",""
9.0,0.05718286335468292,0.001342810283559412,"train",9700.0,"2021-11-21 09:08:35.427935","","","","","","",""
9.0,0.05025067925453186,0.0013463612208305564,"train",9720.0,"2021-11-21 09:08:38.587264","","","","","","",""
9.0,0.0607050396502018,0.0013499074973516321,"train",9740.0,"2021-11-21 09:08:41.730178","","","","","","",""
9.0,0.06228744238615036,0.0013534490591722464,"train",9760.0,"2021-11-21 09:08:45.479833","","","","","","",""
9.0,0.049364227801561356,0.0013569858524137305,"train",9780.0,"2021-11-21 09:08:48.602809","","","","","","",""
9.0,0.05960327759385109,0.001360517823269962,"train",9800.0,"2021-11-21 09:08:51.716563","","","","","","",""
9.0,0.05587950348854065,0.0013640449180081834,"train",9820.0,"2021-11-21 09:08:54.932240","","","","","","",""
9.0,0.0711098313331604,0.0013675670829698173,"train",9840.0,"2021-11-21 09:08:58.061287","","","","","","",""
9.0,0.06815381348133087,0.0013710842645712853,"train",9860.0,"2021-11-21 09:09:01.704913","","","","","","",""
9.0,0.05817398056387901,0.0013745964093048219,"train",9880.0,"2021-11-21 09:09:04.829328","","","","","","",""
9.0,0.06432273238897324,0.0013781034637392886,"train",9900.0,"2021-11-21 09:09:07.979603","","","","","","",""
9.0,0.07005412876605988,0.0013816053745209864,"train",9920.0,"2021-11-21 09:09:11.129223","","","","","","",""
9.0,0.055741455405950546,0.0013851020883744697,"train",9940.0,"2021-11-21 09:09:14.284996","","","","","","",""
9.0,0.05220856890082359,0.001388593552103353,"train",9960.0,"2021-11-21 09:09:17.964503","","","","","","",""
9.0,0.05538294091820717,0.0013920797125911233,"train",9980.0,"2021-11-21 09:09:21.164384","","","","","","",""
9.0,0.058815572410821915,0.001395560516801947,"train",10000.0,"2021-11-21 09:09:24.338520","","","","","","",""
9.0,0.05849038064479828,0.0013990359117814774,"train",10020.0,"2021-11-21 09:09:27.520172","","","","","","",""
9.0,0.06552386283874512,0.0014025058446576583,"train",10040.0,"2021-11-21 09:09:30.753669","","","","","","",""
9.0,0.05901630222797394,0.0014059702626415317,"train",10060.0,"2021-11-21 09:09:34.461127","","","","","","",""
9.0,0.05758637934923172,0.0014094291130280377,"train",10080.0,"2021-11-21 09:09:37.646514","","","","","","",""
9.0,0.07042715698480606,0.0014128823431968183,"train",10100.0,"2021-11-21 09:09:40.825033","","","","","","",""
9.0,0.05775100365281105,0.001416329900613017,"train",10120.0,"2021-11-21 09:09:43.994713","","","","","","",""
9.0,0.062432046979665756,0.0014197717328280782,"train",10140.0,"2021-11-21 09:09:47.169305","","","","","","",""
9.0,0.06140703335404396,0.0014232077874805457,"train",10160.0,"2021-11-21 09:09:50.895584","","","","","","",""
9.0,0.057636674493551254,0.0014266380122968589,"train",10180.0,"2021-11-21 09:09:54.071155","","","","","","",""
9.0,0.05712587386369705,0.0014300623550921468,"train",10200.0,"2021-11-21 09:09:57.231140","","","","","","",""
9.0,0.05760916694998741,0.0014334807637710243,"train",10220.0,"2021-11-21 09:10:00.379944","","","","","","",""
9.0,0.0643717497587204,0.0014368931863283831,"train",10240.0,"2021-11-21 09:10:03.542417","","","","","","",""
9.0,0.040094468742609024,0.0014402995708501826,"train",10260.0,"2021-11-21 09:10:07.204316","","","","","","",""
9.0,0.06421009451150894,0.0014436998655142422,"train",10280.0,"2021-11-21 09:10:10.375801","","","","","","",""
9.0,0.06222008913755417,0.0014470940185910258,"train",10300.0,"2021-11-21 09:10:13.610039","","","","","","",""
9.0,0.06448919326066971,0.001450481978444431,"train",10320.0,"2021-11-21 09:10:16.859084","","","","","","",""
9.0,0.06061818450689316,0.0014538636935325763,"train",10340.0,"2021-11-21 09:10:20.040837","","","","","","",""
9.0,0.04633833467960358,0.0014572391124085817,"train",10360.0,"2021-11-21 09:10:23.725579","","","","","","",""
9.0,0.06354033946990967,0.0014606081837213525,"train",10380.0,"2021-11-21 09:10:26.848437","","","","","","",""
9.0,0.05945197492837906,0.0014639708562163639,"train",10400.0,"2021-11-21 09:10:29.984087","","","","","","",""
9.0,0.06491180509328842,0.001467327078736435,"train",10420.0,"2021-11-21 09:10:33.130349","","","","","","",""
9.0,0.05963953956961632,0.0014706768002225108,"train",10440.0,"2021-11-21 09:10:36.266018","","","","","","",""
9.0,0.05983578413724899,0.0014740199697144392,"train",10460.0,"2021-11-21 09:10:39.916372","","","","","","",""
9.0,0.057046424597501755,0.0014773565363517442,"train",10480.0,"2021-11-21 09:10:43.057874","","","","","","",""
9.0,0.05207442864775658,0.0014806864493744007,"train",10500.0,"2021-11-21 09:10:46.233685","","","","","","",""
9.0,0.056432563811540604,0.0014840096581236072,"train",10520.0,"2021-11-21 09:10:49.411805","","","","","","",""
9.0,0.04581403732299805,0.001487326112042556,"train",10540.0,"2021-11-21 09:10:52.564144","","","","","","",""
9.0,0.05563264712691307,0.0014906357606772013,"train",10560.0,"2021-11-21 09:10:56.217241","","","","","","",""
9.0,0.05591357871890068,0.0014939385536770291,"train",10580.0,"2021-11-21 09:10:59.374999","","","","","","",""
9.0,0.05689467862248421,0.0014972344407958218,"train",10600.0,"2021-11-21 09:11:02.529500","","","","","","",""
9.0,0.05919944494962692,0.0015005233718924213,"train",10620.0,"2021-11-21 09:11:05.672953","","","","","","",""
9.0,0.05112598091363907,0.0015038052969314946,"train",10640.0,"2021-11-21 09:11:08.917506","","","","","","",""
9.0,0.04826439172029495,0.0015070801659842939,"train",10660.0,"2021-11-21 09:11:12.593442","","","","","","",""
9.0,0.05663423240184784,0.001510347929229414,"train",10680.0,"2021-11-21 09:11:15.748061","","","","","","",""
9.0,0.05697505176067352,0.0015136085369535537,"train",10700.0,"2021-11-21 09:11:18.947983","","","","","","",""
9.0,0.06874442845582962,0.0015168619395522708,"train",10720.0,"2021-11-21 09:11:22.167215","","","","","","",""
9.0,0.06100231781601906,0.0015201080875307349,"train",10740.0,"2021-11-21 09:11:25.313755","","","","","","",""
9.0,"","","train",10740.0,"2021-11-21 09:12:57.000089",0.6126464381867133,0.6130505368476387,0.948946570320352,0.6203800057418356,0.49491040062695507,0.5178791320774313,0.34245426603642165
9.0,"","","val",10740.0,"2021-11-21 09:13:21.882895",0.5896439754145889,0.5649387950395022,0.9371854522870018,0.590441196378907,0.46506596316637966,0.48361572786973694,0.3110497842448191
10.0,0.06027939170598984,0.0015233469315044834,"train",10760.0,"2021-11-21 09:13:28.436941","","","","","","",""
10.0,0.05852685868740082,0.0015265784222001709,"train",10780.0,"2021-11-21 09:13:31.719409","","","","","","",""
10.0,0.05979093536734581,0.0015298025104563185,"train",10800.0,"2021-11-21 09:13:34.881649","","","","","","",""
10.0,0.0512961819767952,0.001533019147224064,"train",10820.0,"2021-11-21 09:13:38.040603","","","","","","",""
10.0,0.050153449177742004,0.0015362282835679054,"train",10840.0,"2021-11-21 09:13:41.205446","","","","","","",""
10.0,0.062185533344745636,0.0015394298706664469,"train",10860.0,"2021-11-21 09:13:44.941023","","","","","","",""
10.0,0.04545196518301964,0.001542623859813141,"train",10880.0,"2021-11-21 09:13:48.177445","","","","","","",""
10.0,0.05249345675110817,0.00154581020241703,"train",10900.0,"2021-11-21 09:13:51.412898","","","","","","",""
10.0,0.055587779730558395,0.0015489888500034858,"train",10920.0,"2021-11-21 09:13:54.655501","","","","","","",""
10.0,0.062079671770334244,0.0015521597542149444,"train",10940.0,"2021-11-21 09:13:57.896995","","","","","","",""
10.0,0.05054382234811783,0.0015553228668116455,"train",10960.0,"2021-11-21 09:14:01.621282","","","","","","",""
10.0,0.06574885547161102,0.0015584781396723642,"train",10980.0,"2021-11-21 09:14:04.905060","","","","","","",""
10.0,0.0612894669175148,0.0015616255247951432,"train",11000.0,"2021-11-21 09:14:08.049182","","","","","","",""
10.0,0.055115584284067154,0.0015647649742980233,"train",11020.0,"2021-11-21 09:14:11.201031","","","","","","",""
10.0,0.061521295458078384,0.0015678964404197727,"train",11040.0,"2021-11-21 09:14:14.416176","","","","","","",""
10.0,0.05716639384627342,0.0015710198755206112,"train",11060.0,"2021-11-21 09:14:18.194704","","","","","","",""
10.0,0.05328350141644478,0.0015741352320829379,"train",11080.0,"2021-11-21 09:14:21.370558","","","","","","",""
10.0,0.05874568969011307,0.0015772424627120527,"train",11100.0,"2021-11-21 09:14:24.554738","","","","","","",""
10.0,0.08027829229831696,0.0015803415201368761,"train",11120.0,"2021-11-21 09:14:27.734666","","","","","","",""
10.0,0.047698974609375,0.001583432357210671,"train",11140.0,"2021-11-21 09:14:30.917413","","","","","","",""
10.0,0.04954056814312935,0.001586514926911758,"train",11160.0,"2021-11-21 09:14:34.590725","","","","","","",""
10.0,0.060452900826931,0.0015895891823442313,"train",11180.0,"2021-11-21 09:14:37.749781","","","","","","",""
10.0,0.05960658937692642,0.0015926550767386717,"train",11200.0,"2021-11-21 09:14:40.955036","","","","","","",""
10.0,0.06269703805446625,0.0015957125634528599,"train",11220.0,"2021-11-21 09:14:44.153575","","","","","","",""
10.0,0.06733940541744232,0.0015987615959724836,"train",11240.0,"2021-11-21 09:14:47.338014","","","","","","",""
10.0,0.0633409395813942,0.0016018021279118457,"train",11260.0,"2021-11-21 09:14:51.011920","","","","","","",""
10.0,0.0626615509390831,0.0016048341130145728,"train",11280.0,"2021-11-21 09:14:54.196425","","","","","","",""
10.0,0.05077718198299408,0.0016078575051543145,"train",11300.0,"2021-11-21 09:14:57.408177","","","","","","",""
10.0,0.05163763463497162,0.0016108722583354478,"train",11320.0,"2021-11-21 09:15:00.610133","","","","","","",""
10.0,0.06147003546357155,0.0016138783266937777,"train",11340.0,"2021-11-21 09:15:03.840509","","","","","","",""
10.0,0.06092303618788719,0.0016168756644972322,"train",11360.0,"2021-11-21 09:15:07.589496","","","","","","",""
10.0,0.05862019956111908,0.0016198642261465587,"train",11380.0,"2021-11-21 09:15:10.822344","","","","","","",""
10.0,0.05731845647096634,0.0016228439661760208,"train",11400.0,"2021-11-21 09:15:14.048321","","","","","","",""
10.0,0.05463716387748718,0.001625814839254086,"train",11420.0,"2021-11-21 09:15:17.196063","","","","","","",""
10.0,0.057522621005773544,0.0016287768001841164,"train",11440.0,"2021-11-21 09:15:20.328570","","","","","","",""
10.0,0.05983740836381912,0.001631729803905059,"train",11460.0,"2021-11-21 09:15:24.031601","","","","","","",""
10.0,0.051012031733989716,0.0016346738054921273,"train",11480.0,"2021-11-21 09:15:27.217009","","","","","","",""
10.0,0.05721503123641014,0.001637608760157486,"train",11500.0,"2021-11-21 09:15:30.398923","","","","","","",""
10.0,0.05024687200784683,0.0016405346232509356,"train",11520.0,"2021-11-21 09:15:33.584487","","","","","","",""
10.0,0.05009499192237854,0.0016434513502605861,"train",11540.0,"2021-11-21 09:15:36.754831","","","","","","",""
10.0,0.05311986431479454,0.0016463588968135383,"train",11560.0,"2021-11-21 09:15:40.404113","","","","","","",""
10.0,0.05604679137468338,0.0016492572186765577,"train",11580.0,"2021-11-21 09:15:43.597152","","","","","","",""
10.0,0.05669214203953743,0.001652146271756747,"train",11600.0,"2021-11-21 09:15:46.770509","","","","","","",""
10.0,0.05700286850333214,0.0016550260121022172,"train",11620.0,"2021-11-21 09:15:49.958877","","","","","","",""
10.0,0.054713279008865356,0.0016578963959027562,"train",11640.0,"2021-11-21 09:15:53.131440","","","","","","",""
10.0,0.0626038908958435,0.001660757379490496,"train",11660.0,"2021-11-21 09:15:56.823714","","","","","","",""
10.0,0.05745036154985428,0.0016636089193405761,"train",11680.0,"2021-11-21 09:16:00.001867","","","","","","",""
10.0,0.055049385875463486,0.0016664509720718049,"train",11700.0,"2021-11-21 09:16:03.157945","","","","","","",""
10.0,0.05972953140735626,0.0016692834944473224,"train",11720.0,"2021-11-21 09:16:06.290685","","","","","","",""
10.0,0.052832528948783875,0.0016721064433752554,"train",11740.0,"2021-11-21 09:16:09.423664","","","","","","",""
10.0,0.05088997259736061,0.0016749197759093734,"train",11760.0,"2021-11-21 09:16:13.051149","","","","","","",""
10.0,0.0517088808119297,0.0016777234492497436,"train",11780.0,"2021-11-21 09:16:16.242585","","","","","","",""
10.0,0.06697505712509155,0.0016805174207433808,"train",11800.0,"2021-11-21 09:16:19.455132","","","","","","",""
10.0,"","","train",11814.0,"2021-11-21 09:17:54.190291",0.6090227752310267,0.6171563284944324,0.9498425387803853,0.6258727058984471,0.4926333741538133,0.5154024078589987,0.33980748777587955
10.0,"","","val",11814.0,"2021-11-21 09:18:20.358095",0.5839614983184507,0.5623749808857195,0.9372361441122281,0.5906473275475594,0.45893777875370084,0.477686603501418,0.30595212898921376
11.0,0.05155964195728302,0.0016833016478848956,"train",11820.0,"2021-11-21 09:18:24.030262","","","","","","",""
11.0,0.06105729565024376,0.0016860760883171426,"train",11840.0,"2021-11-21 09:18:27.190285","","","","","","",""
11.0,0.04869391396641731,0.001688840699831864,"train",11860.0,"2021-11-21 09:18:30.938100","","","","","","",""
11.0,0.05369673669338226,0.0016915954403703313,"train",11880.0,"2021-11-21 09:18:34.078161","","","","","","",""
11.0,0.060805317014455795,0.0016943402680239862,"train",11900.0,"2021-11-21 09:18:37.230953","","","","","","",""
11.0,0.05016632378101349,0.0016970751410350774,"train",11920.0,"2021-11-21 09:18:40.386766","","","","","","",""
11.0,0.07705468684434891,0.001699800017797296,"train",11940.0,"2021-11-21 09:18:43.575113","","","","","","",""
11.0,0.04561880603432655,0.0017025148568564086,"train",11960.0,"2021-11-21 09:18:47.275508","","","","","","",""
11.0,0.059185102581977844,0.001705219616910888,"train",11980.0,"2021-11-21 09:18:50.518457","","","","","","",""
11.0,0.04456755518913269,0.001707914256812541,"train",12000.0,"2021-11-21 09:18:53.772571","","","","","","",""
11.0,0.05381890758872032,0.0017105987355671352,"train",12020.0,"2021-11-21 09:18:56.998080","","","","","","",""
11.0,0.06345852464437485,0.0017132730123350227,"train",12040.0,"2021-11-21 09:19:00.252436","","","","","","",""
11.0,0.05388414114713669,0.00171593704643176,"train",12060.0,"2021-11-21 09:19:04.044697","","","","","","",""
11.0,0.0672772154211998,0.0017185907973287285,"train",12080.0,"2021-11-21 09:19:07.281345","","","","","","",""
11.0,0.05632279813289642,0.0017212342246537506,"train",12100.0,"2021-11-21 09:19:10.513103","","","","","","",""
11.0,0.05366336554288864,0.0017238672881917032,"train",12120.0,"2021-11-21 09:19:13.690986","","","","","","",""
11.0,0.056818973273038864,0.001726489947885131,"train",12140.0,"2021-11-21 09:19:16.950604","","","","","","",""
11.0,0.05273563414812088,0.0017291021638348543,"train",12160.0,"2021-11-21 09:19:20.708780","","","","","","",""
11.0,0.05260035768151283,0.0017317038963005765,"train",12180.0,"2021-11-21 09:19:23.904227","","","","","","",""
11.0,0.05842981114983559,0.00173429510570149,"train",12200.0,"2021-11-21 09:19:27.092732","","","","","","",""
11.0,0.059548281133174896,0.0017368757526168759,"train",12220.0,"2021-11-21 09:19:30.297757","","","","","","",""
11.0,0.056946106255054474,0.0017394457977867057,"train",12240.0,"2021-11-21 09:19:33.483609","","","","","","",""
11.0,0.05043894797563553,0.0017420052021122378,"train",12260.0,"2021-11-21 09:19:37.217269","","","","","","",""
11.0,0.05319910869002342,0.0017445539266566128,"train",12280.0,"2021-11-21 09:19:40.415827","","","","","","",""
11.0,0.05785418301820755,0.001747091932645445,"train",12300.0,"2021-11-21 09:19:43.589938","","","","","","",""
11.0,0.07013034075498581,0.0017496191814674125,"train",12320.0,"2021-11-21 09:19:46.824655","","","","","","",""
11.0,0.05196497216820717,0.001752135634674846,"train",12340.0,"2021-11-21 09:19:50.046236","","","","","","",""
11.0,0.05395159497857094,0.0017546412539843118,"train",12360.0,"2021-11-21 09:19:53.265210","","","","","","",""
11.0,0.0405280776321888,0.001757136001277194,"train",12380.0,"2021-11-21 09:19:56.919717","","","","","","",""
11.0,0.05693702772259712,0.001759619838600278,"train",12400.0,"2021-11-21 09:20:00.043017","","","","","","",""
11.0,0.06173545867204666,0.0017620927281663229,"train",12420.0,"2021-11-21 09:20:03.226478","","","","","","",""
11.0,0.05069476738572121,0.0017645546323546398,"train",12440.0,"2021-11-21 09:20:06.394721","","","","","","",""
11.0,0.059395574033260345,0.0017670055137116636,"train",12460.0,"2021-11-21 09:20:09.587803","","","","","","",""
11.0,0.06370609998703003,0.0017694453349515209,"train",12480.0,"2021-11-21 09:20:13.316512","","","","","","",""
11.0,0.045939937233924866,0.0017718740589566,"train",12500.0,"2021-11-21 09:20:16.471127","","","","","","",""
11.0,0.05708015337586403,0.0017742916487781134,"train",12520.0,"2021-11-21 09:20:19.632023","","","","","","",""
11.0,0.047663185745477676,0.0017766980676366608,"train",12540.0,"2021-11-21 09:20:22.794412","","","","","","",""
11.0,0.04972761496901512,0.001779093278922789,"train",12560.0,"2021-11-21 09:20:25.994973","","","","","","",""
11.0,0.050196532160043716,0.001781477246197548,"train",12580.0,"2021-11-21 09:20:29.691409","","","","","","",""
11.0,0.05644570291042328,0.0017838499331930462,"train",12600.0,"2021-11-21 09:20:32.868646","","","","","","",""
11.0,0.05690406262874603,0.001786211303813001,"train",12620.0,"2021-11-21 09:20:36.032153","","","","","","",""
11.0,0.05767562612891197,0.0017885613221332894,"train",12640.0,"2021-11-21 09:20:39.185132","","","","","","",""
11.0,0.06480354070663452,0.0017908999524024931,"train",12660.0,"2021-11-21 09:20:42.323816","","","","","","",""
11.0,0.06172355264425278,0.0017932271590424438,"train",12680.0,"2021-11-21 09:20:45.972002","","","","","","",""
11.0,0.04415775462985039,0.0017955429066487635,"train",12700.0,"2021-11-21 09:20:49.103068","","","","","","",""
11.0,0.05765228345990181,0.0017978471599914025,"train",12720.0,"2021-11-21 09:20:52.232612","","","","","","",""
11.0,0.05088828504085541,0.0018001398840151778,"train",12740.0,"2021-11-21 09:20:55.448458","","","","","","",""
11.0,0.0737379789352417,0.0018024210438403031,"train",12760.0,"2021-11-21 09:20:58.629961","","","","","","",""
11.0,0.04672848433256149,0.0018046906047629228,"train",12780.0,"2021-11-21 09:21:02.337919","","","","","","",""
11.0,0.05604381114244461,0.0018069485322556372,"train",12800.0,"2021-11-21 09:21:05.559293","","","","","","",""
11.0,0.04710940271615982,0.001809194791968029,"train",12820.0,"2021-11-21 09:21:08.774287","","","","","","",""
11.0,0.05262434855103493,0.0018114293497271863,"train",12840.0,"2021-11-21 09:21:11.998725","","","","","","",""
11.0,0.0589008703827858,0.0018136521715382218,"train",12860.0,"2021-11-21 09:21:15.221476","","","","","","",""
11.0,0.054549578577280045,0.0018158632235847892,"train",12880.0,"2021-11-21 09:21:18.997127","","","","","","",""
11.0,"","","train",12888.0,"2021-11-21 09:22:54.208177",0.6321472749763516,0.6480053054460085,0.9549553874798344,0.6447156168993806,0.5230876772287965,0.5501840805208252,0.3676892326591269
11.0,"","","val",12888.0,"2021-11-21 09:23:19.107805",0.6043720282964166,0.5849897028922396,0.938227812583473,0.6058254667736915,0.48081838637468766,0.5065991454919421,0.32500648561754036
12.0,0.05608389526605606,0.0018180624722295999,"train",12900.0,"2021-11-21 09:23:23.743835","","","","","","",""
12.0,0.05505165830254555,0.001820249884014933,"train",12920.0,"2021-11-21 09:23:26.956216","","","","","","",""
12.0,0.047530703246593475,0.001822425425663144,"train",12940.0,"2021-11-21 09:23:30.127511","","","","","","",""
12.0,0.05254225805401802,0.0018245890640771725,"train",12960.0,"2021-11-21 09:23:33.284038","","","","","","",""
12.0,0.05826780945062637,0.0018267407663410452,"train",12980.0,"2021-11-21 09:23:37.116400","","","","","","",""
12.0,0.04774050787091255,0.0018288804997203755,"train",13000.0,"2021-11-21 09:23:40.292257","","","","","","",""
12.0,0.04432937875390053,0.0018310082316628634,"train",13020.0,"2021-11-21 09:23:43.470062","","","","","","",""
12.0,0.05244072154164314,0.0018331239297987893,"train",13040.0,"2021-11-21 09:23:46.641979","","","","","","",""
12.0,0.0365089513361454,0.0018352275619415066,"train",13060.0,"2021-11-21 09:23:49.822763","","","","","","",""
12.0,0.053483668714761734,0.0018373190960879326,"train",13080.0,"2021-11-21 09:23:53.621418","","","","","","",""
12.0,0.06372977793216705,0.0018393985004190336,"train",13100.0,"2021-11-21 09:23:56.825015","","","","","","",""
12.0,0.05586814507842064,0.00184146574330031,"train",13120.0,"2021-11-21 09:24:00.061133","","","","","","",""
12.0,0.06412582099437714,0.001843520793282278,"train",13140.0,"2021-11-21 09:24:03.282746","","","","","","",""
12.0,0.04723716899752617,0.0018455636191009464,"train",13160.0,"2021-11-21 09:24:06.507880","","","","","","",""
12.0,0.05147137865424156,0.001847594189678294,"train",13180.0,"2021-11-21 09:24:10.234343","","","","","","",""
12.0,0.04133724793791771,0.0018496124741227415,"train",13200.0,"2021-11-21 09:24:13.439907","","","","","","",""
12.0,0.05594169348478317,0.001851618441729622,"train",13220.0,"2021-11-21 09:24:16.671362","","","","","","",""
12.0,0.05964246392250061,0.0018536120619816467,"train",13240.0,"2021-11-21 09:24:19.893481","","","","","","",""
12.0,0.05443932116031647,0.0018555933045493712,"train",13260.0,"2021-11-21 09:24:23.033397","","","","","","",""
12.0,0.06347746402025223,0.0018575621392916554,"train",13280.0,"2021-11-21 09:24:26.711949","","","","","","",""
12.0,0.041296377778053284,0.0018595185362561225,"train",13300.0,"2021-11-21 09:24:29.835186","","","","","","",""
12.0,0.05777820572257042,0.0018614624656796155,"train",13320.0,"2021-11-21 09:24:33.001010","","","","","","",""
12.0,0.058564335107803345,0.0018633938979886484,"train",13340.0,"2021-11-21 09:24:36.207623","","","","","","",""
12.0,0.062082044780254364,0.0018653128037998568,"train",13360.0,"2021-11-21 09:24:39.487834","","","","","","",""
12.0,0.048895709216594696,0.0018672191539204459,"train",13380.0,"2021-11-21 09:24:43.262968","","","","","","",""
12.0,0.0515533946454525,0.0018691129193486335,"train",13400.0,"2021-11-21 09:24:46.512510","","","","","","",""
12.0,0.05943309888243675,0.0018709940712740908,"train",13420.0,"2021-11-21 09:24:49.762920","","","","","","",""
12.0,0.04982432350516319,0.0018728625810783823,"train",13440.0,"2021-11-21 09:24:52.968494","","","","","","",""
12.0,0.05747353285551071,0.0018747184203353996,"train",13460.0,"2021-11-21 09:24:56.143657","","","","","","",""
12.0,0.05633855238556862,0.0018765615608117947,"train",13480.0,"2021-11-21 09:24:59.827925","","","","","","",""
12.0,0.061376236379146576,0.0018783919744674096,"train",13500.0,"2021-11-21 09:25:02.989466","","","","","","",""
12.0,0.04921334981918335,0.0018802096334557027,"train",13520.0,"2021-11-21 09:25:06.138478","","","","","","",""
12.0,0.05258237197995186,0.0018820145101241712,"train",13540.0,"2021-11-21 09:25:09.299495","","","","","","",""
12.0,0.05157730355858803,0.0018838065770147745,"train",13560.0,"2021-11-21 09:25:12.458433","","","","","","",""
12.0,0.056408967822790146,0.0018855858068643496,"train",13580.0,"2021-11-21 09:25:16.204374","","","","","","",""
12.0,0.05820625647902489,0.001887352172605026,"train",13600.0,"2021-11-21 09:25:19.473273","","","","","","",""
12.0,0.06304421275854111,0.0018891056473646398,"train",13620.0,"2021-11-21 09:25:22.683153","","","","","","",""
12.0,0.06539330631494522,0.0018908462044671395,"train",13640.0,"2021-11-21 09:25:25.883410","","","","","","",""
12.0,0.0618458092212677,0.001892573817432993,"train",13660.0,"2021-11-21 09:25:29.094619","","","","","","",""
12.0,0.055604487657547,0.0018942884599795914,"train",13680.0,"2021-11-21 09:25:32.878776","","","","","","",""
12.0,0.06700955331325531,0.001895990106021648,"train",13700.0,"2021-11-21 09:25:36.085731","","","","","","",""
12.0,0.06372852623462677,0.0018976787296715943,"train",13720.0,"2021-11-21 09:25:39.295756","","","","","","",""
12.0,0.04831213504076004,0.0018993543052399757,"train",13740.0,"2021-11-21 09:25:42.508615","","","","","","",""
12.0,0.05680309236049652,0.0019010168072358413,"train",13760.0,"2021-11-21 09:25:45.723262","","","","","","",""
12.0,0.05954365432262421,0.0019026662103671305,"train",13780.0,"2021-11-21 09:25:49.452907","","","","","","",""
12.0,0.04676937311887741,0.0019043024895410605,"train",13800.0,"2021-11-21 09:25:52.640664","","","","","","",""
12.0,0.05653586983680725,0.001905925619864506,"train",13820.0,"2021-11-21 09:25:55.808686","","","","","","",""
12.0,0.059680573642253876,0.001907535576644378,"train",13840.0,"2021-11-21 09:25:58.969995","","","","","","",""
12.0,0.0581720694899559,0.0019091323353880008,"train",13860.0,"2021-11-21 09:26:02.133387","","","","","","",""
12.0,0.05463648959994316,0.0019107158718034828,"train",13880.0,"2021-11-21 09:26:05.826493","","","","","","",""
12.0,0.052547093480825424,0.001912286161800088,"train",13900.0,"2021-11-21 09:26:08.995351","","","","","","",""
12.0,0.04686104133725166,0.0019138431814886008,"train",13920.0,"2021-11-21 09:26:12.175954","","","","","","",""
12.0,0.058661215007305145,0.0019153869071816896,"train",13940.0,"2021-11-21 09:26:15.335876","","","","","","",""
12.0,0.046923842281103134,0.0019169173153942693,"train",13960.0,"2021-11-21 09:26:18.409142","","","","","","",""
12.0,"","","train",13962.0,"2021-11-21 09:27:52.597060",0.6250309248344612,0.6502286875409735,0.953489914540288,0.6366832526051361,0.5193181323563132,0.5375984464205067,0.3619417474678857
12.0,"","","val",13962.0,"2021-11-21 09:28:17.464005",0.594804592369245,0.5817201189724254,0.9373498244570947,0.5961127757107099,0.4766945237192735,0.49324013221369195,0.3180159654615924
13.0,0.04627280309796333,0.0019184343828438557,"train",13980.0,"2021-11-21 09:28:23.658460","","","","","","",""
13.0,0.059886448085308075,0.0019199380864509208,"train",14000.0,"2021-11-21 09:28:26.802066","","","","","","",""
13.0,0.06948783248662949,0.0019214284033392457,"train",14020.0,"2021-11-21 09:28:30.047400","","","","","","",""
13.0,0.06069507449865341,0.0019229053108362649,"train",14040.0,"2021-11-21 09:28:33.256394","","","","","","",""
13.0,0.06232628598809242,0.0019243687864734145,"train",14060.0,"2021-11-21 09:28:36.472645","","","","","","",""
13.0,0.048914648592472076,0.0019258188079864732,"train",14080.0,"2021-11-21 09:28:40.195604","","","","","","",""
13.0,0.053842224180698395,0.0019272553533158999,"train",14100.0,"2021-11-21 09:28:43.451916","","","","","","",""
13.0,0.041851889342069626,0.0019286784006071697,"train",14120.0,"2021-11-21 09:28:46.652043","","","","","","",""
13.0,0.05363395810127258,0.0019300879282111083,"train",14140.0,"2021-11-21 09:28:49.795959","","","","","","",""
13.0,0.07069852203130722,0.0019314839146842185,"train",14160.0,"2021-11-21 09:28:52.942830","","","","","","",""
13.0,0.0647808089852333,0.0019328663387890076,"train",14180.0,"2021-11-21 09:28:56.651136","","","","","","",""
13.0,0.06362377107143402,0.0019342351794943119,"train",14200.0,"2021-11-21 09:28:59.793295","","","","","","",""
13.0,0.05096311867237091,0.0019355904159756138,"train",14220.0,"2021-11-21 09:29:02.980761","","","","","","",""
13.0,0.050418443977832794,0.0019369320276153613,"train",14240.0,"2021-11-21 09:29:06.174085","","","","","","",""
13.0,0.046577997505664825,0.00193825999400328,"train",14260.0,"2021-11-21 09:29:09.376816","","","","","","",""
13.0,0.060480643063783646,0.0019395742949366843,"train",14280.0,"2021-11-21 09:29:13.083582","","","","","","",""
13.0,0.06692974269390106,0.0019408749104207845,"train",14300.0,"2021-11-21 09:29:16.285093","","","","","","",""
13.0,0.05904152989387512,0.0019421618206689913,"train",14320.0,"2021-11-21 09:29:19.482827","","","","","","",""
13.0,0.04143829643726349,0.0019434350061032163,"train",14340.0,"2021-11-21 09:29:22.724511","","","","","","",""
13.0,0.05348039045929909,0.0019446944473541703,"train",14360.0,"2021-11-21 09:29:25.879560","","","","","","",""
13.0,0.06426749378442764,0.0019459401252616573,"train",14380.0,"2021-11-21 09:29:29.706029","","","","","","",""
13.0,0.06348063796758652,0.001947172020874868,"train",14400.0,"2021-11-21 09:29:32.957112","","","","","","",""
13.0,0.046721842139959335,0.0019483901154526647,"train",14420.0,"2021-11-21 09:29:36.214800","","","","","","",""
13.0,0.05139787122607231,0.0019495943904638694,"train",14440.0,"2021-11-21 09:29:39.477574","","","","","","",""
13.0,0.052630018442869186,0.0019507848275875444,"train",14460.0,"2021-11-21 09:29:42.701785","","","","","","",""
13.0,0.05690076947212219,0.0019519614087132712,"train",14480.0,"2021-11-21 09:29:46.459007","","","","","","",""
13.0,0.05281566455960274,0.0019531241159414263,"train",14500.0,"2021-11-21 09:29:49.692482","","","","","","",""
13.0,0.053328849375247955,0.001954272931583453,"train",14520.0,"2021-11-21 09:29:52.917378","","","","","","",""
13.0,0.06142476201057434,0.0019554078381621306,"train",14540.0,"2021-11-21 09:29:56.141161","","","","","","",""
13.0,0.06158005818724632,0.0019565288184118417,"train",14560.0,"2021-11-21 09:29:59.356059","","","","","","",""
13.0,0.059977658092975616,0.0019576358552788314,"train",14580.0,"2021-11-21 09:30:02.999737","","","","","","",""
13.0,0.05237181484699249,0.0019587289319214713,"train",14600.0,"2021-11-21 09:30:06.104465","","","","","","",""
13.0,0.04671338573098183,0.0019598080317105113,"train",14620.0,"2021-11-21 09:30:09.207740","","","","","","",""
13.0,0.06094243377447128,0.001960873138229337,"train",14640.0,"2021-11-21 09:30:12.295868","","","","","","",""
13.0,0.05175919085741043,0.0019619242352742153,"train",14660.0,"2021-11-21 09:30:15.395091","","","","","","",""
13.0,0.04873328655958176,0.001962961306854543,"train",14680.0,"2021-11-21 09:30:19.076654","","","","","","",""
13.0,0.048158302903175354,0.0019639843371930905,"train",14700.0,"2021-11-21 09:30:22.224956","","","","","","",""
13.0,0.054423097521066666,0.001964993310726241,"train",14720.0,"2021-11-21 09:30:25.342797","","","","","","",""
13.0,0.04401149973273277,0.0019659882121042262,"train",14740.0,"2021-11-21 09:30:28.524903","","","","","","",""
13.0,0.05285847559571266,0.001966969026191363,"train",14760.0,"2021-11-21 09:30:31.718780","","","","","","",""
13.0,0.04217613488435745,0.0019679357380662805,"train",14780.0,"2021-11-21 09:30:35.410539","","","","","","",""
13.0,0.05324292555451393,0.001968888333022148,"train",14800.0,"2021-11-21 09:30:38.616755","","","","","","",""
13.0,0.0486445277929306,0.0019698267965669,"train",14820.0,"2021-11-21 09:30:41.797152","","","","","","",""
13.0,0.048182010650634766,0.0019707511144234557,"train",14840.0,"2021-11-21 09:30:44.985586","","","","","","",""
13.0,0.058103080838918686,0.001971661272529935,"train",14860.0,"2021-11-21 09:30:48.173576","","","","","","",""
13.0,0.07056735455989838,0.001972557257039875,"train",14880.0,"2021-11-21 09:30:51.876092","","","","","","",""
13.0,0.05622383952140808,0.0019734390543224385,"train",14900.0,"2021-11-21 09:30:55.055339","","","","","","",""
13.0,0.07162606716156006,0.001974306650962622,"train",14920.0,"2021-11-21 09:30:58.213028","","","","","","",""
13.0,0.04402614384889603,0.0019751600337614608,"train",14940.0,"2021-11-21 09:31:01.359600","","","","","","",""
13.0,0.05990534648299217,0.0019759991897362284,"train",14960.0,"2021-11-21 09:31:04.506685","","","","","","",""
13.0,0.062351375818252563,0.0019768241061206343,"train",14980.0,"2021-11-21 09:31:08.170835","","","","","","",""
13.0,0.06417985260486603,0.0019776347703650186,"train",15000.0,"2021-11-21 09:31:11.321373","","","","","","",""
13.0,0.04551471397280693,0.001978431170136543,"train",15020.0,"2021-11-21 09:31:14.527769","","","","","","",""
13.0,"","","train",15036.0,"2021-11-21 09:32:53.844359",0.6345776031434185,0.6721127260567111,0.9561505366890679,0.6325452903304712,0.5219063017964686,0.5520077477851242,0.3692458786577782
13.0,"","","val",15036.0,"2021-11-21 09:33:20.494021",0.6033862924736171,0.6025613453541353,0.9379184421735053,0.5902259515159222,0.47758228263094843,0.5033467283138049,0.32555046473658533
14.0,0.05569448694586754,0.0019792132933193784,"train",15040.0,"2021-11-21 09:33:23.876501","","","","","","",""
14.0,0.04773806780576706,0.001979981128014888,"train",15060.0,"2021-11-21 09:33:27.230243","","","","","","",""
14.0,0.050657421350479126,0.001980734662541811,"train",15080.0,"2021-11-21 09:33:31.045871","","","","","","",""
14.0,0.07251831144094467,0.0019814738854364374,"train",15100.0,"2021-11-21 09:33:34.245864","","","","","","",""
14.0,0.04632694646716118,0.0019821987854527832,"train",15120.0,"2021-11-21 09:33:37.408544","","","","","","",""
14.0,0.049009308218955994,0.0019829093515627634,"train",15140.0,"2021-11-21 09:33:40.629310","","","","","","",""
14.0,0.04906773194670677,0.001983605572956358,"train",15160.0,"2021-11-21 09:33:43.829574","","","","","","",""
14.0,0.04751988872885704,0.001984287439041775,"train",15180.0,"2021-11-21 09:33:47.546304","","","","","","",""
14.0,0.05309193208813667,0.001984954939445616,"train",15200.0,"2021-11-21 09:33:50.821608","","","","","","",""
14.0,0.052608687430620193,0.0019856080640130295,"train",15220.0,"2021-11-21 09:33:54.061606","","","","","","",""
14.0,0.04855447635054588,0.0019862468028078676,"train",15240.0,"2021-11-21 09:33:57.262037","","","","","","",""
14.0,0.05673431232571602,0.001986871146112837,"train",15260.0,"2021-11-21 09:34:00.499945","","","","","","",""
14.0,0.05562634766101837,0.0019874810844296466,"train",15280.0,"2021-11-21 09:34:04.312601","","","","","","",""
14.0,0.056616757065057755,0.0019880766084791517,"train",15300.0,"2021-11-21 09:34:07.561522","","","","","","",""
14.0,0.05589929223060608,0.0019886577092014953,"train",15320.0,"2021-11-21 09:34:10.801398","","","","","","",""
14.0,0.04765605926513672,0.001989224377756247,"train",15340.0,"2021-11-21 09:34:14.035809","","","","","","",""
14.0,0.044895101338624954,0.0019897766055225353,"train",15360.0,"2021-11-21 09:34:17.244698","","","","","","",""
14.0,0.05390328913927078,0.0019903143840991813,"train",15380.0,"2021-11-21 09:34:20.987044","","","","","","",""
14.0,0.058626893907785416,0.0019908377053048246,"train",15400.0,"2021-11-21 09:34:24.210085","","","","","","",""
14.0,0.05032859742641449,0.001991346561178048,"train",15420.0,"2021-11-21 09:34:27.441302","","","","","","",""
14.0,0.06227666884660721,0.0019918409439775003,"train",15440.0,"2021-11-21 09:34:30.704325","","","","","","",""
14.0,0.047456640750169754,0.0019923208461820117,"train",15460.0,"2021-11-21 09:34:33.944032","","","","","","",""
14.0,0.04977598413825035,0.001992786260490709,"train",15480.0,"2021-11-21 09:34:37.659906","","","","","","",""
14.0,0.04812882840633392,0.0019932371798231287,"train",15500.0,"2021-11-21 09:34:40.852168","","","","","","",""
14.0,0.05102793872356415,0.0019936735973193212,"train",15520.0,"2021-11-21 09:34:44.095115","","","","","","",""
14.0,0.06118591129779816,0.001994095506339958,"train",15540.0,"2021-11-21 09:34:47.329652","","","","","","",""
14.0,0.05267855525016785,0.001994502900466431,"train",15560.0,"2021-11-21 09:34:50.540851","","","","","","",""
14.0,0.042648401111364365,0.0019948957735009517,"train",15580.0,"2021-11-21 09:34:54.268623","","","","","","",""
14.0,0.051569510251283646,0.0019952741194666436,"train",15600.0,"2021-11-21 09:34:57.484147","","","","","","",""
14.0,0.052169352769851685,0.0019956379326076354,"train",15620.0,"2021-11-21 09:35:00.677765","","","","","","",""
14.0,0.045298680663108826,0.001995987207389146,"train",15640.0,"2021-11-21 09:35:03.890116","","","","","","",""
14.0,0.055920954793691635,0.0019963219384975706,"train",15660.0,"2021-11-21 09:35:07.120886","","","","","","",""
14.0,0.0490255132317543,0.001996642120840561,"train",15680.0,"2021-11-21 09:35:10.818350","","","","","","",""
14.0,0.04933515191078186,0.001996947749547103,"train",15700.0,"2021-11-21 09:35:14.061648","","","","","","",""
14.0,0.05408131703734398,0.0019972388199675905,"train",15720.0,"2021-11-21 09:35:17.258655","","","","","","",""
14.0,0.056633129715919495,0.001997515327673896,"train",15740.0,"2021-11-21 09:35:20.437497","","","","","","",""
14.0,0.05571000650525093,0.0019977772684594388,"train",15760.0,"2021-11-21 09:35:23.650210","","","","","","",""
14.0,0.0428740456700325,0.0019980246383392475,"train",15780.0,"2021-11-21 09:35:27.356179","","","","","","",""
14.0,0.05010327324271202,0.0019982574335500225,"train",15800.0,"2021-11-21 09:35:30.557193","","","","","","",""
14.0,0.042846158146858215,0.001998475650550192,"train",15820.0,"2021-11-21 09:35:33.701082","","","","","","",""
14.0,0.04490868002176285,0.0019986792860199657,"train",15840.0,"2021-11-21 09:35:36.842582","","","","","","",""
14.0,0.06895631551742554,0.001998868336861386,"train",15860.0,"2021-11-21 09:35:40.004036","","","","","","",""
14.0,0.05760038271546364,0.001999042800198376,"train",15880.0,"2021-11-21 09:35:43.683006","","","","","","",""
14.0,0.03914245590567589,0.00199920267337678,"train",15900.0,"2021-11-21 09:35:46.845792","","","","","","",""
14.0,0.055934395641088486,0.0019993479539644077,"train",15920.0,"2021-11-21 09:35:50.001345","","","","","","",""
14.0,0.04774912819266319,0.0019994786397510697,"train",15940.0,"2021-11-21 09:35:53.153215","","","","","","",""
14.0,0.054086748510599136,0.0019995947287486096,"train",15960.0,"2021-11-21 09:35:56.307694","","","","","","",""
14.0,0.0484234094619751,0.0019996962191909367,"train",15980.0,"2021-11-21 09:35:59.965195","","","","","","",""
14.0,0.056573737412691116,0.0019997831095340513,"train",16000.0,"2021-11-21 09:36:03.144021","","","","","","",""
14.0,0.04935327172279358,0.001999855398456069,"train",16020.0,"2021-11-21 09:36:06.315676","","","","","","",""
14.0,0.04734797775745392,0.00199991308485724,"train",16040.0,"2021-11-21 09:36:09.493496","","","","","","",""
14.0,0.04647153243422508,0.001999956167859967,"train",16060.0,"2021-11-21 09:36:12.676739","","","","","","",""
14.0,0.04781914874911308,0.0019999846468088172,"train",16080.0,"2021-11-21 09:36:16.436247","","","","","","",""
14.0,0.04914626106619835,0.0019999985212705335,"train",16100.0,"2021-11-21 09:36:19.651645","","","","","","",""
14.0,"","","train",16110.0,"2021-11-21 09:37:54.472671",0.643716801280652,0.676317183097114,0.96098515061716,0.6615545386158903,0.5433314568776709,0.5680689671010457,0.38597289264913653
14.0,"","","val",16110.0,"2021-11-21 09:38:19.388432",0.6046039661370752,0.6018092550719143,0.9412140564446392,0.6121485036072467,0.49441983024194514,0.5162470506632819,0.33319662156425445
15.0,0.0487092025578022,0.0019999995774202316,"train",16120.0,"2021-11-21 09:38:23.707538","","","","","","",""
15.0,0.05629362538456917,0.0019999966438102564,"train",16140.0,"2021-11-21 09:38:26.853082","","","","","","",""
15.0,0.06202957406640053,0.0019999909162942875,"train",16160.0,"2021-11-21 09:38:30.045848","","","","","","",""
15.0,0.058988943696022034,0.001999982394888327,"train",16180.0,"2021-11-21 09:38:33.917616","","","","","","",""
15.0,0.043436262756586075,0.0019999710796161823,"train",16200.0,"2021-11-21 09:38:37.148855","","","","","","",""
15.0,0.04737575352191925,0.0019999569705094686,"train",16220.0,"2021-11-21 09:38:40.374461","","","","","","",""
15.0,0.05552968755364418,0.001999940067607605,"train",16240.0,"2021-11-21 09:38:43.525966","","","","","","",""
15.0,0.05457642674446106,0.001999920370957817,"train",16260.0,"2021-11-21 09:38:46.658616","","","","","","",""
15.0,0.06136456876993179,0.0019998978806151355,"train",16280.0,"2021-11-21 09:38:50.359839","","","","","","",""
15.0,0.053901251405477524,0.0019998725966423976,"train",16300.0,"2021-11-21 09:38:53.594991","","","","","","",""
15.0,0.04907216131687164,0.001999844519110244,"train",16320.0,"2021-11-21 09:38:56.782754","","","","","","",""
15.0,0.052886683493852615,0.001999813648097122,"train",16340.0,"2021-11-21 09:38:59.969869","","","","","","",""
15.0,0.046855006366968155,0.001999779983689282,"train",16360.0,"2021-11-21 09:39:03.166267","","","","","","",""
15.0,0.051063310354948044,0.0019997435259807806,"train",16380.0,"2021-11-21 09:39:06.893105","","","","","","",""
15.0,0.05128985270857811,0.001999704275073478,"train",16400.0,"2021-11-21 09:39:10.136578","","","","","","",""
15.0,0.053377434611320496,0.0019996622310770383,"train",16420.0,"2021-11-21 09:39:13.375258","","","","","","",""
15.0,0.04952815920114517,0.0019996173941089286,"train",16440.0,"2021-11-21 09:39:16.632923","","","","","","",""
15.0,0.05189068615436554,0.0019995697642944212,"train",16460.0,"2021-11-21 09:39:19.888726","","","","","","",""
15.0,0.05313057452440262,0.0019995193417665894,"train",16480.0,"2021-11-21 09:39:23.565370","","","","","","",""
15.0,0.056729454547166824,0.0019994661266663108,"train",16500.0,"2021-11-21 09:39:26.704732","","","","","","",""
15.0,0.047554340213537216,0.001999410119142264,"train",16520.0,"2021-11-21 09:39:29.849476","","","","","","",""
15.0,0.043077319860458374,0.0019993513193509297,"train",16540.0,"2021-11-21 09:39:33.008131","","","","","","",""
15.0,0.051828183233737946,0.0019992897274565906,"train",16560.0,"2021-11-21 09:39:36.229124","","","","","","",""
15.0,0.060136936604976654,0.0019992253436313303,"train",16580.0,"2021-11-21 09:39:40.007589","","","","","","",""
15.0,0.03622695431113243,0.0019991581680550313,"train",16600.0,"2021-11-21 09:39:43.237326","","","","","","",""
15.0,0.04946708679199219,0.0019990882009153785,"train",16620.0,"2021-11-21 09:39:46.458458","","","","","","",""
15.0,0.05607610568404198,0.001999015442407854,"train",16640.0,"2021-11-21 09:39:49.700705","","","","","","",""
15.0,0.05142222344875336,0.0019989398927357403,"train",16660.0,"2021-11-21 09:39:52.932018","","","","","","",""
15.0,0.049983128905296326,0.0019988615521101174,"train",16680.0,"2021-11-21 09:39:56.718698","","","","","","",""
15.0,0.05524960905313492,0.0019987804207498637,"train",16700.0,"2021-11-21 09:40:00.017838","","","","","","",""
15.0,0.04316343739628792,0.0019986964988816533,"train",16720.0,"2021-11-21 09:40:03.204456","","","","","","",""
15.0,0.04635613039135933,0.0019986097867399585,"train",16740.0,"2021-11-21 09:40:06.375842","","","","","","",""
15.0,0.05348513275384903,0.0019985202845670463,"train",16760.0,"2021-11-21 09:40:09.559248","","","","","","",""
15.0,0.04139567166566849,0.0019984279926129798,"train",16780.0,"2021-11-21 09:40:13.235135","","","","","","",""
15.0,0.054432980716228485,0.001998332911135615,"train",16800.0,"2021-11-21 09:40:16.445264","","","","","","",""
15.0,0.034021466970443726,0.0019982350404006036,"train",16820.0,"2021-11-21 09:40:19.590360","","","","","","",""
15.0,0.06258231401443481,0.0019981343806813883,"train",16840.0,"2021-11-21 09:40:22.759075","","","","","","",""
15.0,0.05560878664255142,0.001998030932259205,"train",16860.0,"2021-11-21 09:40:25.945601","","","","","","",""
15.0,0.05212528258562088,0.0019979246954230823,"train",16880.0,"2021-11-21 09:40:29.742645","","","","","","",""
15.0,0.050030943006277084,0.0019978156704698363,"train",16900.0,"2021-11-21 09:40:33.020691","","","","","","",""
15.0,0.04206634312868118,0.001997703857704076,"train",16920.0,"2021-11-21 09:40:36.261490","","","","","","",""
15.0,0.06490560621023178,0.0019975892574381976,"train",16940.0,"2021-11-21 09:40:39.399437","","","","","","",""
15.0,0.05431482568383217,0.001997471869992386,"train",16960.0,"2021-11-21 09:40:42.532646","","","","","","",""
15.0,0.046119995415210724,0.0019973516956946127,"train",16980.0,"2021-11-21 09:40:46.171892","","","","","","",""
15.0,0.058850061148405075,0.0019972287348806366,"train",17000.0,"2021-11-21 09:40:49.320721","","","","","","",""
15.0,0.05290747061371803,0.0019971029878940003,"train",17020.0,"2021-11-21 09:40:52.482337","","","","","","",""
15.0,0.04835318773984909,0.0019969744550860317,"train",17040.0,"2021-11-21 09:40:55.631782","","","","","","",""
15.0,0.05263225734233856,0.0019968431368158433,"train",17060.0,"2021-11-21 09:40:58.765129","","","","","","",""
15.0,0.051609206944704056,0.001996709033450327,"train",17080.0,"2021-11-21 09:41:02.408884","","","","","","",""
15.0,0.04751387611031532,0.0019965721453641585,"train",17100.0,"2021-11-21 09:41:05.550233","","","","","","",""
15.0,0.053377486765384674,0.0019964324729397935,"train",17120.0,"2021-11-21 09:41:08.684324","","","","","","",""
15.0,0.05387146398425102,0.0019962900165674657,"train",17140.0,"2021-11-21 09:41:11.835506","","","","","","",""
15.0,0.04815242066979408,0.0019961447766451887,"train",17160.0,"2021-11-21 09:41:14.976440","","","","","","",""
15.0,0.040900662541389465,0.001995996753578751,"train",17180.0,"2021-11-21 09:41:18.079550","","","","","","",""
15.0,"","","train",17184.0,"2021-11-21 09:42:56.841929",0.633951830022557,0.6799849399065718,0.9594897029224175,0.6478856946136201,0.5470396485251159,0.56900070231568,0.38371578357700314
15.0,"","","val",17184.0,"2021-11-21 09:43:22.092051",0.5916154470601879,0.5999236754965781,0.941870140279516,0.5958387004558465,0.4931641270200039,0.5115678943791185,0.3292688192525164
16.0,0.042249374091625214,0.001995845947781719,"train",17200.0,"2021-11-21 09:43:27.371941","","","","","","",""
16.0,0.04783381149172783,0.001995692359675433,"train",17220.0,"2021-11-21 09:43:30.617903","","","","","","",""
16.0,0.051192834973335266,0.0019955359896890066,"train",17240.0,"2021-11-21 09:43:33.855955","","","","","","",""
16.0,0.050613854080438614,0.0019953768382593258,"train",17260.0,"2021-11-21 09:43:37.031001","","","","","","",""
16.0,0.04724399745464325,0.0019952149058310486,"train",17280.0,"2021-11-21 09:43:40.870527","","","","","","",""
16.0,0.056874461472034454,0.001995050192856602,"train",17300.0,"2021-11-21 09:43:44.100082","","","","","","",""
16.0,0.04410882294178009,0.001994882699796182,"train",17320.0,"2021-11-21 09:43:47.274043","","","","","","",""
16.0,0.04543900489807129,0.001994712427117752,"train",17340.0,"2021-11-21 09:43:50.423769","","","","","","",""
16.0,0.054159294813871384,0.0019945393752970413,"train",17360.0,"2021-11-21 09:43:53.573635","","","","","","",""
16.0,0.056976355612277985,0.001994363544817544,"train",17380.0,"2021-11-21 09:43:57.228638","","","","","","",""
16.0,0.051608894020318985,0.001994184936170517,"train",17400.0,"2021-11-21 09:44:00.461147","","","","","","",""
16.0,0.05232378467917442,0.0019940035498549804,"train",17420.0,"2021-11-21 09:44:03.687246","","","","","","",""
16.0,0.04902160167694092,0.0019938193863777145,"train",17440.0,"2021-11-21 09:44:06.900858","","","","","","",""
16.0,0.04684816300868988,0.001993632446253258,"train",17460.0,"2021-11-21 09:44:10.194321","","","","","","",""
16.0,0.05575666204094887,0.0019934427300039074,"train",17480.0,"2021-11-21 09:44:13.969449","","","","","","",""
16.0,0.06864360719919205,0.001993250238159717,"train",17500.0,"2021-11-21 09:44:17.206006","","","","","","",""
16.0,0.05058656632900238,0.0019930549712584944,"train",17520.0,"2021-11-21 09:44:20.407101","","","","","","",""
16.0,0.05399824306368828,0.001992856929845801,"train",17540.0,"2021-11-21 09:44:23.604921","","","","","","",""
16.0,0.041847873479127884,0.0019926561144749497,"train",17560.0,"2021-11-21 09:44:26.836671","","","","","","",""
16.0,0.055311571806669235,0.001992452525707004,"train",17580.0,"2021-11-21 09:44:30.592526","","","","","","",""
16.0,0.04786008596420288,0.0019922461641107767,"train",17600.0,"2021-11-21 09:44:33.818779","","","","","","",""
16.0,0.05149977281689644,0.001992037030262826,"train",17620.0,"2021-11-21 09:44:36.999396","","","","","","",""
16.0,0.049412984400987625,0.0019918251247474567,"train",17640.0,"2021-11-21 09:44:40.204330","","","","","","",""
16.0,0.04670319706201553,0.001991610448156718,"train",17660.0,"2021-11-21 09:44:43.399148","","","","","","",""
16.0,0.04990449547767639,0.0019913930010903996,"train",17680.0,"2021-11-21 09:44:47.067851","","","","","","",""
16.0,0.04344206675887108,0.001991172784156033,"train",17700.0,"2021-11-21 09:44:50.210755","","","","","","",""
16.0,0.04386725649237633,0.0019909497979688877,"train",17720.0,"2021-11-21 09:44:53.363950","","","","","","",""
16.0,0.05744873732328415,0.0019907240431519713,"train",17740.0,"2021-11-21 09:44:56.497893","","","","","","",""
16.0,0.04997178539633751,0.001990495520336026,"train",17760.0,"2021-11-21 09:44:59.619650","","","","","","",""
16.0,0.04109244421124458,0.0019902642301595284,"train",17780.0,"2021-11-21 09:45:02.763022","","","","","","",""
16.0,0.03888893127441406,0.001990030173268685,"train",17800.0,"2021-11-21 09:45:06.421065","","","","","","",""
16.0,0.05815405771136284,0.0019897933503174345,"train",17820.0,"2021-11-21 09:45:09.635761","","","","","","",""
16.0,0.051628243178129196,0.0019895537619674425,"train",17840.0,"2021-11-21 09:45:12.864641","","","","","","",""
16.0,0.048428043723106384,0.001989311408888101,"train",17860.0,"2021-11-21 09:45:16.072105","","","","","","",""
16.0,0.05494430661201477,0.001989066291756527,"train",17880.0,"2021-11-21 09:45:19.308451","","","","","","",""
16.0,0.043867453932762146,0.00198881841125756,"train",17900.0,"2021-11-21 09:45:23.052722","","","","","","",""
16.0,0.05137428268790245,0.0019885677680837595,"train",17920.0,"2021-11-21 09:45:26.324659","","","","","","",""
16.0,0.0431438572704792,0.001988314362935404,"train",17940.0,"2021-11-21 09:45:29.572321","","","","","","",""
16.0,0.04143625125288963,0.0019880581965204896,"train",17960.0,"2021-11-21 09:45:32.760616","","","","","","",""
16.0,0.046347059309482574,0.0019877992695547255,"train",17980.0,"2021-11-21 09:45:35.918547","","","","","","",""
16.0,0.04577506706118584,0.0019875375827615354,"train",18000.0,"2021-11-21 09:45:39.561977","","","","","","",""
16.0,0.05094287544488907,0.0019872731368720527,"train",18020.0,"2021-11-21 09:45:42.737664","","","","","","",""
16.0,0.049197420477867126,0.00198700593262512,"train",18040.0,"2021-11-21 09:45:45.982221","","","","","","",""
16.0,0.046313781291246414,0.001986735970767286,"train",18060.0,"2021-11-21 09:45:49.212218","","","","","","",""
16.0,0.04072698578238487,0.001986463252052804,"train",18080.0,"2021-11-21 09:45:52.429711","","","","","","",""
16.0,0.05171336606144905,0.0019861877772436305,"train",18100.0,"2021-11-21 09:45:56.092311","","","","","","",""
16.0,0.05953820049762726,0.001985909547109422,"train",18120.0,"2021-11-21 09:45:59.335774","","","","","","",""
16.0,0.04887263849377632,0.001985628562427533,"train",18140.0,"2021-11-21 09:46:02.601261","","","","","","",""
16.0,0.055078279227018356,0.001985344823983014,"train",18160.0,"2021-11-21 09:46:05.829644","","","","","","",""
16.0,0.04941105470061302,0.001985058332568609,"train",18180.0,"2021-11-21 09:46:09.042668","","","","","","",""
16.0,0.04466428980231285,0.001984769088984755,"train",18200.0,"2021-11-21 09:46:12.671912","","","","","","",""
16.0,0.057827118784189224,0.001984477094039576,"train",18220.0,"2021-11-21 09:46:15.825371","","","","","","",""
16.0,0.04557151347398758,0.001984182348548885,"train",18240.0,"2021-11-21 09:46:19.083657","","","","","","",""
16.0,"","","train",18258.0,"2021-11-21 09:47:54.848348",0.6581386887870189,0.7065204894535071,0.9640292609780763,0.6640756432358671,0.5666868210204162,0.5908723873792304,0.4074773220972947
16.0,"","","val",18258.0,"2021-11-21 09:48:20.214311",0.6120259770381538,0.611589501544304,0.9422810800995938,0.6052644087036786,0.507082756912392,0.5282896482650531,0.34321949163385157
17.0,0.04168478399515152,0.00198388485333618,"train",18260.0,"2021-11-21 09:48:23.215580","","","","","","",""
17.0,0.04168428108096123,0.0019835846092326396,"train",18280.0,"2021-11-21 09:48:26.459852","","","","","","",""
17.0,0.06015258654952049,0.0019832816170771246,"train",18300.0,"2021-11-21 09:48:30.283479","","","","","","",""
17.0,0.037995606660842896,0.001982975877716172,"train",18320.0,"2021-11-21 09:48:33.481800","","","","","","",""
17.0,0.040172744542360306,0.0019826673920039957,"train",18340.0,"2021-11-21 09:48:36.661345","","","","","","",""
17.0,0.044808849692344666,0.0019823561608024822,"train",18360.0,"2021-11-21 09:48:39.872796","","","","","","",""
17.0,0.04756367951631546,0.0019820421849811886,"train",18380.0,"2021-11-21 09:48:43.051829","","","","","","",""
17.0,0.05440869554877281,0.0019817254654173402,"train",18400.0,"2021-11-21 09:48:46.756308","","","","","","",""
17.0,0.05175347253680229,0.0019814060029958278,"train",18420.0,"2021-11-21 09:48:49.930914","","","","","","",""
17.0,0.054054372012615204,0.001981083798609206,"train",18440.0,"2021-11-21 09:48:53.083996","","","","","","",""
17.0,0.044071923941373825,0.0019807588531576908,"train",18460.0,"2021-11-21 09:48:56.303544","","","","","","",""
17.0,0.05017901584506035,0.0019804311675491555,"train",18480.0,"2021-11-21 09:48:59.506829","","","","","","",""
17.0,0.049234189093112946,0.00198010074269913,"train",18500.0,"2021-11-21 09:49:03.198986","","","","","","",""
17.0,0.048666417598724365,0.0019797675795307965,"train",18520.0,"2021-11-21 09:49:06.406221","","","","","","",""
17.0,0.046129364520311356,0.0019794316789749885,"train",18540.0,"2021-11-21 09:49:09.640051","","","","","","",""
17.0,0.05968398600816727,0.0019790930419701877,"train",18560.0,"2021-11-21 09:49:12.848043","","","","","","",""
17.0,0.0543585941195488,0.0019787516694625214,"train",18580.0,"2021-11-21 09:49:16.016963","","","","","","",""
17.0,0.04136129096150398,0.0019784075624057584,"train",18600.0,"2021-11-21 09:49:19.757726","","","","","","",""
17.0,0.052039533853530884,0.0019780607217613094,"train",18620.0,"2021-11-21 09:49:22.936044","","","","","","",""
17.0,0.04017428308725357,0.001977711148498221,"train",18640.0,"2021-11-21 09:49:26.106631","","","","","","",""
17.0,0.05455248802900314,0.0019773588435931756,"train",18660.0,"2021-11-21 09:49:29.274460","","","","","","",""
17.0,0.0504491850733757,0.0019770038080304873,"train",18680.0,"2021-11-21 09:49:32.455564","","","","","","",""
17.0,0.051979370415210724,0.001976646042802099,"train",18700.0,"2021-11-21 09:49:36.130066","","","","","","",""
17.0,0.04665280506014824,0.0019762855489075808,"train",18720.0,"2021-11-21 09:49:39.289389","","","","","","",""
17.0,0.04248039796948433,0.001975922327354126,"train",18740.0,"2021-11-21 09:49:42.465070","","","","","","",""
17.0,0.06086330488324165,0.001975556379156549,"train",18760.0,"2021-11-21 09:49:45.630521","","","","","","",""
17.0,0.06585951149463654,0.0019751877053372823,"train",18780.0,"2021-11-21 09:49:48.792049","","","","","","",""
17.0,0.041147954761981964,0.001974816306926373,"train",18800.0,"2021-11-21 09:49:52.437102","","","","","","",""
17.0,0.0440821498632431,0.001974442184961482,"train",18820.0,"2021-11-21 09:49:55.579432","","","","","","",""
17.0,0.051334574818611145,0.0019740653404878776,"train",18840.0,"2021-11-21 09:49:58.804757","","","","","","",""
17.0,0.047994840890169144,0.0019736857745584362,"train",18860.0,"2021-11-21 09:50:01.996166","","","","","","",""
17.0,0.05185693874955177,0.0019733034882336367,"train",18880.0,"2021-11-21 09:50:05.157620","","","","","","",""
17.0,0.04921147599816322,0.0019729184825815586,"train",18900.0,"2021-11-21 09:50:08.842322","","","","","","",""
17.0,0.057267144322395325,0.0019725307586778806,"train",18920.0,"2021-11-21 09:50:12.039921","","","","","","",""
17.0,0.05374576523900032,0.001972140317605874,"train",18940.0,"2021-11-21 09:50:15.316476","","","","","","",""
17.0,0.057558346539735794,0.0019717471604564028,"train",18960.0,"2021-11-21 09:50:18.477838","","","","","","",""
17.0,0.05041975528001785,0.0019713512883279185,"train",18980.0,"2021-11-21 09:50:21.687064","","","","","","",""
17.0,0.04496842250227928,0.00197095270232646,"train",19000.0,"2021-11-21 09:50:25.416794","","","","","","",""
17.0,0.037399210035800934,0.001970551403565646,"train",19020.0,"2021-11-21 09:50:28.638805","","","","","","",""
17.0,0.043347250670194626,0.0019701473931666765,"train",19040.0,"2021-11-21 09:50:31.850762","","","","","","",""
17.0,0.04677372798323631,0.001969740672258327,"train",19060.0,"2021-11-21 09:50:35.044948","","","","","","",""
17.0,0.0515013188123703,0.0019693312419769454,"train",19080.0,"2021-11-21 09:50:38.252884","","","","","","",""
17.0,0.04644033685326576,0.0019689191034664498,"train",19100.0,"2021-11-21 09:50:41.967690","","","","","","",""
17.0,0.050137054175138474,0.0019685042578783257,"train",19120.0,"2021-11-21 09:50:45.187096","","","","","","",""
17.0,0.043599143624305725,0.00196808670637162,"train",19140.0,"2021-11-21 09:50:48.424967","","","","","","",""
17.0,0.04446406662464142,0.001967666450112942,"train",19160.0,"2021-11-21 09:50:51.580155","","","","","","",""
17.0,0.0495256669819355,0.001967243490276456,"train",19180.0,"2021-11-21 09:50:54.701828","","","","","","",""
17.0,0.05264042317867279,0.0019668178280438818,"train",19200.0,"2021-11-21 09:50:58.401990","","","","","","",""
17.0,0.04018089547753334,0.0019663894646044875,"train",19220.0,"2021-11-21 09:51:01.592473","","","","","","",""
17.0,0.06304720044136047,0.001965958401155089,"train",19240.0,"2021-11-21 09:51:04.774502","","","","","","",""
17.0,0.05156511440873146,0.0019655246389000463,"train",19260.0,"2021-11-21 09:51:07.974468","","","","","","",""
17.0,0.047281522303819656,0.0019650881790512597,"train",19280.0,"2021-11-21 09:51:11.097861","","","","","","",""
17.0,0.05549447610974312,0.001964649022828165,"train",19300.0,"2021-11-21 09:51:14.724208","","","","","","",""
17.0,0.054326366633176804,0.0019642071714577325,"train",19320.0,"2021-11-21 09:51:17.838756","","","","","","",""
17.0,"","","train",19332.0,"2021-11-21 09:52:52.011362",0.6685730917558029,0.7211359772258282,0.9669387512564016,0.7003101823085547,0.6101887277323617,0.6421436984674985,0.43435141735996496
17.0,"","","val",19332.0,"2021-11-21 09:53:17.406101",0.6103444276933782,0.6176131454937216,0.9470807960664666,0.6284297283689072,0.5295727488657944,0.5569711040818889,0.3515121656378864
18.0,0.04022026062011719,0.0019637626261744634,"train",19340.0,"2021-11-21 09:53:21.379606","","","","","","",""
18.0,0.033688534051179886,0.001963315388220384,"train",19360.0,"2021-11-21 09:53:24.575761","","","","","","",""
18.0,0.04931752756237984,0.0019628654588450443,"train",19380.0,"2021-11-21 09:53:27.794340","","","","","","",""
18.0,0.045709189027547836,0.001962412839305514,"train",19400.0,"2021-11-21 09:53:31.558322","","","","","","",""
18.0,0.04998112842440605,0.0019619575308663785,"train",19420.0,"2021-11-21 09:53:34.687633","","","","","","",""
18.0,0.03804896026849747,0.001961499534799737,"train",19440.0,"2021-11-21 09:53:37.864837","","","","","","",""
18.0,0.04893401265144348,0.001961038852385196,"train",19460.0,"2021-11-21 09:53:41.005375","","","","","","",""
18.0,0.0572061650454998,0.0019605754849098683,"train",19480.0,"2021-11-21 09:53:44.131888","","","","","","",""
18.0,0.04442913457751274,0.0019601094336683693,"train",19500.0,"2021-11-21 09:53:47.733714","","","","","","",""
18.0,0.041469622403383255,0.0019596406999628116,"train",19520.0,"2021-11-21 09:53:50.835792","","","","","","",""
18.0,0.055764492601156235,0.0019591692851028022,"train",19540.0,"2021-11-21 09:53:53.933491","","","","","","",""
18.0,0.04348291829228401,0.001958695190405441,"train",19560.0,"2021-11-21 09:53:57.050011","","","","","","",""
18.0,0.052366286516189575,0.001958218417195312,"train",19580.0,"2021-11-21 09:54:00.193309","","","","","","",""
18.0,0.045952752232551575,0.001957738966804486,"train",19600.0,"2021-11-21 09:54:03.885006","","","","","","",""
18.0,0.04263434186577797,0.001957256840572511,"train",19620.0,"2021-11-21 09:54:07.005244","","","","","","",""
18.0,0.04250766336917877,0.0019567720398464133,"train",19640.0,"2021-11-21 09:54:10.128672","","","","","","",""
18.0,0.04697137326002121,0.00195628456598069,"train",19660.0,"2021-11-21 09:54:13.264230","","","","","","",""
18.0,0.045613572001457214,0.001955794420337307,"train",19680.0,"2021-11-21 09:54:16.396168","","","","","","",""
18.0,0.043483056128025055,0.0019553016042856957,"train",19700.0,"2021-11-21 09:54:20.055533","","","","","","",""
18.0,0.05850910022854805,0.001954806119202748,"train",19720.0,"2021-11-21 09:54:23.243508","","","","","","",""
18.0,0.05610957741737366,0.001954307966472812,"train",19740.0,"2021-11-21 09:54:26.452554","","","","","","",""
18.0,0.061255719512701035,0.0019538071474876914,"train",19760.0,"2021-11-21 09:54:29.675074","","","","","","",""
18.0,0.0546673983335495,0.001953303663646636,"train",19780.0,"2021-11-21 09:54:32.870218","","","","","","",""
18.0,0.04553272947669029,0.0019527975163563436,"train",19800.0,"2021-11-21 09:54:36.604520","","","","","","",""
18.0,0.04513468220829964,0.0019522887070309524,"train",19820.0,"2021-11-21 09:54:39.783210","","","","","","",""
18.0,0.052183832973241806,0.0019517772370920379,"train",19840.0,"2021-11-21 09:54:42.976713","","","","","","",""
18.0,0.051254622638225555,0.0019512631079686104,"train",19860.0,"2021-11-21 09:54:46.165729","","","","","","",""
18.0,0.0452456995844841,0.001950746321097108,"train",19880.0,"2021-11-21 09:54:49.361005","","","","","","",""
18.0,0.04611159488558769,0.0019502268779213957,"train",19900.0,"2021-11-21 09:54:53.093860","","","","","","",""
18.0,0.053459394723176956,0.0019497047798927598,"train",19920.0,"2021-11-21 09:54:56.287862","","","","","","",""
18.0,0.04779037460684776,0.001949180028469903,"train",19940.0,"2021-11-21 09:54:59.456885","","","","","","",""
18.0,0.05847438424825668,0.0019486526251189435,"train",19960.0,"2021-11-21 09:55:02.652304","","","","","","",""
18.0,0.03788184002041817,0.0019481225713134064,"train",19980.0,"2021-11-21 09:55:05.816479","","","","","","",""
18.0,0.05073035508394241,0.0019475898685342235,"train",20000.0,"2021-11-21 09:55:09.503536","","","","","","",""
18.0,0.05958514288067818,0.0019470545182697272,"train",20020.0,"2021-11-21 09:55:12.666799","","","","","","",""
18.0,0.0435437336564064,0.001946516522015647,"train",20040.0,"2021-11-21 09:55:15.839304","","","","","","",""
18.0,0.05251966416835785,0.0019459758812751047,"train",20060.0,"2021-11-21 09:55:19.086504","","","","","","",""
18.0,0.05369655042886734,0.0019454325975586106,"train",20080.0,"2021-11-21 09:55:22.294183","","","","","","",""
18.0,0.04869619011878967,0.0019448866723840602,"train",20100.0,"2021-11-21 09:55:25.986088","","","","","","",""
18.0,0.05982726439833641,0.001944338107276728,"train",20120.0,"2021-11-21 09:55:29.206963","","","","","","",""
18.0,0.05670731142163277,0.0019437869037692644,"train",20140.0,"2021-11-21 09:55:32.455805","","","","","","",""
18.0,0.05402429774403572,0.0019432330634016912,"train",20160.0,"2021-11-21 09:55:35.696133","","","","","","",""
18.0,0.05729648098349571,0.0019426765877213986,"train",20180.0,"2021-11-21 09:55:38.930349","","","","","","",""
18.0,0.050324369221925735,0.0019421174782831383,"train",20200.0,"2021-11-21 09:55:42.598621","","","","","","",""
18.0,0.050251323729753494,0.0019415557366490208,"train",20220.0,"2021-11-21 09:55:45.730930","","","","","","",""
