"epoch","loss","lr","part","step","time","accuracy","auprc","auroc","challenge_metric","f_beta_measure","f_measure","g_beta_measure"
0.0,0.41828128695487976,8.000730236035311e-05,"train",20.0,"2021-11-20 21:53:31.705804","","","","","","",""
0.0,0.19969582557678223,8.002920933031948e-05,"train",40.0,"2021-11-20 21:53:35.788452","","","","","","",""
0.0,0.12581676244735718,8.006572057662293e-05,"train",60.0,"2021-11-20 21:53:39.739401","","","","","","",""
0.0,0.140252023935318,8.011683554380914e-05,"train",80.0,"2021-11-20 21:53:43.699054","","","","","","",""
0.0,0.1328432261943817,8.018255345425274e-05,"train",100.0,"2021-11-20 21:53:47.642458","","","","","","",""
0.0,0.12664030492305756,8.026287330817079e-05,"train",120.0,"2021-11-20 21:53:51.633033","","","","","","",""
0.0,0.11747805774211884,8.03577938836373e-05,"train",140.0,"2021-11-20 21:53:55.606515","","","","","","",""
0.0,0.13294288516044617,8.04673137366021e-05,"train",160.0,"2021-11-20 21:53:59.603703","","","","","","",""
0.0,0.12002115696668625,8.059143120091187e-05,"train",180.0,"2021-11-20 21:54:03.818023","","","","","","",""
0.0,0.12606947124004364,8.073014438833613e-05,"train",200.0,"2021-11-20 21:54:08.070034","","","","","","",""
0.0,0.13144713640213013,8.088345118859724e-05,"train",220.0,"2021-11-20 21:54:12.215142","","","","","","",""
0.0,0.11919806897640228,8.10513492693996e-05,"train",240.0,"2021-11-20 21:54:16.291310","","","","","","",""
0.0,0.1399424821138382,8.123383607646804e-05,"train",260.0,"2021-11-20 21:54:20.378865","","","","","","",""
0.0,0.13943469524383545,8.143090883358495e-05,"train",280.0,"2021-11-20 21:54:24.445518","","","","","","",""
0.0,0.1220819354057312,8.164256454263295e-05,"train",300.0,"2021-11-20 21:54:28.525631","","","","","","",""
0.0,0.12222599238157272,8.186879998364088e-05,"train",320.0,"2021-11-20 21:54:32.589854","","","","","","",""
0.0,0.13767756521701813,8.210961171483213e-05,"train",340.0,"2021-11-20 21:54:36.643246","","","","","","",""
0.0,0.14737747609615326,8.236499607267717e-05,"train",360.0,"2021-11-20 21:54:40.664860","","","","","","",""
0.0,0.13225606083869934,8.26349491719505e-05,"train",380.0,"2021-11-20 21:54:44.756681","","","","","","",""
0.0,0.11266349256038666,8.291946690578713e-05,"train",400.0,"2021-11-20 21:54:49.519355","","","","","","",""
0.0,0.1121826246380806,8.321854494574774e-05,"train",420.0,"2021-11-20 21:54:53.752895","","","","","","",""
0.0,0.14529909193515778,8.353217874188293e-05,"train",440.0,"2021-11-20 21:54:57.835831","","","","","","",""
0.0,0.1257013976573944,8.38603635228035e-05,"train",460.0,"2021-11-20 21:55:02.003077","","","","","","",""
0.0,0.11623828858137131,8.420309429575212e-05,"train",480.0,"2021-11-20 21:55:06.239587","","","","","","",""
0.0,0.1166282594203949,8.456036584667914e-05,"train",500.0,"2021-11-20 21:55:10.404602","","","","","","",""
0.0,0.11561329662799835,8.493217274032315e-05,"train",520.0,"2021-11-20 21:55:14.536606","","","","","","",""
0.0,0.11101201921701431,8.531850932029235e-05,"train",540.0,"2021-11-20 21:55:18.648261","","","","","","",""
0.0,0.13326573371887207,8.571936970915212e-05,"train",560.0,"2021-11-20 21:55:22.695967","","","","","","",""
0.0,0.11426939815282822,8.613474780851246e-05,"train",580.0,"2021-11-20 21:55:26.757861","","","","","","",""
0.0,0.1174529492855072,8.656463729912224e-05,"train",600.0,"2021-11-20 21:55:30.857438","","","","","","",""
0.0,0.12302739918231964,8.700903164096468e-05,"train",620.0,"2021-11-20 21:55:34.923525","","","","","","",""
0.0,0.12768219411373138,8.746792407335769e-05,"train",640.0,"2021-11-20 21:55:38.992389","","","","","","",""
0.0,0.09610817581415176,8.794130761505497e-05,"train",660.0,"2021-11-20 21:55:43.037478","","","","","","",""
0.0,0.10318602621555328,8.842917506435462e-05,"train",680.0,"2021-11-20 21:55:47.150708","","","","","","",""
0.0,0.09098043292760849,8.893151899920645e-05,"train",700.0,"2021-11-20 21:55:51.274255","","","","","","",""
0.0,0.09591013193130493,8.944833177732632e-05,"train",720.0,"2021-11-20 21:55:55.493990","","","","","","",""
0.0,0.11487458646297455,8.997960553631186e-05,"train",740.0,"2021-11-20 21:55:59.644951","","","","","","",""
0.0,0.09090323746204376,9.052533219376224e-05,"train",760.0,"2021-11-20 21:56:03.729342","","","","","","",""
0.0,0.09172528237104416,9.108550344740104e-05,"train",780.0,"2021-11-20 21:56:08.349344","","","","","","",""
0.0,0.10476706922054291,9.166011077520208e-05,"train",800.0,"2021-11-20 21:56:12.413914","","","","","","",""
0.0,0.09135755896568298,9.224914543552059e-05,"train",820.0,"2021-11-20 21:56:16.475854","","","","","","",""
0.0,0.11067099124193192,9.285259846722417e-05,"train",840.0,"2021-11-20 21:56:20.553055","","","","","","",""
0.0,0.09264001995325089,9.34704606898307e-05,"train",860.0,"2021-11-20 21:56:24.612744","","","","","","",""
0.0,0.11882737278938293,9.410272270364735e-05,"train",880.0,"2021-11-20 21:56:28.691291","","","","","","",""
0.0,0.09414858371019363,9.474937488991348e-05,"train",900.0,"2021-11-20 21:56:32.744502","","","","","","",""
0.0,0.08519066870212555,9.541040741094719e-05,"train",920.0,"2021-11-20 21:56:36.820242","","","","","","",""
0.0,0.09864190220832825,9.608581021029522e-05,"train",940.0,"2021-11-20 21:56:40.930404","","","","","","",""
0.0,0.088730588555336,9.677557301288509e-05,"train",960.0,"2021-11-20 21:56:45.055459","","","","","","",""
0.0,0.1132013276219368,9.747968532518238e-05,"train",980.0,"2021-11-20 21:56:49.270822","","","","","","",""
0.0,0.09657187759876251,9.819813643535029e-05,"train",1000.0,"2021-11-20 21:56:53.400495","","","","","","",""
0.0,0.08812908083200455,9.893091541341185e-05,"train",1020.0,"2021-11-20 21:56:57.581902","","","","","","",""
0.0,0.09796682000160217,9.967801111141644e-05,"train",1040.0,"2021-11-20 21:57:01.708196","","","","","","",""
0.0,0.10561446100473404,0.00010043941216361023,"train",1060.0,"2021-11-20 21:57:05.836920","","","","","","",""
0.0,"","","train",1074.0,"2021-11-20 21:58:57.066386",0.3878629120279415,0.20717215320079713,0.7740368584343705,0.24973716491415948,0.12680520186405728,0.1251449113350576,0.07979976213879728
0.0,"","","val",1074.0,"2021-11-20 21:59:25.580019",0.3877420851211875,0.20641786822730127,0.7749372133774668,0.24601677462371122,0.1271456623750334,0.12443989540165547,0.07982311100145481
1.0,0.08423405140638351,0.00010121510698660771,"train",1080.0,"2021-11-20 21:59:29.865013","","","","","","",""
1.0,0.10685016959905624,0.00010200508377956928,"train",1100.0,"2021-11-20 21:59:34.001638","","","","","","",""
1.0,0.08304403722286224,0.00010280933052437993,"train",1120.0,"2021-11-20 21:59:38.632614","","","","","","",""
1.0,0.1103767454624176,0.00010362783498583223,"train",1140.0,"2021-11-20 21:59:42.767204","","","","","","",""
1.0,0.0965888723731041,0.0001044605847118124,"train",1160.0,"2021-11-20 21:59:47.054587","","","","","","",""
1.0,0.09416680783033371,0.0001053075670334907,"train",1180.0,"2021-11-20 21:59:51.244740","","","","","","",""
1.0,0.08317412436008453,0.00010616876906551181,"train",1200.0,"2021-11-20 21:59:55.432635","","","","","","",""
1.0,0.10733247548341751,0.0001070441777061941,"train",1220.0,"2021-11-20 21:59:59.611753","","","","","","",""
1.0,0.09055299311876297,0.00010793377963772563,"train",1240.0,"2021-11-20 22:00:03.820983","","","","","","",""
1.0,0.07649368047714233,0.0001088375613263698,"train",1260.0,"2021-11-20 22:00:07.950205","","","","","","",""
1.0,0.08915149420499802,0.00010975550902266908,"train",1280.0,"2021-11-20 22:00:12.089849","","","","","","",""
1.0,0.08784601092338562,0.00011068760876165474,"train",1300.0,"2021-11-20 22:00:16.303752","","","","","","",""
1.0,0.0976884588599205,0.0001116338463630598,"train",1320.0,"2021-11-20 22:00:21.105315","","","","","","",""
1.0,0.09774039685726166,0.00011259420743153455,"train",1340.0,"2021-11-20 22:00:25.314378","","","","","","",""
1.0,0.09371621161699295,0.00011356867735686535,"train",1360.0,"2021-11-20 22:00:29.327455","","","","","","",""
1.0,0.11482903361320496,0.00011455724131419621,"train",1380.0,"2021-11-20 22:00:33.487060","","","","","","",""
1.0,0.09450538456439972,0.00011555988426425654,"train",1400.0,"2021-11-20 22:00:37.543410","","","","","","",""
1.0,0.07432495802640915,0.00011657659095358746,"train",1420.0,"2021-11-20 22:00:41.698232","","","","","","",""
1.0,0.0806170254945755,0.00011760734591477516,"train",1440.0,"2021-11-20 22:00:45.961273","","","","","","",""
1.0,0.09871059656143188,0.00011865213346668618,"train",1460.0,"2021-11-20 22:00:50.197259","","","","","","",""
1.0,0.074118971824646,0.00011971093771470502,"train",1480.0,"2021-11-20 22:00:54.464508","","","","","","",""
1.0,0.07855858653783798,0.0001207837425509777,"train",1500.0,"2021-11-20 22:00:58.785082","","","","","","",""
1.0,0.07453925907611847,0.00012187053165465503,"train",1520.0,"2021-11-20 22:01:03.684693","","","","","","",""
1.0,0.09453465044498444,0.000122971288492142,"train",1540.0,"2021-11-20 22:01:07.912461","","","","","","",""
1.0,0.08960606157779694,0.00012408599631734863,"train",1560.0,"2021-11-20 22:01:12.150317","","","","","","",""
1.0,0.0896172896027565,0.00012521463817194542,"train",1580.0,"2021-11-20 22:01:16.244397","","","","","","",""
1.0,0.09544510394334793,0.00012635719688562077,"train",1600.0,"2021-11-20 22:01:20.278378","","","","","","",""
1.0,0.08913729339838028,0.00012751365507634267,"train",1620.0,"2021-11-20 22:01:24.296654","","","","","","",""
1.0,0.06814494729042053,0.0001286839951506226,"train",1640.0,"2021-11-20 22:01:28.323812","","","","","","",""
1.0,0.08397411555051804,0.00012986819930378333,"train",1660.0,"2021-11-20 22:01:32.404469","","","","","","",""
1.0,0.09163512289524078,0.00013106624952023064,"train",1680.0,"2021-11-20 22:01:36.546144","","","","","","",""
1.0,0.09305572509765625,0.00013227812757372545,"train",1700.0,"2021-11-20 22:01:40.570145","","","","","","",""
1.0,0.10493847727775574,0.00013350381502766394,"train",1720.0,"2021-11-20 22:01:45.227547","","","","","","",""
1.0,0.06850097328424454,0.00013474329323535494,"train",1740.0,"2021-11-20 22:01:49.327436","","","","","","",""
1.0,0.10110188275575638,0.0001359965433403059,"train",1760.0,"2021-11-20 22:01:53.547897","","","","","","",""
1.0,0.07595889270305634,0.00013726354627650872,"train",1780.0,"2021-11-20 22:01:57.744100","","","","","","",""
1.0,0.07971225678920746,0.00013854428276873052,"train",1800.0,"2021-11-20 22:02:01.989434","","","","","","",""
1.0,0.097682885825634,0.00013983873333280506,"train",1820.0,"2021-11-20 22:02:06.157693","","","","","","",""
1.0,0.07435818016529083,0.00014114687827593156,"train",1840.0,"2021-11-20 22:02:10.327150","","","","","","",""
1.0,0.08394628018140793,0.00014246869769697352,"train",1860.0,"2021-11-20 22:02:14.458822","","","","","","",""
1.0,0.09227202832698822,0.00014380417148676054,"train",1880.0,"2021-11-20 22:02:18.566320","","","","","","",""
1.0,0.09461171925067902,0.00014515327932839404,"train",1900.0,"2021-11-20 22:02:22.674228","","","","","","",""
1.0,0.08413856476545334,0.0001465160006975598,"train",1920.0,"2021-11-20 22:02:27.418927","","","","","","",""
1.0,0.07259666919708252,0.00014789231486283454,"train",1940.0,"2021-11-20 22:02:31.573268","","","","","","",""
1.0,0.08458031713962555,0.00014928220088600633,"train",1960.0,"2021-11-20 22:02:35.761076","","","","","","",""
1.0,0.08107439428567886,0.00015068563762239045,"train",1980.0,"2021-11-20 22:02:39.949226","","","","","","",""
1.0,0.08588006347417831,0.00015210260372115238,"train",2000.0,"2021-11-20 22:02:44.104382","","","","","","",""
1.0,0.09465765208005905,0.00015353307762563115,"train",2020.0,"2021-11-20 22:02:48.348425","","","","","","",""
1.0,0.09895224124193192,0.00015497703757366872,"train",2040.0,"2021-11-20 22:02:52.555854","","","","","","",""
1.0,0.08531473577022552,0.00015643446159794,"train",2060.0,"2021-11-20 22:02:56.599139","","","","","","",""
1.0,0.08563974499702454,0.0001579053275262887,"train",2080.0,"2021-11-20 22:03:00.648430","","","","","","",""
1.0,0.08676716685295105,0.00015938961298206183,"train",2100.0,"2021-11-20 22:03:04.708892","","","","","","",""
1.0,0.09027798473834991,0.00016088729538445297,"train",2120.0,"2021-11-20 22:03:09.303877","","","","","","",""
1.0,0.08355126529932022,0.000162398351948844,"train",2140.0,"2021-11-20 22:03:13.443775","","","","","","",""
1.0,"","","train",2148.0,"2021-11-20 22:05:01.281032",0.4395837881103107,0.30098836615662394,0.8460642071417885,0.37894980358101565,0.1896881992961722,0.1839716379693624,0.1310183742652086
1.0,"","","val",2148.0,"2021-11-20 22:05:31.190260",0.43354980865128145,0.29517455704318013,0.844530897363344,0.3710500254890008,0.18668807740908633,0.1820210783399889,0.12721500748415993
2.0,0.10034439712762833,0.00016392275968715297,"train",2160.0,"2021-11-20 22:05:36.799469","","","","","","",""
2.0,0.08105587959289551,0.00016546049540818223,"train",2180.0,"2021-11-20 22:05:40.870184","","","","","","",""
2.0,0.07609623670578003,0.00016701153571797313,"train",2200.0,"2021-11-20 22:05:44.922834","","","","","","",""
2.0,0.08165979385375977,0.00016857585702016015,"train",2220.0,"2021-11-20 22:05:48.972419","","","","","","",""
2.0,0.0868249461054802,0.00017015343551633126,"train",2240.0,"2021-11-20 22:05:53.641276","","","","","","",""
2.0,0.07788915187120438,0.0001717442472063892,"train",2260.0,"2021-11-20 22:05:57.763794","","","","","","",""
2.0,0.10211413353681564,0.00017334826788891681,"train",2280.0,"2021-11-20 22:06:01.783587","","","","","","",""
2.0,0.07629788666963577,0.00017496547316154555,"train",2300.0,"2021-11-20 22:06:05.789932","","","","","","",""
2.0,0.08025995641946793,0.00017659583842132573,"train",2320.0,"2021-11-20 22:06:09.816700","","","","","","",""
2.0,0.09126666933298111,0.00017823933886510217,"train",2340.0,"2021-11-20 22:06:14.368341","","","","","","",""
2.0,0.08702738583087921,0.00017989594948989015,"train",2360.0,"2021-11-20 22:06:18.472595","","","","","","",""
2.0,0.09968379884958267,0.00018156564509325753,"train",2380.0,"2021-11-20 22:06:22.534383","","","","","","",""
2.0,0.0789763554930687,0.0001832484002737059,"train",2400.0,"2021-11-20 22:06:26.682551","","","","","","",""
2.0,0.06809010356664658,0.00018494418943105877,"train",2420.0,"2021-11-20 22:06:30.867876","","","","","","",""
2.0,0.06655094027519226,0.00018665298676685078,"train",2440.0,"2021-11-20 22:06:35.583742","","","","","","",""
2.0,0.09496990591287613,0.0001883747662847191,"train",2460.0,"2021-11-20 22:06:39.836528","","","","","","",""
2.0,0.09082889556884766,0.00019010950179080112,"train",2480.0,"2021-11-20 22:06:44.023146","","","","","","",""
2.0,0.10562528669834137,0.00019185716689412995,"train",2500.0,"2021-11-20 22:06:48.249584","","","","","","",""
2.0,0.08620496094226837,0.00019361773500703797,"train",2520.0,"2021-11-20 22:06:52.323803","","","","","","",""
2.0,0.09405136108398438,0.00019539117934556168,"train",2540.0,"2021-11-20 22:06:56.955602","","","","","","",""
2.0,0.06464847177267075,0.00019717747292984696,"train",2560.0,"2021-11-20 22:07:01.017906","","","","","","",""
2.0,0.06815136224031448,0.0001989765885845624,"train",2580.0,"2021-11-20 22:07:05.075285","","","","","","",""
2.0,0.07589339464902878,0.00020078849893931014,"train",2600.0,"2021-11-20 22:07:09.153390","","","","","","",""
2.0,0.07163814455270767,0.0002026131764290434,"train",2620.0,"2021-11-20 22:07:13.222186","","","","","","",""
2.0,0.09598016738891602,0.00020445059329448614,"train",2640.0,"2021-11-20 22:07:17.838541","","","","","","",""
2.0,0.08049462735652924,0.00020630072158255497,"train",2660.0,"2021-11-20 22:07:22.003669","","","","","","",""
2.0,0.08391722291707993,0.00020816353314678467,"train",2680.0,"2021-11-20 22:07:26.137409","","","","","","",""
2.0,0.09132550656795502,0.00021003899964775505,"train",2700.0,"2021-11-20 22:07:30.230425","","","","","","",""
2.0,0.06833767145872116,0.00021192709255352473,"train",2720.0,"2021-11-20 22:07:34.219942","","","","","","",""
2.0,0.07170890271663666,0.00021382778314006255,"train",2740.0,"2021-11-20 22:07:38.224955","","","","","","",""
2.0,0.06528554856777191,0.00021574104249168615,"train",2760.0,"2021-11-20 22:07:42.855768","","","","","","",""
2.0,0.08199850469827652,0.00021766684150150133,"train",2780.0,"2021-11-20 22:07:46.928649","","","","","","",""
2.0,0.06546874344348907,0.00021960515087184485,"train",2800.0,"2021-11-20 22:07:51.022913","","","","","","",""
2.0,0.08692989498376846,0.00022155594111472978,"train",2820.0,"2021-11-20 22:07:55.078181","","","","","","",""
2.0,0.08950817584991455,0.0002235191825522959,"train",2840.0,"2021-11-20 22:07:59.174546","","","","","","",""
2.0,0.07373112440109253,0.00022549484531725838,"train",2860.0,"2021-11-20 22:08:03.812156","","","","","","",""
2.0,0.09417805075645447,0.00022748289935336434,"train",2880.0,"2021-11-20 22:08:07.854763","","","","","","",""
2.0,0.08208779245615005,0.00022948331441584964,"train",2900.0,"2021-11-20 22:08:11.888615","","","","","","",""
2.0,0.08468995243310928,0.00023149606007189785,"train",2920.0,"2021-11-20 22:08:15.943789","","","","","","",""
2.0,0.06335530430078506,0.00023352110570110476,"train",2940.0,"2021-11-20 22:08:19.964141","","","","","","",""
2.0,0.06457729637622833,0.00023555842049594305,"train",2960.0,"2021-11-20 22:08:24.599522","","","","","","",""
2.0,0.10923674702644348,0.00023760797346223305,"train",2980.0,"2021-11-20 22:08:28.657678","","","","","","",""
2.0,0.09396958351135254,0.00023966973341961028,"train",3000.0,"2021-11-20 22:08:32.755826","","","","","","",""
2.0,0.0767369493842125,0.0002417436690020044,"train",3020.0,"2021-11-20 22:08:36.771589","","","","","","",""
2.0,0.07092593610286713,0.00024382974865811325,"train",3040.0,"2021-11-20 22:08:40.828461","","","","","","",""
2.0,0.06205657124519348,0.000245927940651884,"train",3060.0,"2021-11-20 22:08:45.445603","","","","","","",""
2.0,0.0917719304561615,0.0002480382130629953,"train",3080.0,"2021-11-20 22:08:49.494047","","","","","","",""
2.0,0.08405841886997223,0.0002501605337873443,"train",3100.0,"2021-11-20 22:08:53.549416","","","","","","",""
2.0,0.07098764926195145,0.0002522948705375337,"train",3120.0,"2021-11-20 22:08:57.639618","","","","","","",""
2.0,0.10218384116888046,0.00025444119084336303,"train",3140.0,"2021-11-20 22:09:01.731455","","","","","","",""
2.0,0.07789965718984604,0.00025659946205232364,"train",3160.0,"2021-11-20 22:09:06.420695","","","","","","",""
2.0,0.08529216796159744,0.0002587696513300941,"train",3180.0,"2021-11-20 22:09:10.630021","","","","","","",""
2.0,0.07530786097049713,0.0002609517256610412,"train",3200.0,"2021-11-20 22:09:14.669351","","","","","","",""
2.0,0.06324456632137299,0.00026314565184872084,"train",3220.0,"2021-11-20 22:09:18.645385","","","","","","",""
2.0,"","","train",3222.0,"2021-11-20 22:11:05.652506",0.4763734264716583,0.3773833205208307,0.8753040082178617,0.445812594486929,0.28130085828109447,0.2804433410872003,0.18614588447515049
2.0,"","","val",3222.0,"2021-11-20 22:11:34.642776",0.47205149020062626,0.3722119213393897,0.8731171251466557,0.4384780960994236,0.27853542564861383,0.27694012306048676,0.18200338527018195
3.0,0.06631173193454742,0.0002653513965163838,"train",3240.0,"2021-11-20 22:11:41.432986","","","","","","",""
3.0,0.06042151525616646,0.0002675689261074836,"train",3260.0,"2021-11-20 22:11:46.176183","","","","","","",""
3.0,0.06391841173171997,0.00026979820688618605,"train",3280.0,"2021-11-20 22:11:50.342175","","","","","","",""
3.0,0.09463690966367722,0.00027203920493788433,"train",3300.0,"2021-11-20 22:11:54.555984","","","","","","",""
3.0,0.09704262018203735,0.00027429188616971277,"train",3320.0,"2021-11-20 22:11:59.336723","","","","","","",""
3.0,0.07103513926267624,0.0002765562163110668,"train",3340.0,"2021-11-20 22:12:03.535779","","","","","","",""
3.0,0.07459104806184769,0.00027883216091412503,"train",3360.0,"2021-11-20 22:12:07.794695","","","","","","",""
3.0,0.08394765108823776,0.0002811196853543707,"train",3380.0,"2021-11-20 22:12:12.009501","","","","","","",""
3.0,0.08004599064588547,0.00028341875483112134,"train",3400.0,"2021-11-20 22:12:16.636950","","","","","","",""
3.0,0.0771261677145958,0.00028572933436805644,"train",3420.0,"2021-11-20 22:12:20.855512","","","","","","",""
3.0,0.07131512463092804,0.0002880513888137504,"train",3440.0,"2021-11-20 22:12:25.082925","","","","","","",""
3.0,0.07294904440641403,0.0002903848828422063,"train",3460.0,"2021-11-20 22:12:29.719431","","","","","","",""
3.0,0.07268241792917252,0.00029272978095339465,"train",3480.0,"2021-11-20 22:12:33.776916","","","","","","",""
3.0,0.05618901923298836,0.00029508604747379243,"train",3500.0,"2021-11-20 22:12:37.853886","","","","","","",""
3.0,0.059027574956417084,0.00029745364655692653,"train",3520.0,"2021-11-20 22:12:41.910642","","","","","","",""
3.0,0.08459986746311188,0.0002998325421839181,"train",3540.0,"2021-11-20 22:12:46.476908","","","","","","",""
3.0,0.06804076582193375,0.0003022226981640318,"train",3560.0,"2021-11-20 22:12:50.544638","","","","","","",""
3.0,0.06837151944637299,0.00030462407813522494,"train",3580.0,"2021-11-20 22:12:54.609813","","","","","","",""
3.0,0.09124772995710373,0.0003070366455647027,"train",3600.0,"2021-11-20 22:12:59.243372","","","","","","",""
3.0,0.07774084061384201,0.000309460363749471,"train",3620.0,"2021-11-20 22:13:03.279471","","","","","","",""
3.0,0.04631207883358002,0.0003118951958168978,"train",3640.0,"2021-11-20 22:13:07.331006","","","","","","",""
3.0,0.07612299174070358,0.0003143411047252722,"train",3660.0,"2021-11-20 22:13:11.462864","","","","","","",""
3.0,0.0708630308508873,0.0003167980532643691,"train",3680.0,"2021-11-20 22:13:16.098296","","","","","","",""
3.0,0.07637282460927963,0.0003192660040560141,"train",3700.0,"2021-11-20 22:13:20.170439","","","","","","",""
3.0,0.0680687204003334,0.0003217449195546528,"train",3720.0,"2021-11-20 22:13:24.242661","","","","","","",""
3.0,0.06869648396968842,0.00032423476204792244,"train",3740.0,"2021-11-20 22:13:28.933400","","","","","","",""
3.0,0.0748865082859993,0.0003267354936572248,"train",3760.0,"2021-11-20 22:13:33.178778","","","","","","",""
3.0,0.09465489536523819,0.0003292470763383026,"train",3780.0,"2021-11-20 22:13:37.329206","","","","","","",""
3.0,0.057264383882284164,0.0003317694718818192,"train",3800.0,"2021-11-20 22:13:41.486745","","","","","","",""
3.0,0.0803249254822731,0.00033430264191393853,"train",3820.0,"2021-11-20 22:13:46.143063","","","","","","",""
3.0,0.06760315597057343,0.0003368465478969097,"train",3840.0,"2021-11-20 22:13:50.267717","","","","","","",""
3.0,0.06999426335096359,0.0003394011511296533,"train",3860.0,"2021-11-20 22:13:54.411981","","","","","","",""
3.0,0.06780530512332916,0.0003419664127483496,"train",3880.0,"2021-11-20 22:13:59.126886","","","","","","",""
3.0,0.09346061944961548,0.00034454229372703074,"train",3900.0,"2021-11-20 22:14:03.356561","","","","","","",""
3.0,0.05949654430150986,0.00034712875487817314,"train",3920.0,"2021-11-20 22:14:07.550499","","","","","","",""
3.0,0.05880674347281456,0.00034972575685329526,"train",3940.0,"2021-11-20 22:14:11.692324","","","","","","",""
3.0,0.07242806255817413,0.0003523332601435541,"train",3960.0,"2021-11-20 22:14:16.375016","","","","","","",""
3.0,0.05700613558292389,0.00035495122508034916,"train",3980.0,"2021-11-20 22:14:20.572360","","","","","","",""
3.0,0.05873321741819382,0.0003575796118359231,"train",4000.0,"2021-11-20 22:14:24.644947","","","","","","",""
3.0,0.06196335703134537,0.00036021838042396906,"train",4020.0,"2021-11-20 22:14:29.280374","","","","","","",""
3.0,0.0612713061273098,0.0003628674907002389,"train",4040.0,"2021-11-20 22:14:33.491734","","","","","","",""
3.0,0.07567469030618668,0.00036552690236315395,"train",4060.0,"2021-11-20 22:14:37.664543","","","","","","",""
3.0,0.064906544983387,0.00036819657495441773,"train",4080.0,"2021-11-20 22:14:41.803889","","","","","","",""
3.0,0.07921566814184189,0.0003708764678596317,"train",4100.0,"2021-11-20 22:14:46.510225","","","","","","",""
3.0,0.07003812491893768,0.00037356654030891293,"train",4120.0,"2021-11-20 22:14:50.839970","","","","","","",""
3.0,0.07245427370071411,0.0003762667513775148,"train",4140.0,"2021-11-20 22:14:54.985892","","","","","","",""
3.0,0.062049515545368195,0.0003789770599864498,"train",4160.0,"2021-11-20 22:14:59.631186","","","","","","",""
3.0,0.074383944272995,0.000381697424903113,"train",4180.0,"2021-11-20 22:15:03.857767","","","","","","",""
3.0,0.0821387991309166,0.0003844278047419108,"train",4200.0,"2021-11-20 22:15:08.055938","","","","","","",""
3.0,0.058966685086488724,0.0003871681579648903,"train",4220.0,"2021-11-20 22:15:12.197626","","","","","","",""
3.0,0.07362306118011475,0.0003899184428823709,"train",4240.0,"2021-11-20 22:15:16.857765","","","","","","",""
3.0,0.07573102414608002,0.0003926786176535783,"train",4260.0,"2021-11-20 22:15:20.952853","","","","","","",""
3.0,0.05900799110531807,0.0003954486402872818,"train",4280.0,"2021-11-20 22:15:25.013725","","","","","","",""
3.0,"","","train",4296.0,"2021-11-20 22:17:18.108748",0.5139634723131776,0.44489364206552917,0.9023090886206446,0.49929799911845935,0.343999740655538,0.34453915254664313,0.2308686482471695
3.0,"","","val",4296.0,"2021-11-20 22:17:46.585779",0.5087556534848661,0.43269276621683633,0.8979200952605507,0.4910273043735281,0.3375241721379817,0.33536604415994753,0.224297518119904
4.0,0.08780433982610703,0.0003982284686424324,"train",4300.0,"2021-11-20 22:17:50.457003","","","","","","",""
4.0,0.06950882822275162,0.0004010180604288045,"train",4320.0,"2021-11-20 22:17:54.539109","","","","","","",""
4.0,0.04378129914402962,0.00040381737320763873,"train",4340.0,"2021-11-20 22:17:58.736429","","","","","","",""
4.0,0.07069789618253708,0.0004066263643922878,"train",4360.0,"2021-11-20 22:18:03.580462","","","","","","",""
4.0,0.08572274446487427,0.0004094449912488646,"train",4380.0,"2021-11-20 22:18:07.756263","","","","","","",""
4.0,0.06427864730358124,0.0004122732108968923,"train",4400.0,"2021-11-20 22:18:11.869485","","","","","","",""
4.0,0.06431510299444199,0.0004151109803099558,"train",4420.0,"2021-11-20 22:18:16.456287","","","","","","",""
4.0,0.061669591814279556,0.00041795825631635764,"train",4440.0,"2021-11-20 22:18:20.563539","","","","","","",""
4.0,0.06118477135896683,0.0004208149955997739,"train",4460.0,"2021-11-20 22:18:24.739809","","","","","","",""
4.0,0.05713462084531784,0.0004236811546999141,"train",4480.0,"2021-11-20 22:18:29.443164","","","","","","",""
4.0,0.050421882420778275,0.0004265566900131805,"train",4500.0,"2021-11-20 22:18:33.538923","","","","","","",""
4.0,0.06612569093704224,0.0004294415577933337,"train",4520.0,"2021-11-20 22:18:37.628886","","","","","","",""
4.0,0.06018107756972313,0.00043233571415215717,"train",4540.0,"2021-11-20 22:18:42.213613","","","","","","",""
4.0,0.06586475670337677,0.0004352391150601242,"train",4560.0,"2021-11-20 22:18:46.328116","","","","","","",""
4.0,0.06231892481446266,0.0004381517163470684,"train",4580.0,"2021-11-20 22:18:50.454614","","","","","","",""
4.0,0.05954473093152046,0.00044107347370285683,"train",4600.0,"2021-11-20 22:18:55.041368","","","","","","",""
4.0,0.07651777565479279,0.00044400434267806194,"train",4620.0,"2021-11-20 22:18:59.112544","","","","","","",""
4.0,0.07946666330099106,0.00044694427868463907,"train",4640.0,"2021-11-20 22:19:03.210532","","","","","","",""
4.0,0.05803536996245384,0.00044989323699660467,"train",4660.0,"2021-11-20 22:19:07.969975","","","","","","",""
4.0,0.11101187765598297,0.0004528511727507165,"train",4680.0,"2021-11-20 22:19:12.157979","","","","","","",""
4.0,0.09141518175601959,0.00045581804094715645,"train",4700.0,"2021-11-20 22:19:16.209156","","","","","","",""
4.0,0.07511477917432785,0.00045879379645021425,"train",4720.0,"2021-11-20 22:19:20.851792","","","","","","",""
4.0,0.07265116274356842,0.0004617783939889759,"train",4740.0,"2021-11-20 22:19:25.118237","","","","","","",""
4.0,0.09871342033147812,0.0004647717881580103,"train",4760.0,"2021-11-20 22:19:29.302506","","","","","","",""
4.0,0.05837143585085869,0.0004677739334180617,"train",4780.0,"2021-11-20 22:19:34.037994","","","","","","",""
4.0,0.055991873145103455,0.00047078478409674144,"train",4800.0,"2021-11-20 22:19:38.183576","","","","","","",""
4.0,0.05203751474618912,0.00047380429438922305,"train",4820.0,"2021-11-20 22:19:42.329242","","","","","","",""
4.0,0.07661338895559311,0.00047683241835893946,"train",4840.0,"2021-11-20 22:19:46.949643","","","","","","",""
4.0,0.0714993104338646,0.0004798691099382815,"train",4860.0,"2021-11-20 22:19:51.074558","","","","","","",""
4.0,0.06185224652290344,0.0004829143229292986,"train",4880.0,"2021-11-20 22:19:55.260623","","","","","","",""
4.0,0.07786545902490616,0.0004859680110044023,"train",4900.0,"2021-11-20 22:20:00.031966","","","","","","",""
4.0,0.050688955932855606,0.0004890301277070699,"train",4920.0,"2021-11-20 22:20:04.238216","","","","","","",""
4.0,0.07046721130609512,0.0004921006264525525,"train",4940.0,"2021-11-20 22:20:08.256136","","","","","","",""
4.0,0.08310847729444504,0.0004951794605285824,"train",4960.0,"2021-11-20 22:20:12.921161","","","","","","",""
4.0,0.06559418141841888,0.0004982665830960853,"train",4980.0,"2021-11-20 22:20:16.999064","","","","","","",""
4.0,0.08607063442468643,0.0005013619471898913,"train",5000.0,"2021-11-20 22:20:21.071783","","","","","","",""
4.0,0.05865497142076492,0.0005044655057194504,"train",5020.0,"2021-11-20 22:20:25.671037","","","","","","",""
4.0,0.05388958379626274,0.0005075772114695486,"train",5040.0,"2021-11-20 22:20:29.734853","","","","","","",""
4.0,0.06730357557535172,0.0005106970171010257,"train",5060.0,"2021-11-20 22:20:33.825762","","","","","","",""
4.0,0.06323319673538208,0.0005138248751514966,"train",5080.0,"2021-11-20 22:20:38.470237","","","","","","",""
4.0,0.058341119438409805,0.0005169607380360731,"train",5100.0,"2021-11-20 22:20:42.633123","","","","","","",""
4.0,0.09517330676317215,0.000520104558048086,"train",5120.0,"2021-11-20 22:20:46.804548","","","","","","",""
4.0,0.05799558013677597,0.0005232562873598136,"train",5140.0,"2021-11-20 22:20:51.647683","","","","","","",""
4.0,0.0873478576540947,0.0005264158780232072,"train",5160.0,"2021-11-20 22:20:55.799231","","","","","","",""
4.0,0.09405570477247238,0.0005295832819706228,"train",5180.0,"2021-11-20 22:20:59.944921","","","","","","",""
4.0,0.0645235925912857,0.0005327584510155488,"train",5200.0,"2021-11-20 22:21:04.610952","","","","","","",""
4.0,0.05598157271742821,0.000535941336853343,"train",5220.0,"2021-11-20 22:21:08.809005","","","","","","",""
4.0,0.08427181839942932,0.0005391318910619655,"train",5240.0,"2021-11-20 22:21:13.025316","","","","","","",""
4.0,0.06600406020879745,0.0005423300651027144,"train",5260.0,"2021-11-20 22:21:17.772896","","","","","","",""
4.0,0.06213100254535675,0.0005455358103209663,"train",5280.0,"2021-11-20 22:21:21.903376","","","","","","",""
4.0,0.04839669167995453,0.0005487490779469157,"train",5300.0,"2021-11-20 22:21:25.947210","","","","","","",""
4.0,0.09846367686986923,0.000551969819096316,"train",5320.0,"2021-11-20 22:21:30.584380","","","","","","",""
4.0,0.05759896710515022,0.0005551979847712252,"train",5340.0,"2021-11-20 22:21:34.797468","","","","","","",""
4.0,0.07822033017873764,0.0005584335258607489,"train",5360.0,"2021-11-20 22:21:39.013058","","","","","","",""
4.0,"","","train",5370.0,"2021-11-20 22:23:30.483740",0.5375536636833297,0.48185886913133774,0.9197985442796901,0.5067484018001359,0.3599448242952921,0.3657242750231516,0.2428544828643626
4.0,"","","val",5370.0,"2021-11-20 22:23:58.639486",0.5326452510727125,0.46568025138600244,0.9115567406632573,0.49531124788789105,0.3507950864765005,0.3532946642628766,0.23427560622051719
5.0,0.053288329392671585,0.0005616763931417894,"train",5380.0,"2021-11-20 22:24:04.262161","","","","","","",""
5.0,0.05128445103764534,0.0005649265372797939,"train",5400.0,"2021-11-20 22:24:08.364906","","","","","","",""
5.0,0.06197948753833771,0.0005681839088295046,"train",5420.0,"2021-11-20 22:24:12.453477","","","","","","",""
5.0,0.05489300936460495,0.0005714484582357109,"train",5440.0,"2021-11-20 22:24:17.013240","","","","","","",""
5.0,0.04961869493126869,0.0005747201358340048,"train",5460.0,"2021-11-20 22:24:21.097531","","","","","","",""
5.0,0.04806328937411308,0.0005779988918515344,"train",5480.0,"2021-11-20 22:24:25.710939","","","","","","",""
5.0,0.09217774122953415,0.0005812846764077623,"train",5500.0,"2021-11-20 22:24:29.887026","","","","","","",""
5.0,0.061883676797151566,0.0005845774395152243,"train",5520.0,"2021-11-20 22:24:34.439876","","","","","","",""
5.0,0.06692085415124893,0.0005878771310802895,"train",5540.0,"2021-11-20 22:24:38.507478","","","","","","",""
5.0,0.05818463861942291,0.0005911837009039229,"train",5560.0,"2021-11-20 22:24:42.570722","","","","","","",""
5.0,0.04053239896893501,0.0005944970986824485,"train",5580.0,"2021-11-20 22:24:47.172006","","","","","","",""
5.0,0.05889185518026352,0.000597817274008315,"train",5600.0,"2021-11-20 22:24:51.249181","","","","","","",""
5.0,0.05543089285492897,0.0006011441763708635,"train",5620.0,"2021-11-20 22:24:55.899865","","","","","","",""
5.0,0.05864362791180611,0.0006044777551570929,"train",5640.0,"2021-11-20 22:24:59.991852","","","","","","",""
5.0,0.07080293446779251,0.000607817959652434,"train",5660.0,"2021-11-20 22:25:04.601198","","","","","","",""
5.0,0.06894241273403168,0.0006111647390415189,"train",5680.0,"2021-11-20 22:25:08.691378","","","","","","",""
5.0,0.06351974606513977,0.0006145180424089525,"train",5700.0,"2021-11-20 22:25:12.812241","","","","","","",""
5.0,0.050990499556064606,0.0006178778187400902,"train",5720.0,"2021-11-20 22:25:17.563774","","","","","","",""
5.0,0.06906608492136002,0.0006212440169218129,"train",5740.0,"2021-11-20 22:25:21.789402","","","","","","",""
5.0,0.07252456992864609,0.0006246165857433027,"train",5760.0,"2021-11-20 22:25:26.415654","","","","","","",""
5.0,0.0690624937415123,0.0006279954738968251,"train",5780.0,"2021-11-20 22:25:30.528240","","","","","","",""
5.0,0.05321761593222618,0.0006313806299785075,"train",5800.0,"2021-11-20 22:25:35.149250","","","","","","",""
5.0,0.07400102913379669,0.0006347720024891209,"train",5820.0,"2021-11-20 22:25:39.275063","","","","","","",""
5.0,0.06774364411830902,0.0006381695398348657,"train",5840.0,"2021-11-20 22:25:43.425983","","","","","","",""
5.0,0.06183674931526184,0.0006415731903281542,"train",5860.0,"2021-11-20 22:25:48.157096","","","","","","",""
5.0,0.06588584929704666,0.0006449829021883979,"train",5880.0,"2021-11-20 22:25:52.269182","","","","","","",""
5.0,0.06213626265525818,0.0006483986235427956,"train",5900.0,"2021-11-20 22:25:57.009322","","","","","","",""
5.0,0.08091378211975098,0.0006518203024271213,"train",5920.0,"2021-11-20 22:26:01.266469","","","","","","",""
5.0,0.05392858758568764,0.0006552478867865169,"train",5940.0,"2021-11-20 22:26:05.988628","","","","","","",""
5.0,0.055854424834251404,0.0006586813244762815,"train",5960.0,"2021-11-20 22:26:10.098852","","","","","","",""
5.0,0.043155524879693985,0.0006621205632626672,"train",5980.0,"2021-11-20 22:26:14.155777","","","","","","",""
5.0,0.09161077439785004,0.0006655655508236717,"train",6000.0,"2021-11-20 22:26:18.956878","","","","","","",""
5.0,0.07926619052886963,0.0006690162347498356,"train",6020.0,"2021-11-20 22:26:23.155979","","","","","","",""
5.0,0.045279450714588165,0.0006724725625450389,"train",6040.0,"2021-11-20 22:26:27.828263","","","","","","",""
5.0,0.07955353707075119,0.0006759344816273003,"train",6060.0,"2021-11-20 22:26:31.929834","","","","","","",""
5.0,0.057621683925390244,0.0006794019393295771,"train",6080.0,"2021-11-20 22:26:36.499206","","","","","","",""
5.0,0.060009755194187164,0.0006828748829005654,"train",6100.0,"2021-11-20 22:26:40.538273","","","","","","",""
5.0,0.08324269205331802,0.0006863532595055041,"train",6120.0,"2021-11-20 22:26:44.566160","","","","","","",""
5.0,0.05757225677371025,0.0006898370162269777,"train",6140.0,"2021-11-20 22:26:49.176122","","","","","","",""
5.0,0.05493280664086342,0.0006933261000657217,"train",6160.0,"2021-11-20 22:26:53.308825","","","","","","",""
5.0,0.07692752778530121,0.000696820457941429,"train",6180.0,"2021-11-20 22:26:57.946211","","","","","","",""
5.0,0.060363899916410446,0.000700320036693557,"train",6200.0,"2021-11-20 22:27:02.058774","","","","","","",""
5.0,0.07148495316505432,0.0007038247830821358,"train",6220.0,"2021-11-20 22:27:06.201014","","","","","","",""
5.0,0.0510796420276165,0.0007073346437885815,"train",6240.0,"2021-11-20 22:27:10.801271","","","","","","",""
5.0,0.0497712604701519,0.000710849565416502,"train",6260.0,"2021-11-20 22:27:14.928734","","","","","","",""
5.0,0.09428784996271133,0.0007143694944925134,"train",6280.0,"2021-11-20 22:27:19.475160","","","","","","",""
5.0,0.06805403530597687,0.0007178943774670524,"train",6300.0,"2021-11-20 22:27:23.524869","","","","","","",""
5.0,0.07213716953992844,0.0007214241607151901,"train",6320.0,"2021-11-20 22:27:28.194540","","","","","","",""
5.0,0.06021736562252045,0.000724958790537449,"train",6340.0,"2021-11-20 22:27:32.332725","","","","","","",""
5.0,0.06205938756465912,0.0007284982131606195,"train",6360.0,"2021-11-20 22:27:36.454866","","","","","","",""
5.0,0.06263965368270874,0.0007320423747385781,"train",6380.0,"2021-11-20 22:27:41.175034","","","","","","",""
5.0,0.075269415974617,0.0007355912213531054,"train",6400.0,"2021-11-20 22:27:45.454714","","","","","","",""
5.0,0.09358081221580505,0.000739144699014708,"train",6420.0,"2021-11-20 22:27:50.017500","","","","","","",""
5.0,0.05905831977725029,0.0007427027536634401,"train",6440.0,"2021-11-20 22:27:54.159372","","","","","","",""
5.0,"","","train",6444.0,"2021-11-20 22:29:39.754025",0.5500109146474569,0.5047698007429224,0.9222441009757707,0.5373113343617335,0.3705942710034366,0.37785284865292124,0.255661340920889
5.0,"","","val",6444.0,"2021-11-20 22:30:08.359477",0.5419227646990606,0.48303282487027865,0.9136542148539787,0.5229297349116454,0.3579552491244701,0.3627872639726804,0.2418491474280815
6.0,0.0840749740600586,0.0007462653311697235,"train",6460.0,"2021-11-20 22:30:15.370563","","","","","","",""
6.0,0.07146888226270676,0.0007498323773351733,"train",6480.0,"2021-11-20 22:30:19.468089","","","","","","",""
6.0,0.0667940005660057,0.0007534038378934223,"train",6500.0,"2021-11-20 22:30:24.006043","","","","","","",""
6.0,0.05349821224808693,0.0007569796585109453,"train",6520.0,"2021-11-20 22:30:28.165021","","","","","","",""
6.0,0.0414690263569355,0.0007605597847878862,"train",6540.0,"2021-11-20 22:30:32.297604","","","","","","",""
6.0,0.07378542423248291,0.0007641441622588871,"train",6560.0,"2021-11-20 22:30:37.023701","","","","","","",""
6.0,0.09707061201334,0.0007677327363939143,"train",6580.0,"2021-11-20 22:30:41.130783","","","","","","",""
6.0,0.059075530618429184,0.0007713254525990895,"train",6600.0,"2021-11-20 22:30:45.821356","","","","","","",""
6.0,0.06147953122854233,0.0007749222562175211,"train",6620.0,"2021-11-20 22:30:49.950408","","","","","","",""
6.0,0.06262193620204926,0.000778523092530133,"train",6640.0,"2021-11-20 22:30:54.653471","","","","","","",""
6.0,0.05483414605259895,0.0007821279067564996,"train",6660.0,"2021-11-20 22:30:58.768442","","","","","","",""
6.0,0.04317469894886017,0.0007857366440556786,"train",6680.0,"2021-11-20 22:31:03.304815","","","","","","",""
6.0,0.05166285112500191,0.0007893492495270442,"train",6700.0,"2021-11-20 22:31:07.374760","","","","","","",""
6.0,0.07977023720741272,0.0007929656682111239,"train",6720.0,"2021-11-20 22:31:11.971217","","","","","","",""
6.0,0.07192381471395493,0.0007965858450904332,"train",6740.0,"2021-11-20 22:31:16.203923","","","","","","",""
6.0,0.06079522520303726,0.000800209725090314,"train",6760.0,"2021-11-20 22:31:20.923864","","","","","","",""
6.0,0.06369812041521072,0.0008038372530797706,"train",6780.0,"2021-11-20 22:31:25.152220","","","","","","",""
6.0,0.06236657872796059,0.0008074683738723109,"train",6800.0,"2021-11-20 22:31:29.860052","","","","","","",""
6.0,0.06640489399433136,0.0008111030322267832,"train",6820.0,"2021-11-20 22:31:34.117893","","","","","","",""
6.0,0.05141128972172737,0.0008147411728482187,"train",6840.0,"2021-11-20 22:31:38.259530","","","","","","",""
6.0,0.07514788955450058,0.0008183827403886721,"train",6860.0,"2021-11-20 22:31:42.877989","","","","","","",""
6.0,0.060282353311777115,0.0008220276794480633,"train",6880.0,"2021-11-20 22:31:46.995381","","","","","","",""
6.0,0.07742098718881607,0.0008256759345750203,"train",6900.0,"2021-11-20 22:31:51.718355","","","","","","",""
6.0,0.05999385565519333,0.0008293274502677234,"train",6920.0,"2021-11-20 22:31:55.837810","","","","","","",""
6.0,0.07912889122962952,0.0008329821709747486,"train",6940.0,"2021-11-20 22:32:00.413833","","","","","","",""
6.0,0.056492406874895096,0.0008366400410959136,"train",6960.0,"2021-11-20 22:32:04.462875","","","","","","",""
6.0,0.05859866738319397,0.000840301004983123,"train",6980.0,"2021-11-20 22:32:09.105615","","","","","","",""
6.0,0.07617325335741043,0.0008439650069412147,"train",7000.0,"2021-11-20 22:32:13.149686","","","","","","",""
6.0,0.051981497555971146,0.0008476319912288095,"train",7020.0,"2021-11-20 22:32:17.680854","","","","","","",""
6.0,0.05887361615896225,0.0008513019020591544,"train",7040.0,"2021-11-20 22:32:21.804846","","","","","","",""
6.0,0.0578945055603981,0.0008549746836009771,"train",7060.0,"2021-11-20 22:32:26.384090","","","","","","",""
6.0,0.0812702551484108,0.0008586502799793306,"train",7080.0,"2021-11-20 22:32:30.433703","","","","","","",""
6.0,0.06663328409194946,0.0008623286352764453,"train",7100.0,"2021-11-20 22:32:35.015098","","","","","","",""
6.0,0.049865949898958206,0.0008660096935325802,"train",7120.0,"2021-11-20 22:32:39.098209","","","","","","",""
6.0,0.039593882858753204,0.0008696933987468731,"train",7140.0,"2021-11-20 22:32:43.177087","","","","","","",""
6.0,0.052202917635440826,0.0008733796948781924,"train",7160.0,"2021-11-20 22:32:47.826419","","","","","","",""
6.0,0.0528881661593914,0.0008770685258459915,"train",7180.0,"2021-11-20 22:32:51.894846","","","","","","",""
6.0,0.05098487064242363,0.0008807598355311595,"train",7200.0,"2021-11-20 22:32:56.527906","","","","","","",""
6.0,0.0842791274189949,0.0008844535677768764,"train",7220.0,"2021-11-20 22:33:00.631785","","","","","","",""
6.0,0.05218967795372009,0.0008881496663894681,"train",7240.0,"2021-11-20 22:33:05.180856","","","","","","",""
6.0,0.05666586384177208,0.0008918480751392592,"train",7260.0,"2021-11-20 22:33:09.258551","","","","","","",""
6.0,0.07083296030759811,0.00089554873776143,"train",7280.0,"2021-11-20 22:33:13.912167","","","","","","",""
6.0,0.054578229784965515,0.0008992515979568724,"train",7300.0,"2021-11-20 22:33:18.092263","","","","","","",""
6.0,0.0574161596596241,0.0009029565993930457,"train",7320.0,"2021-11-20 22:33:22.838256","","","","","","",""
6.0,0.08499273657798767,0.0009066636857048339,"train",7340.0,"2021-11-20 22:33:26.977996","","","","","","",""
6.0,0.07517022639513016,0.0009103728004954039,"train",7360.0,"2021-11-20 22:33:31.568633","","","","","","",""
6.0,0.042599868029356,0.0009140838873370617,"train",7380.0,"2021-11-20 22:33:35.593265","","","","","","",""
6.0,0.044943418353796005,0.0009177968897721136,"train",7400.0,"2021-11-20 22:33:39.685238","","","","","","",""
6.0,0.06812697649002075,0.0009215117513137218,"train",7420.0,"2021-11-20 22:33:44.204328","","","","","","",""
6.0,0.08046741038560867,0.0009252284154467663,"train",7440.0,"2021-11-20 22:33:48.375709","","","","","","",""
6.0,0.052408963441848755,0.0009289468256287042,"train",7460.0,"2021-11-20 22:33:53.116157","","","","","","",""
6.0,0.05724625661969185,0.0009326669252904287,"train",7480.0,"2021-11-20 22:33:57.203820","","","","","","",""
6.0,0.05874798446893692,0.0009363886578371307,"train",7500.0,"2021-11-20 22:34:01.911622","","","","","","",""
6.0,"","","train",7518.0,"2021-11-20 22:35:51.371135",0.5801062359019137,0.5389409905799665,0.9340924257901183,0.5751613814975284,0.44450735756949206,0.45159745109707256,0.30382537375964436
6.0,"","","val",7518.0,"2021-11-20 22:36:19.531200",0.5661022845877305,0.5140181176973344,0.9269637324125756,0.5557736920201423,0.42967825252054326,0.4352341737829822,0.28749695248607937
7.0,0.06058131530880928,0.0009401119666491604,"train",7520.0,"2021-11-20 22:36:22.940337","","","","","","",""
7.0,0.0682617798447609,0.0009438367950828869,"train",7540.0,"2021-11-20 22:36:27.699552","","","","","","",""
7.0,0.07773283869028091,0.000947563086471561,"train",7560.0,"2021-11-20 22:36:31.777748","","","","","","",""
7.0,0.05807974189519882,0.0009512907841261783,"train",7580.0,"2021-11-20 22:36:36.331300","","","","","","",""
7.0,0.05576099827885628,0.0009550198313363391,"train",7600.0,"2021-11-20 22:36:40.424593","","","","","","",""
7.0,0.0740799829363823,0.0009587501713711128,"train",7620.0,"2021-11-20 22:36:45.083593","","","","","","",""
7.0,0.07354036718606949,0.0009624817474799023,"train",7640.0,"2021-11-20 22:36:49.153806","","","","","","",""
7.0,0.0744534507393837,0.0009662145028933038,"train",7660.0,"2021-11-20 22:36:53.729217","","","","","","",""
7.0,0.057739824056625366,0.0009699483808239733,"train",7680.0,"2021-11-20 22:36:57.802003","","","","","","",""
7.0,0.07892216742038727,0.0009736833244674895,"train",7700.0,"2021-11-20 22:37:02.381149","","","","","","",""
7.0,0.06534329056739807,0.0009774192770032192,"train",7720.0,"2021-11-20 22:37:06.437867","","","","","","",""
7.0,0.05165783315896988,0.0009811561815951785,"train",7740.0,"2021-11-20 22:37:11.033209","","","","","","",""
7.0,0.04075457528233528,0.0009848939813929015,"train",7760.0,"2021-11-20 22:37:15.025173","","","","","","",""
7.0,0.06824930757284164,0.0009886326195323026,"train",7780.0,"2021-11-20 22:37:19.578722","","","","","","",""
7.0,0.04919910430908203,0.0009923720391365428,"train",7800.0,"2021-11-20 22:37:24.141682","","","","","","",""
7.0,0.0469367690384388,0.000996112183316893,"train",7820.0,"2021-11-20 22:37:28.226040","","","","","","",""
7.0,0.09566549211740494,0.0009998529951736029,"train",7840.0,"2021-11-20 22:37:32.778632","","","","","","",""
7.0,0.07064361870288849,0.0010035944177967638,"train",7860.0,"2021-11-20 22:37:36.818554","","","","","","",""
7.0,0.05283169820904732,0.0010073363942671744,"train",7880.0,"2021-11-20 22:37:41.496936","","","","","","",""
7.0,0.04119737073779106,0.0010110788676572094,"train",7900.0,"2021-11-20 22:37:45.622431","","","","","","",""
7.0,0.04001767188310623,0.0010148217810316822,"train",7920.0,"2021-11-20 22:37:50.225564","","","","","","",""
7.0,0.05668899789452553,0.0010185650774487127,"train",7940.0,"2021-11-20 22:37:54.329384","","","","","","",""
7.0,0.07431872934103012,0.0010223086999605951,"train",7960.0,"2021-11-20 22:37:58.870922","","","","","","",""
7.0,0.07990472763776779,0.0010260525916146609,"train",7980.0,"2021-11-20 22:38:02.952521","","","","","","",""
7.0,0.06080426275730133,0.0010297966954541469,"train",8000.0,"2021-11-20 22:38:07.589932","","","","","","",""
7.0,0.08498559147119522,0.001033540954519064,"train",8020.0,"2021-11-20 22:38:11.742137","","","","","","",""
7.0,0.04819211736321449,0.0010372853118470592,"train",8040.0,"2021-11-20 22:38:16.454163","","","","","","",""
7.0,0.05972618982195854,0.0010410297104742857,"train",8060.0,"2021-11-20 22:38:20.585741","","","","","","",""
7.0,0.06346475332975388,0.0010447740934362692,"train",8080.0,"2021-11-20 22:38:25.193068","","","","","","",""
7.0,0.07852860540151596,0.0010485184037687715,"train",8100.0,"2021-11-20 22:38:29.263624","","","","","","",""
7.0,0.0642743930220604,0.0010522625845086615,"train",8120.0,"2021-11-20 22:38:33.909903","","","","","","",""
7.0,0.0684332400560379,0.0010560065786947796,"train",8140.0,"2021-11-20 22:38:38.110402","","","","","","",""
7.0,0.04524923488497734,0.0010597503293688013,"train",8160.0,"2021-11-20 22:38:42.669844","","","","","","",""
7.0,0.08195339888334274,0.001063493779576111,"train",8180.0,"2021-11-20 22:38:46.785497","","","","","","",""
7.0,0.06136343255639076,0.0010672368723666614,"train",8200.0,"2021-11-20 22:38:51.305801","","","","","","",""
7.0,0.0654011070728302,0.0010709795507958426,"train",8220.0,"2021-11-20 22:38:55.352709","","","","","","",""
7.0,0.06859689950942993,0.0010747217579253504,"train",8240.0,"2021-11-20 22:38:59.972958","","","","","","",""
7.0,0.07729241997003555,0.0010784634368240487,"train",8260.0,"2021-11-20 22:39:04.625524","","","","","","",""
7.0,0.06404371559619904,0.0010822045305688382,"train",8280.0,"2021-11-20 22:39:08.744078","","","","","","",""
7.0,0.06531143188476562,0.0010859449822455227,"train",8300.0,"2021-11-20 22:39:13.394132","","","","","","",""
7.0,0.08465901017189026,0.001089684734949672,"train",8320.0,"2021-11-20 22:39:17.574555","","","","","","",""
7.0,0.04536043852567673,0.00109342373178749,"train",8340.0,"2021-11-20 22:39:22.157556","","","","","","",""
7.0,0.0873011127114296,0.0010971619158766821,"train",8360.0,"2021-11-20 22:39:26.280679","","","","","","",""
7.0,0.0443987138569355,0.0011008992303473152,"train",8380.0,"2021-11-20 22:39:30.818056","","","","","","",""
7.0,0.047205228358507156,0.001104635618342687,"train",8400.0,"2021-11-20 22:39:34.837128","","","","","","",""
7.0,0.05967530980706215,0.001108371023020191,"train",8420.0,"2021-11-20 22:39:39.405537","","","","","","",""
7.0,0.0474926233291626,0.0011121053875521787,"train",8440.0,"2021-11-20 22:39:43.462360","","","","","","",""
7.0,0.07860226184129715,0.0011158386551268257,"train",8460.0,"2021-11-20 22:39:48.094156","","","","","","",""
7.0,0.08594018965959549,0.0011195707689489972,"train",8480.0,"2021-11-20 22:39:52.121619","","","","","","",""
7.0,0.06399191915988922,0.0011233016722411097,"train",8500.0,"2021-11-20 22:39:56.875644","","","","","","",""
7.0,0.054253727197647095,0.0011270313082439951,"train",8520.0,"2021-11-20 22:40:01.168028","","","","","","",""
7.0,0.055821336805820465,0.001130759620217767,"train",8540.0,"2021-11-20 22:40:05.853280","","","","","","",""
7.0,0.06657083332538605,0.0011344865514426794,"train",8560.0,"2021-11-20 22:40:09.936620","","","","","","",""
7.0,0.07603488117456436,0.0011382120452199938,"train",8580.0,"2021-11-20 22:40:14.620926","","","","","","",""
7.0,"","","train",8592.0,"2021-11-20 22:42:08.483524",0.5832205486429455,0.5683937653203427,0.9415540796503389,0.5879044212899163,0.45417678599101663,0.46459818363749245,0.30942581801990665
7.0,"","","val",8592.0,"2021-11-20 22:42:38.089588",0.569233445436623,0.5373950717737566,0.9333467195485675,0.56855984305842,0.4335014927804163,0.4430526360090314,0.2900295519810614
8.0,0.0745348334312439,0.001141936044872839,"train",8600.0,"2021-11-20 22:42:42.808101","","","","","","",""
8.0,0.05870448425412178,0.0011456584937470744,"train",8620.0,"2021-11-20 22:42:47.058025","","","","","","",""
8.0,0.05551457777619362,0.0011493793352121522,"train",8640.0,"2021-11-20 22:42:51.252555","","","","","","",""
8.0,0.06378189474344254,0.0011530985126619784,"train",8660.0,"2021-11-20 22:42:55.410520","","","","","","",""
8.0,0.06333816051483154,0.001156815969515773,"train",8680.0,"2021-11-20 22:42:59.551172","","","","","","",""
8.0,0.05107240751385689,0.001160531649218934,"train",8700.0,"2021-11-20 22:43:03.667522","","","","","","",""
8.0,0.06138218566775322,0.001164245495243894,"train",8720.0,"2021-11-20 22:43:08.418833","","","","","","",""
8.0,0.052723731845617294,0.0011679574510909817,"train",8740.0,"2021-11-20 22:43:12.604355","","","","","","",""
8.0,0.08226674050092697,0.0011716674602892828,"train",8760.0,"2021-11-20 22:43:16.855221","","","","","","",""
8.0,0.0710669606924057,0.0011753754663974968,"train",8780.0,"2021-11-20 22:43:21.124574","","","","","","",""
8.0,0.05214136466383934,0.0011790814130047968,"train",8800.0,"2021-11-20 22:43:25.268338","","","","","","",""
8.0,0.051507603377103806,0.001182785243731688,"train",8820.0,"2021-11-20 22:43:29.390830","","","","","","",""
8.0,0.09279629588127136,0.0011864869022308656,"train",8840.0,"2021-11-20 22:43:33.500220","","","","","","",""
8.0,0.07708115130662918,0.0011901863321880693,"train",8860.0,"2021-11-20 22:43:37.586487","","","","","","",""
8.0,0.0646132379770279,0.001193883477322945,"train",8880.0,"2021-11-20 22:43:41.689834","","","","","","",""
8.0,0.06810212135314941,0.0011975782813898961,"train",8900.0,"2021-11-20 22:43:45.734033","","","","","","",""
8.0,0.07040674239397049,0.0012012706881789417,"train",8920.0,"2021-11-20 22:43:49.765676","","","","","","",""
8.0,0.05057026445865631,0.001204960641516572,"train",8940.0,"2021-11-20 22:43:53.736351","","","","","","",""
8.0,0.06250204890966415,0.0012086480852666014,"train",8960.0,"2021-11-20 22:43:57.737670","","","","","","",""
8.0,0.08211654424667358,0.0012123329633310235,"train",8980.0,"2021-11-20 22:44:01.836746","","","","","","",""
8.0,0.07977627962827682,0.0012160152196508643,"train",9000.0,"2021-11-20 22:44:05.929801","","","","","","",""
8.0,0.054491933435201645,0.0012196947982070355,"train",9020.0,"2021-11-20 22:44:10.027721","","","","","","",""
8.0,0.05768953263759613,0.0012233716430211856,"train",9040.0,"2021-11-20 22:44:14.183291","","","","","","",""
8.0,0.05331472307443619,0.001227045698156553,"train",9060.0,"2021-11-20 22:44:18.298171","","","","","","",""
8.0,0.056644272059202194,0.0012307169077188148,"train",9080.0,"2021-11-20 22:44:22.419057","","","","","","",""
8.0,0.05223774164915085,0.0012343852158569401,"train",9100.0,"2021-11-20 22:44:27.069427","","","","","","",""
8.0,0.04262930899858475,0.0012380505667640377,"train",9120.0,"2021-11-20 22:44:31.132496","","","","","","",""
8.0,0.06709393858909607,0.0012417129046782046,"train",9140.0,"2021-11-20 22:44:35.217025","","","","","","",""
8.0,0.06657912582159042,0.0012453721738833758,"train",9160.0,"2021-11-20 22:44:39.373082","","","","","","",""
8.0,0.06383052468299866,0.001249028318710172,"train",9180.0,"2021-11-20 22:44:43.676533","","","","","","",""
8.0,0.058100905269384384,0.0012526812835367447,"train",9200.0,"2021-11-20 22:44:47.945253","","","","","","",""
8.0,0.047406453639268875,0.0012563310127896242,"train",9220.0,"2021-11-20 22:44:52.117059","","","","","","",""
8.0,0.06595001369714737,0.0012599774509445645,"train",9240.0,"2021-11-20 22:44:56.369388","","","","","","",""
8.0,0.058672722429037094,0.0012636205425273874,"train",9260.0,"2021-11-20 22:45:00.598193","","","","","","",""
8.0,0.09113059192895889,0.0012672602321148268,"train",9280.0,"2021-11-20 22:45:04.875064","","","","","","",""
8.0,0.04216185212135315,0.0012708964643353732,"train",9300.0,"2021-11-20 22:45:09.091201","","","","","","",""
8.0,0.05351005867123604,0.001274529183870114,"train",9320.0,"2021-11-20 22:45:13.289269","","","","","","",""
8.0,0.050868526101112366,0.0012781583354535748,"train",9340.0,"2021-11-20 22:45:17.520555","","","","","","",""
8.0,0.06878199428319931,0.0012817838638745646,"train",9360.0,"2021-11-20 22:45:21.765877","","","","","","",""
8.0,0.08089744299650192,0.001285405713977009,"train",9380.0,"2021-11-20 22:45:26.025624","","","","","","",""
8.0,0.07226425409317017,0.0012890238306607947,"train",9400.0,"2021-11-20 22:45:30.166649","","","","","","",""
8.0,0.046344585716724396,0.001292638158882606,"train",9420.0,"2021-11-20 22:45:34.212099","","","","","","",""
8.0,0.035212013870477676,0.0012962486436567603,"train",9440.0,"2021-11-20 22:45:38.280239","","","","","","",""
8.0,0.0654570683836937,0.0012998552300560484,"train",9460.0,"2021-11-20 22:45:42.302315","","","","","","",""
8.0,0.06999827176332474,0.0013034578632125668,"train",9480.0,"2021-11-20 22:45:46.398478","","","","","","",""
8.0,0.05024300515651703,0.0013070564883185534,"train",9500.0,"2021-11-20 22:45:51.138688","","","","","","",""
8.0,0.0635572075843811,0.001310651050627223,"train",9520.0,"2021-11-20 22:45:55.258817","","","","","","",""
8.0,0.04954110458493233,0.001314241495453598,"train",9540.0,"2021-11-20 22:45:59.442753","","","","","","",""
8.0,0.06018677353858948,0.00131782776817534,"train",9560.0,"2021-11-20 22:46:03.653700","","","","","","",""
8.0,0.057620637118816376,0.0013214098142335837,"train",9580.0,"2021-11-20 22:46:07.757853","","","","","","",""
8.0,0.05309580639004707,0.001324987579133764,"train",9600.0,"2021-11-20 22:46:11.871989","","","","","","",""
8.0,0.07650144398212433,0.0013285610084464463,"train",9620.0,"2021-11-20 22:46:15.959332","","","","","","",""
8.0,0.06172650679945946,0.001332130047808155,"train",9640.0,"2021-11-20 22:46:20.005252","","","","","","",""
8.0,0.04650748521089554,0.001335694642922199,"train",9660.0,"2021-11-20 22:46:24.071323","","","","","","",""
8.0,"","","train",9666.0,"2021-11-20 22:48:10.591130",0.5924325110965583,0.5852195360063256,0.9444979239016694,0.6270389079800257,0.4867707972461603,0.506489324988064,0.3326841371659596
8.0,"","","val",9666.0,"2021-11-20 22:48:39.984408",0.5756117360547374,0.5532662321144352,0.9339042847726444,0.6041796719989174,0.4621704403381048,0.48076591209501457,0.309953284730446
9.0,0.04596242681145668,0.0013392547395594985,"train",9680.0,"2021-11-20 22:48:45.925394","","","","","","",""
9.0,0.07010017335414886,0.001342810283559412,"train",9700.0,"2021-11-20 22:48:50.138757","","","","","","",""
9.0,0.07978013902902603,0.0013463612208305564,"train",9720.0,"2021-11-20 22:48:54.317711","","","","","","",""
9.0,0.07627036422491074,0.0013499074973516321,"train",9740.0,"2021-11-20 22:48:58.532834","","","","","","",""
9.0,0.05528175085783005,0.0013534490591722464,"train",9760.0,"2021-11-20 22:49:02.711436","","","","","","",""
9.0,0.05312398821115494,0.0013569858524137305,"train",9780.0,"2021-11-20 22:49:07.502023","","","","","","",""
9.0,0.053217027336359024,0.001360517823269962,"train",9800.0,"2021-11-20 22:49:11.621086","","","","","","",""
9.0,0.06303749233484268,0.0013640449180081834,"train",9820.0,"2021-11-20 22:49:15.816244","","","","","","",""
9.0,0.0820317268371582,0.0013675670829698173,"train",9840.0,"2021-11-20 22:49:20.085804","","","","","","",""
9.0,0.08329587429761887,0.0013710842645712853,"train",9860.0,"2021-11-20 22:49:24.120350","","","","","","",""
9.0,0.07146818935871124,0.0013745964093048219,"train",9880.0,"2021-11-20 22:49:28.135420","","","","","","",""
9.0,0.07160215079784393,0.0013781034637392886,"train",9900.0,"2021-11-20 22:49:32.176501","","","","","","",""
9.0,0.06316563487052917,0.0013816053745209864,"train",9920.0,"2021-11-20 22:49:36.253486","","","","","","",""
9.0,0.0501963272690773,0.0013851020883744697,"train",9940.0,"2021-11-20 22:49:40.490834","","","","","","",""
9.0,0.06554488837718964,0.001388593552103353,"train",9960.0,"2021-11-20 22:49:44.678599","","","","","","",""
9.0,0.08057453483343124,0.0013920797125911233,"train",9980.0,"2021-11-20 22:49:49.305563","","","","","","",""
9.0,0.07281734049320221,0.001395560516801947,"train",10000.0,"2021-11-20 22:49:53.352976","","","","","","",""
9.0,0.05783611908555031,0.0013990359117814774,"train",10020.0,"2021-11-20 22:49:57.397398","","","","","","",""
9.0,0.06897628307342529,0.0014025058446576583,"train",10040.0,"2021-11-20 22:50:01.435502","","","","","","",""
9.0,0.06835834681987762,0.0014059702626415317,"train",10060.0,"2021-11-20 22:50:05.410026","","","","","","",""
9.0,0.060061462223529816,0.0014094291130280377,"train",10080.0,"2021-11-20 22:50:09.291883","","","","","","",""
9.0,0.045221395790576935,0.0014128823431968183,"train",10100.0,"2021-11-20 22:50:13.253166","","","","","","",""
9.0,0.04963989183306694,0.001416329900613017,"train",10120.0,"2021-11-20 22:50:17.194618","","","","","","",""
9.0,0.06758459657430649,0.0014197717328280782,"train",10140.0,"2021-11-20 22:50:21.208731","","","","","","",""
9.0,0.059672556817531586,0.0014232077874805457,"train",10160.0,"2021-11-20 22:50:25.339157","","","","","","",""
9.0,0.05451050028204918,0.0014266380122968589,"train",10180.0,"2021-11-20 22:50:29.949957","","","","","","",""
9.0,0.05461520701646805,0.0014300623550921468,"train",10200.0,"2021-11-20 22:50:34.075524","","","","","","",""
9.0,0.07347895950078964,0.0014334807637710243,"train",10220.0,"2021-11-20 22:50:38.208397","","","","","","",""
9.0,0.07123415917158127,0.0014368931863283831,"train",10240.0,"2021-11-20 22:50:42.324243","","","","","","",""
9.0,0.05349140241742134,0.0014402995708501826,"train",10260.0,"2021-11-20 22:50:46.528197","","","","","","",""
9.0,0.05305696278810501,0.0014436998655142422,"train",10280.0,"2021-11-20 22:50:50.771147","","","","","","",""
9.0,0.046767883002758026,0.0014470940185910258,"train",10300.0,"2021-11-20 22:50:55.020958","","","","","","",""
9.0,0.06278540194034576,0.001450481978444431,"train",10320.0,"2021-11-20 22:50:59.268555","","","","","","",""
9.0,0.04910755902528763,0.0014538636935325763,"train",10340.0,"2021-11-20 22:51:03.481054","","","","","","",""
9.0,0.052248187363147736,0.0014572391124085817,"train",10360.0,"2021-11-20 22:51:07.518087","","","","","","",""
9.0,0.07791879028081894,0.0014606081837213525,"train",10380.0,"2021-11-20 22:51:12.145672","","","","","","",""
9.0,0.04170525074005127,0.0014639708562163639,"train",10400.0,"2021-11-20 22:51:16.230158","","","","","","",""
9.0,0.057343415915966034,0.001467327078736435,"train",10420.0,"2021-11-20 22:51:20.342113","","","","","","",""
9.0,0.06033632531762123,0.0014706768002225108,"train",10440.0,"2021-11-20 22:51:24.527479","","","","","","",""
9.0,0.043203577399253845,0.0014740199697144392,"train",10460.0,"2021-11-20 22:51:28.603399","","","","","","",""
9.0,0.10321512818336487,0.0014773565363517442,"train",10480.0,"2021-11-20 22:51:32.687242","","","","","","",""
9.0,0.050362441688776016,0.0014806864493744007,"train",10500.0,"2021-11-20 22:51:36.795015","","","","","","",""
9.0,0.05283014848828316,0.0014840096581236072,"train",10520.0,"2021-11-20 22:51:40.929896","","","","","","",""
9.0,0.0712360292673111,0.001487326112042556,"train",10540.0,"2021-11-20 22:51:45.038917","","","","","","",""
9.0,0.04116930440068245,0.0014906357606772013,"train",10560.0,"2021-11-20 22:51:49.115343","","","","","","",""
9.0,0.059462498873472214,0.0014939385536770291,"train",10580.0,"2021-11-20 22:51:53.790840","","","","","","",""
9.0,0.05203842744231224,0.0014972344407958218,"train",10600.0,"2021-11-20 22:51:57.904576","","","","","","",""
9.0,0.06667561829090118,0.0015005233718924213,"train",10620.0,"2021-11-20 22:52:01.979244","","","","","","",""
9.0,0.06257583200931549,0.0015038052969314946,"train",10640.0,"2021-11-20 22:52:06.067574","","","","","","",""
9.0,0.0565388947725296,0.0015070801659842939,"train",10660.0,"2021-11-20 22:52:10.171529","","","","","","",""
9.0,0.04333851486444473,0.001510347929229414,"train",10680.0,"2021-11-20 22:52:14.261019","","","","","","",""
9.0,0.07736175507307053,0.0015136085369535537,"train",10700.0,"2021-11-20 22:52:18.327968","","","","","","",""
9.0,0.0421854667365551,0.0015168619395522708,"train",10720.0,"2021-11-20 22:52:22.417470","","","","","","",""
9.0,0.06435320526361465,0.0015201080875307349,"train",10740.0,"2021-11-20 22:52:26.506850","","","","","","",""
9.0,"","","train",10740.0,"2021-11-20 22:54:11.901632",0.5929273084479372,0.5833255851732707,0.9406140625098021,0.6219810925050506,0.482581602008355,0.5062682791354445,0.324284226780282
9.0,"","","val",10740.0,"2021-11-20 22:54:40.618337",0.5705091035602459,0.5442016943213891,0.9268309899922293,0.5929523081925875,0.4555800585319542,0.47237921139847017,0.3011457996484003
10.0,0.054190535098314285,0.0015233469315044834,"train",10760.0,"2021-11-20 22:54:48.308617","","","","","","",""
10.0,0.06084864214062691,0.0015265784222001709,"train",10780.0,"2021-11-20 22:54:52.373604","","","","","","",""
10.0,0.07216399908065796,0.0015298025104563185,"train",10800.0,"2021-11-20 22:54:56.493237","","","","","","",""
10.0,0.051560450345277786,0.001533019147224064,"train",10820.0,"2021-11-20 22:55:00.564786","","","","","","",""
10.0,0.03435828164219856,0.0015362282835679054,"train",10840.0,"2021-11-20 22:55:04.695116","","","","","","",""
10.0,0.06703927367925644,0.0015394298706664469,"train",10860.0,"2021-11-20 22:55:09.400962","","","","","","",""
10.0,0.053089555352926254,0.001542623859813141,"train",10880.0,"2021-11-20 22:55:13.607994","","","","","","",""
10.0,0.04560799151659012,0.00154581020241703,"train",10900.0,"2021-11-20 22:55:17.666579","","","","","","",""
10.0,0.06243174150586128,0.0015489888500034858,"train",10920.0,"2021-11-20 22:55:21.708434","","","","","","",""
10.0,0.07377469539642334,0.0015521597542149444,"train",10940.0,"2021-11-20 22:55:25.842347","","","","","","",""
10.0,0.06050023064017296,0.0015553228668116455,"train",10960.0,"2021-11-20 22:55:30.522847","","","","","","",""
10.0,0.055656250566244125,0.0015584781396723642,"train",10980.0,"2021-11-20 22:55:34.715440","","","","","","",""
10.0,0.06110164895653725,0.0015616255247951432,"train",11000.0,"2021-11-20 22:55:38.911635","","","","","","",""
10.0,0.04547407850623131,0.0015647649742980233,"train",11020.0,"2021-11-20 22:55:43.075037","","","","","","",""
10.0,0.07930301129817963,0.0015678964404197727,"train",11040.0,"2021-11-20 22:55:47.245727","","","","","","",""
10.0,0.06510337442159653,0.0015710198755206112,"train",11060.0,"2021-11-20 22:55:51.823349","","","","","","",""
10.0,0.07957547158002853,0.0015741352320829379,"train",11080.0,"2021-11-20 22:55:55.899296","","","","","","",""
10.0,0.05647577717900276,0.0015772424627120527,"train",11100.0,"2021-11-20 22:55:59.966317","","","","","","",""
10.0,0.06820164620876312,0.0015803415201368761,"train",11120.0,"2021-11-20 22:56:04.167884","","","","","","",""
10.0,0.04297320917248726,0.001583432357210671,"train",11140.0,"2021-11-20 22:56:08.293475","","","","","","",""
10.0,0.056251417845487595,0.001586514926911758,"train",11160.0,"2021-11-20 22:56:12.409649","","","","","","",""
10.0,0.04717065021395683,0.0015895891823442313,"train",11180.0,"2021-11-20 22:56:17.019407","","","","","","",""
10.0,0.06005038321018219,0.0015926550767386717,"train",11200.0,"2021-11-20 22:56:21.131514","","","","","","",""
10.0,0.058173131197690964,0.0015957125634528599,"train",11220.0,"2021-11-20 22:56:25.280755","","","","","","",""
10.0,0.08234800398349762,0.0015987615959724836,"train",11240.0,"2021-11-20 22:56:29.416657","","","","","","",""
10.0,0.05017765983939171,0.0016018021279118457,"train",11260.0,"2021-11-20 22:56:33.643875","","","","","","",""
10.0,0.07466286420822144,0.0016048341130145728,"train",11280.0,"2021-11-20 22:56:38.393918","","","","","","",""
10.0,0.042576491832733154,0.0016078575051543145,"train",11300.0,"2021-11-20 22:56:42.592052","","","","","","",""
10.0,0.05566077306866646,0.0016108722583354478,"train",11320.0,"2021-11-20 22:56:46.757583","","","","","","",""
10.0,0.05190175399184227,0.0016138783266937777,"train",11340.0,"2021-11-20 22:56:50.829626","","","","","","",""
10.0,0.048391807824373245,0.0016168756644972322,"train",11360.0,"2021-11-20 22:56:54.856146","","","","","","",""
10.0,0.07516241073608398,0.0016198642261465587,"train",11380.0,"2021-11-20 22:56:59.386165","","","","","","",""
10.0,0.05821411684155464,0.0016228439661760208,"train",11400.0,"2021-11-20 22:57:03.422343","","","","","","",""
10.0,0.044038623571395874,0.001625814839254086,"train",11420.0,"2021-11-20 22:57:07.445287","","","","","","",""
10.0,0.052119504660367966,0.0016287768001841164,"train",11440.0,"2021-11-20 22:57:11.481943","","","","","","",""
10.0,0.07260344922542572,0.001631729803905059,"train",11460.0,"2021-11-20 22:57:15.681018","","","","","","",""
10.0,0.06823092699050903,0.0016346738054921273,"train",11480.0,"2021-11-20 22:57:20.227501","","","","","","",""
10.0,0.06707777827978134,0.001637608760157486,"train",11500.0,"2021-11-20 22:57:24.297067","","","","","","",""
10.0,0.05423229560256004,0.0016405346232509356,"train",11520.0,"2021-11-20 22:57:28.391454","","","","","","",""
10.0,0.04656049236655235,0.0016434513502605861,"train",11540.0,"2021-11-20 22:57:32.513250","","","","","","",""
10.0,0.05195310711860657,0.0016463588968135383,"train",11560.0,"2021-11-20 22:57:36.643843","","","","","","",""
10.0,0.035932376980781555,0.0016492572186765577,"train",11580.0,"2021-11-20 22:57:41.283374","","","","","","",""
10.0,0.05821701139211655,0.001652146271756747,"train",11600.0,"2021-11-20 22:57:45.428255","","","","","","",""
10.0,0.04887615516781807,0.0016550260121022172,"train",11620.0,"2021-11-20 22:57:49.507131","","","","","","",""
10.0,0.07571592926979065,0.0016578963959027562,"train",11640.0,"2021-11-20 22:57:53.656338","","","","","","",""
10.0,0.07400255650281906,0.001660757379490496,"train",11660.0,"2021-11-20 22:57:57.875967","","","","","","",""
10.0,0.06792682409286499,0.0016636089193405761,"train",11680.0,"2021-11-20 22:58:02.652217","","","","","","",""
10.0,0.04450934752821922,0.0016664509720718049,"train",11700.0,"2021-11-20 22:58:06.801723","","","","","","",""
10.0,0.06017997860908508,0.0016692834944473224,"train",11720.0,"2021-11-20 22:58:10.927984","","","","","","",""
10.0,0.05254589766263962,0.0016721064433752554,"train",11740.0,"2021-11-20 22:58:14.989173","","","","","","",""
10.0,0.062055181711912155,0.0016749197759093734,"train",11760.0,"2021-11-20 22:58:19.110517","","","","","","",""
10.0,0.06880531460046768,0.0016777234492497436,"train",11780.0,"2021-11-20 22:58:23.287656","","","","","","",""
10.0,0.05493360385298729,0.0016805174207433808,"train",11800.0,"2021-11-20 22:58:27.953896","","","","","","",""
10.0,"","","train",11814.0,"2021-11-20 23:00:16.803185",0.6010769118824129,0.6013117642667181,0.946748388249004,0.5934676487408772,0.485715946458567,0.5002519231736549,0.33115841641307625
10.0,"","","val",11814.0,"2021-11-20 23:00:45.359858",0.5870346747071785,0.5645175533249659,0.9369557242497292,0.5732205132538096,0.46894804742788654,0.4788637437339552,0.31502910310078114
11.0,0.04853161796927452,0.0016833016478848956,"train",11820.0,"2021-11-20 23:00:49.594684","","","","","","",""
11.0,0.06482751667499542,0.0016860760883171426,"train",11840.0,"2021-11-20 23:00:53.768053","","","","","","",""
11.0,0.052717581391334534,0.001688840699831864,"train",11860.0,"2021-11-20 23:00:57.813580","","","","","","",""
11.0,0.047617509961128235,0.0016915954403703313,"train",11880.0,"2021-11-20 23:01:02.539775","","","","","","",""
11.0,0.05888765677809715,0.0016943402680239862,"train",11900.0,"2021-11-20 23:01:06.684568","","","","","","",""
11.0,0.05019957944750786,0.0016970751410350774,"train",11920.0,"2021-11-20 23:01:10.865820","","","","","","",""
11.0,0.07020264863967896,0.001699800017797296,"train",11940.0,"2021-11-20 23:01:15.199018","","","","","","",""
11.0,0.03798661753535271,0.0017025148568564086,"train",11960.0,"2021-11-20 23:01:19.832329","","","","","","",""
11.0,0.052846722304821014,0.001705219616910888,"train",11980.0,"2021-11-20 23:01:23.948532","","","","","","",""
11.0,0.07745926827192307,0.001707914256812541,"train",12000.0,"2021-11-20 23:01:28.002927","","","","","","",""
11.0,0.06756943464279175,0.0017105987355671352,"train",12020.0,"2021-11-20 23:01:32.079926","","","","","","",""
11.0,0.04898839071393013,0.0017132730123350227,"train",12040.0,"2021-11-20 23:01:36.644935","","","","","","",""
11.0,0.05050136521458626,0.00171593704643176,"train",12060.0,"2021-11-20 23:01:40.751047","","","","","","",""
11.0,0.04425801336765289,0.0017185907973287285,"train",12080.0,"2021-11-20 23:01:44.877756","","","","","","",""
11.0,0.08302300423383713,0.0017212342246537506,"train",12100.0,"2021-11-20 23:01:48.929867","","","","","","",""
11.0,0.07587018609046936,0.0017238672881917032,"train",12120.0,"2021-11-20 23:01:53.587273","","","","","","",""
11.0,0.05871891602873802,0.001726489947885131,"train",12140.0,"2021-11-20 23:01:57.677356","","","","","","",""
11.0,0.055163946002721786,0.0017291021638348543,"train",12160.0,"2021-11-20 23:02:01.749517","","","","","","",""
11.0,0.04170462116599083,0.0017317038963005765,"train",12180.0,"2021-11-20 23:02:05.880261","","","","","","",""
11.0,0.08526014536619186,0.00173429510570149,"train",12200.0,"2021-11-20 23:02:10.013190","","","","","","",""
11.0,0.05852209031581879,0.0017368757526168759,"train",12220.0,"2021-11-20 23:02:14.571688","","","","","","",""
11.0,0.06049709394574165,0.0017394457977867057,"train",12240.0,"2021-11-20 23:02:18.647085","","","","","","",""
11.0,0.05070031061768532,0.0017420052021122378,"train",12260.0,"2021-11-20 23:02:22.754750","","","","","","",""
11.0,0.07708962261676788,0.0017445539266566128,"train",12280.0,"2021-11-20 23:02:26.891989","","","","","","",""
11.0,0.06037101149559021,0.001747091932645445,"train",12300.0,"2021-11-20 23:02:31.732665","","","","","","",""
11.0,0.0651654452085495,0.0017496191814674125,"train",12320.0,"2021-11-20 23:02:35.914732","","","","","","",""
11.0,0.04172799363732338,0.001752135634674846,"train",12340.0,"2021-11-20 23:02:40.000799","","","","","","",""
11.0,0.09238502383232117,0.0017546412539843118,"train",12360.0,"2021-11-20 23:02:44.087721","","","","","","",""
11.0,0.05939718708395958,0.001757136001277194,"train",12380.0,"2021-11-20 23:02:48.826632","","","","","","",""
11.0,0.05490488559007645,0.001759619838600278,"train",12400.0,"2021-11-20 23:02:52.984331","","","","","","",""
11.0,0.04923175647854805,0.0017620927281663229,"train",12420.0,"2021-11-20 23:02:57.092380","","","","","","",""
11.0,0.07498955726623535,0.0017645546323546398,"train",12440.0,"2021-11-20 23:03:01.178061","","","","","","",""
11.0,0.06235247477889061,0.0017670055137116636,"train",12460.0,"2021-11-20 23:03:05.836732","","","","","","",""
11.0,0.046321310102939606,0.0017694453349515209,"train",12480.0,"2021-11-20 23:03:10.016783","","","","","","",""
11.0,0.039151642471551895,0.0017718740589566,"train",12500.0,"2021-11-20 23:03:14.174000","","","","","","",""
11.0,0.040790725499391556,0.0017742916487781134,"train",12520.0,"2021-11-20 23:03:18.328396","","","","","","",""
11.0,0.044726818799972534,0.0017766980676366608,"train",12540.0,"2021-11-20 23:03:23.023109","","","","","","",""
11.0,0.042442865669727325,0.001779093278922789,"train",12560.0,"2021-11-20 23:03:27.193003","","","","","","",""
11.0,0.05417801812291145,0.001781477246197548,"train",12580.0,"2021-11-20 23:03:31.421427","","","","","","",""
11.0,0.056297753006219864,0.0017838499331930462,"train",12600.0,"2021-11-20 23:03:35.529568","","","","","","",""
11.0,0.055732037872076035,0.001786211303813001,"train",12620.0,"2021-11-20 23:03:40.132391","","","","","","",""
11.0,0.07057449966669083,0.0017885613221332894,"train",12640.0,"2021-11-20 23:03:44.296156","","","","","","",""
11.0,0.05769911780953407,0.0017908999524024931,"train",12660.0,"2021-11-20 23:03:48.406998","","","","","","",""
11.0,0.04336343705654144,0.0017932271590424438,"train",12680.0,"2021-11-20 23:03:52.566944","","","","","","",""
11.0,0.05326755717396736,0.0017955429066487635,"train",12700.0,"2021-11-20 23:03:57.336629","","","","","","",""
11.0,0.04320494830608368,0.0017978471599914025,"train",12720.0,"2021-11-20 23:04:01.516245","","","","","","",""
11.0,0.0447349026799202,0.0018001398840151778,"train",12740.0,"2021-11-20 23:04:05.735385","","","","","","",""
11.0,0.06478796899318695,0.0018024210438403031,"train",12760.0,"2021-11-20 23:04:09.911039","","","","","","",""
11.0,0.03901638463139534,0.0018046906047629228,"train",12780.0,"2021-11-20 23:04:14.024644","","","","","","",""
11.0,0.04833493009209633,0.0018069485322556372,"train",12800.0,"2021-11-20 23:04:18.658027","","","","","","",""
11.0,0.06014148145914078,0.001809194791968029,"train",12820.0,"2021-11-20 23:04:22.862664","","","","","","",""
11.0,0.056552328169345856,0.0018114293497271863,"train",12840.0,"2021-11-20 23:04:27.090156","","","","","","",""
11.0,0.04442301392555237,0.0018136521715382218,"train",12860.0,"2021-11-20 23:04:31.340306","","","","","","",""
11.0,0.053101763129234314,0.0018158632235847892,"train",12880.0,"2021-11-20 23:04:36.136178","","","","","","",""
11.0,"","","train",12888.0,"2021-11-20 23:06:26.475716",0.6006985374372408,0.6113813026238343,0.9485748929522894,0.6270218690859978,0.4946267976429815,0.5254863798077489,0.3361264646957917
11.0,"","","val",12888.0,"2021-11-20 23:06:55.347896",0.5802504928679114,0.5704774325647833,0.9363604395087581,0.5990077357325424,0.4694527562141864,0.4969833089192004,0.31178612757024
12.0,0.035642918199300766,0.0018180624722295999,"train",12900.0,"2021-11-20 23:07:00.867629","","","","","","",""
12.0,0.07315986603498459,0.001820249884014933,"train",12920.0,"2021-11-20 23:07:05.115154","","","","","","",""
12.0,0.04541473835706711,0.001822425425663144,"train",12940.0,"2021-11-20 23:07:09.965727","","","","","","",""
12.0,0.062114469707012177,0.0018245890640771725,"train",12960.0,"2021-11-20 23:07:14.203742","","","","","","",""
12.0,0.06758818030357361,0.0018267407663410452,"train",12980.0,"2021-11-20 23:07:18.441216","","","","","","",""
12.0,0.05093386769294739,0.0018288804997203755,"train",13000.0,"2021-11-20 23:07:22.648864","","","","","","",""
12.0,0.04874398931860924,0.0018310082316628634,"train",13020.0,"2021-11-20 23:07:27.279999","","","","","","",""
12.0,0.035345353186130524,0.0018331239297987893,"train",13040.0,"2021-11-20 23:07:31.365788","","","","","","",""
12.0,0.03489231690764427,0.0018352275619415066,"train",13060.0,"2021-11-20 23:07:35.430153","","","","","","",""
12.0,0.06818845868110657,0.0018373190960879326,"train",13080.0,"2021-11-20 23:07:40.040951","","","","","","",""
12.0,0.06769035756587982,0.0018393985004190336,"train",13100.0,"2021-11-20 23:07:44.109826","","","","","","",""
12.0,0.06348107755184174,0.00184146574330031,"train",13120.0,"2021-11-20 23:07:48.185943","","","","","","",""
12.0,0.049850501120090485,0.001843520793282278,"train",13140.0,"2021-11-20 23:07:52.275604","","","","","","",""
12.0,0.06341061741113663,0.0018455636191009464,"train",13160.0,"2021-11-20 23:07:56.889098","","","","","","",""
12.0,0.07727590948343277,0.001847594189678294,"train",13180.0,"2021-11-20 23:08:01.040816","","","","","","",""
12.0,0.048419609665870667,0.0018496124741227415,"train",13200.0,"2021-11-20 23:08:05.125376","","","","","","",""
12.0,0.04279925301671028,0.001851618441729622,"train",13220.0,"2021-11-20 23:08:09.574381","","","","","","",""
12.0,0.05264987051486969,0.0018536120619816467,"train",13240.0,"2021-11-20 23:08:13.537896","","","","","","",""
12.0,0.046854909509420395,0.0018555933045493712,"train",13260.0,"2021-11-20 23:08:17.500086","","","","","","",""
12.0,0.05731545388698578,0.0018575621392916554,"train",13280.0,"2021-11-20 23:08:21.527731","","","","","","",""
12.0,0.043816715478897095,0.0018595185362561225,"train",13300.0,"2021-11-20 23:08:26.057590","","","","","","",""
12.0,0.07738108187913895,0.0018614624656796155,"train",13320.0,"2021-11-20 23:08:30.156969","","","","","","",""
12.0,0.08292851597070694,0.0018633938979886484,"train",13340.0,"2021-11-20 23:08:34.235465","","","","","","",""
12.0,0.0467207171022892,0.0018653128037998568,"train",13360.0,"2021-11-20 23:08:38.929262","","","","","","",""
12.0,0.09418272227048874,0.0018672191539204459,"train",13380.0,"2021-11-20 23:08:43.097637","","","","","","",""
12.0,0.06427612155675888,0.0018691129193486335,"train",13400.0,"2021-11-20 23:08:47.225353","","","","","","",""
12.0,0.08080251514911652,0.0018709940712740908,"train",13420.0,"2021-11-20 23:08:51.329763","","","","","","",""
12.0,0.056311268359422684,0.0018728625810783823,"train",13440.0,"2021-11-20 23:08:55.918916","","","","","","",""
12.0,0.06314065307378769,0.0018747184203353996,"train",13460.0,"2021-11-20 23:09:00.025193","","","","","","",""
12.0,0.07821644842624664,0.0018765615608117947,"train",13480.0,"2021-11-20 23:09:04.202850","","","","","","",""
12.0,0.06626764684915543,0.0018783919744674096,"train",13500.0,"2021-11-20 23:09:08.823011","","","","","","",""
12.0,0.03649663180112839,0.0018802096334557027,"train",13520.0,"2021-11-20 23:09:13.005052","","","","","","",""
12.0,0.06372581422328949,0.0018820145101241712,"train",13540.0,"2021-11-20 23:09:17.088592","","","","","","",""
12.0,0.05498579517006874,0.0018838065770147745,"train",13560.0,"2021-11-20 23:09:21.189132","","","","","","",""
12.0,0.06022907793521881,0.0018855858068643496,"train",13580.0,"2021-11-20 23:09:25.735598","","","","","","",""
12.0,0.03873879462480545,0.001887352172605026,"train",13600.0,"2021-11-20 23:09:29.813290","","","","","","",""
12.0,0.04380939155817032,0.0018891056473646398,"train",13620.0,"2021-11-20 23:09:34.001559","","","","","","",""
12.0,0.04702453687787056,0.0018908462044671395,"train",13640.0,"2021-11-20 23:09:38.690390","","","","","","",""
12.0,0.0862535908818245,0.001892573817432993,"train",13660.0,"2021-11-20 23:09:42.922783","","","","","","",""
12.0,0.04841148853302002,0.0018942884599795914,"train",13680.0,"2021-11-20 23:09:47.102065","","","","","","",""
12.0,0.07825261354446411,0.001895990106021648,"train",13700.0,"2021-11-20 23:09:51.287516","","","","","","",""
12.0,0.058851052075624466,0.0018976787296715943,"train",13720.0,"2021-11-20 23:09:56.026099","","","","","","",""
12.0,0.08117788285017014,0.0018993543052399757,"train",13740.0,"2021-11-20 23:10:00.251721","","","","","","",""
12.0,0.06591664999723434,0.0019010168072358413,"train",13760.0,"2021-11-20 23:10:04.474082","","","","","","",""
12.0,0.06475716084241867,0.0019026662103671305,"train",13780.0,"2021-11-20 23:10:09.051573","","","","","","",""
12.0,0.05982131510972977,0.0019043024895410605,"train",13800.0,"2021-11-20 23:10:13.125538","","","","","","",""
12.0,0.06767161935567856,0.001905925619864506,"train",13820.0,"2021-11-20 23:10:17.221399","","","","","","",""
12.0,0.05272946506738663,0.001907535576644378,"train",13840.0,"2021-11-20 23:10:21.278364","","","","","","",""
12.0,0.05538998544216156,0.0019091323353880008,"train",13860.0,"2021-11-20 23:10:25.928621","","","","","","",""
12.0,0.0482943169772625,0.0019107158718034828,"train",13880.0,"2021-11-20 23:10:30.029959","","","","","","",""
12.0,0.0734482854604721,0.001912286161800088,"train",13900.0,"2021-11-20 23:10:34.285634","","","","","","",""
12.0,0.04537436366081238,0.0019138431814886008,"train",13920.0,"2021-11-20 23:10:38.974421","","","","","","",""
12.0,0.05669654160737991,0.0019153869071816896,"train",13940.0,"2021-11-20 23:10:43.241856","","","","","","",""
12.0,0.04932102933526039,0.0019169173153942693,"train",13960.0,"2021-11-20 23:10:47.378551","","","","","","",""
12.0,"","","train",13962.0,"2021-11-20 23:12:35.795678",0.6165611584079168,0.6300228048309748,0.9539068952793913,0.6300005105699213,0.5239613147345432,0.546429742861253,0.3588489342071811
12.0,"","","val",13962.0,"2021-11-20 23:13:05.681686",0.5919633538211759,0.5849409752345667,0.9419832637890531,0.5971379087068805,0.49260674522582515,0.5129284479373661,0.32655041035203985
13.0,0.0477442666888237,0.0019184343828438557,"train",13980.0,"2021-11-20 23:13:12.450675","","","","","","",""
13.0,0.05191510170698166,0.0019199380864509208,"train",14000.0,"2021-11-20 23:13:17.314619","","","","","","",""
13.0,0.06661172956228256,0.0019214284033392457,"train",14020.0,"2021-11-20 23:13:21.515835","","","","","","",""
13.0,0.0434051938354969,0.0019229053108362649,"train",14040.0,"2021-11-20 23:13:26.265657","","","","","","",""
13.0,0.05703536048531532,0.0019243687864734145,"train",14060.0,"2021-11-20 23:13:30.485476","","","","","","",""
13.0,0.0753747746348381,0.0019258188079864732,"train",14080.0,"2021-11-20 23:13:34.671022","","","","","","",""
13.0,0.06700614094734192,0.0019272553533158999,"train",14100.0,"2021-11-20 23:13:39.292503","","","","","","",""
13.0,0.06899938732385635,0.0019286784006071697,"train",14120.0,"2021-11-20 23:13:43.460074","","","","","","",""
13.0,0.03681562840938568,0.0019300879282111083,"train",14140.0,"2021-11-20 23:13:48.124529","","","","","","",""
13.0,0.05663665756583214,0.0019314839146842185,"train",14160.0,"2021-11-20 23:13:52.272076","","","","","","",""
13.0,0.07069109380245209,0.0019328663387890076,"train",14180.0,"2021-11-20 23:13:56.375875","","","","","","",""
13.0,0.03566354140639305,0.0019342351794943119,"train",14200.0,"2021-11-20 23:14:00.946805","","","","","","",""
13.0,0.04542899131774902,0.0019355904159756138,"train",14220.0,"2021-11-20 23:14:05.011542","","","","","","",""
13.0,0.0638495460152626,0.0019369320276153613,"train",14240.0,"2021-11-20 23:14:09.103222","","","","","","",""
13.0,0.08613643795251846,0.00193825999400328,"train",14260.0,"2021-11-20 23:14:13.794855","","","","","","",""
13.0,0.08556197583675385,0.0019395742949366843,"train",14280.0,"2021-11-20 23:14:17.835026","","","","","","",""
13.0,0.054493650794029236,0.0019408749104207845,"train",14300.0,"2021-11-20 23:14:22.360734","","","","","","",""
13.0,0.05683296173810959,0.0019421618206689913,"train",14320.0,"2021-11-20 23:14:26.455880","","","","","","",""
13.0,0.05638960003852844,0.0019434350061032163,"train",14340.0,"2021-11-20 23:14:30.469408","","","","","","",""
13.0,0.05399790033698082,0.0019446944473541703,"train",14360.0,"2021-11-20 23:14:35.100604","","","","","","",""
13.0,0.06738854199647903,0.0019459401252616573,"train",14380.0,"2021-11-20 23:14:39.231152","","","","","","",""
13.0,0.060374271124601364,0.001947172020874868,"train",14400.0,"2021-11-20 23:14:43.372407","","","","","","",""
13.0,0.04669772833585739,0.0019483901154526647,"train",14420.0,"2021-11-20 23:14:47.970767","","","","","","",""
13.0,0.04744020104408264,0.0019495943904638694,"train",14440.0,"2021-11-20 23:14:52.188556","","","","","","",""
13.0,0.04005436971783638,0.0019507848275875444,"train",14460.0,"2021-11-20 23:14:56.981187","","","","","","",""
13.0,0.08218477666378021,0.0019519614087132712,"train",14480.0,"2021-11-20 23:15:01.288467","","","","","","",""
13.0,0.0509234219789505,0.0019531241159414263,"train",14500.0,"2021-11-20 23:15:05.507189","","","","","","",""
13.0,0.06945156306028366,0.001954272931583453,"train",14520.0,"2021-11-20 23:15:10.155997","","","","","","",""
13.0,0.05203014239668846,0.0019554078381621306,"train",14540.0,"2021-11-20 23:15:14.188133","","","","","","",""
13.0,0.04990191012620926,0.0019565288184118417,"train",14560.0,"2021-11-20 23:15:18.327857","","","","","","",""
13.0,0.0497012622654438,0.0019576358552788314,"train",14580.0,"2021-11-20 23:15:22.905270","","","","","","",""
13.0,0.08490616083145142,0.0019587289319214713,"train",14600.0,"2021-11-20 23:15:26.942417","","","","","","",""
13.0,0.055618766695261,0.0019598080317105113,"train",14620.0,"2021-11-20 23:15:31.562657","","","","","","",""
13.0,0.06871428340673447,0.001960873138229337,"train",14640.0,"2021-11-20 23:15:35.609819","","","","","","",""
13.0,0.03353522717952728,0.0019619242352742153,"train",14660.0,"2021-11-20 23:15:39.635482","","","","","","",""
13.0,0.051676537841558456,0.001962961306854543,"train",14680.0,"2021-11-20 23:15:44.146567","","","","","","",""
13.0,0.053245771676301956,0.0019639843371930905,"train",14700.0,"2021-11-20 23:15:48.186372","","","","","","",""
13.0,0.05824270844459534,0.001964993310726241,"train",14720.0,"2021-11-20 23:15:52.288339","","","","","","",""
13.0,0.06760261207818985,0.0019659882121042262,"train",14740.0,"2021-11-20 23:15:56.952041","","","","","","",""
13.0,0.05539265275001526,0.001966969026191363,"train",14760.0,"2021-11-20 23:16:01.036997","","","","","","",""
13.0,0.06701572984457016,0.0019679357380662805,"train",14780.0,"2021-11-20 23:16:05.602129","","","","","","",""
13.0,0.08370517194271088,0.001968888333022148,"train",14800.0,"2021-11-20 23:16:09.601161","","","","","","",""
13.0,0.04350890591740608,0.0019698267965669,"train",14820.0,"2021-11-20 23:16:13.634719","","","","","","",""
13.0,0.028194639831781387,0.0019707511144234557,"train",14840.0,"2021-11-20 23:16:18.403442","","","","","","",""
13.0,0.08872485160827637,0.001971661272529935,"train",14860.0,"2021-11-20 23:16:22.509206","","","","","","",""
13.0,0.03920600190758705,0.001972557257039875,"train",14880.0,"2021-11-20 23:16:26.628402","","","","","","",""
13.0,0.07854456454515457,0.0019734390543224385,"train",14900.0,"2021-11-20 23:16:31.276726","","","","","","",""
13.0,0.03903748467564583,0.001974306650962622,"train",14920.0,"2021-11-20 23:16:35.484330","","","","","","",""
13.0,0.0573333241045475,0.0019751600337614608,"train",14940.0,"2021-11-20 23:16:40.184149","","","","","","",""
13.0,0.038195155560970306,0.0019759991897362284,"train",14960.0,"2021-11-20 23:16:44.372437","","","","","","",""
13.0,0.06302729994058609,0.0019768241061206343,"train",14980.0,"2021-11-20 23:16:48.518779","","","","","","",""
13.0,0.05109865963459015,0.0019776347703650186,"train",15000.0,"2021-11-20 23:16:53.235571","","","","","","",""
13.0,0.029907865449786186,0.001978431170136543,"train",15020.0,"2021-11-20 23:16:57.491405","","","","","","",""
13.0,"","","train",15036.0,"2021-11-20 23:18:51.185990",0.62552572218584,0.6394065364788166,0.9568870478600202,0.6439378326528582,0.5280267415244169,0.544513884367632,0.36753623535521956
13.0,"","","val",15036.0,"2021-11-20 23:19:20.912260",0.6021686188101589,0.588771805678662,0.945641936827868,0.6126745154806296,0.49742063599879016,0.5106401888443646,0.3343980209390403
14.0,0.0705847516655922,0.0019792132933193784,"train",15040.0,"2021-11-20 23:19:25.380444","","","","","","",""
14.0,0.05654558166861534,0.001979981128014888,"train",15060.0,"2021-11-20 23:19:29.650640","","","","","","",""
14.0,0.04157377406954765,0.001980734662541811,"train",15080.0,"2021-11-20 23:19:33.867383","","","","","","",""
14.0,0.03059014491736889,0.0019814738854364374,"train",15100.0,"2021-11-20 23:19:38.505906","","","","","","",""
14.0,0.04398998245596886,0.0019821987854527832,"train",15120.0,"2021-11-20 23:19:42.586405","","","","","","",""
14.0,0.043594617396593094,0.0019829093515627634,"train",15140.0,"2021-11-20 23:19:47.163383","","","","","","",""
14.0,0.03800229728221893,0.001983605572956358,"train",15160.0,"2021-11-20 23:19:51.368673","","","","","","",""
14.0,0.049937665462493896,0.001984287439041775,"train",15180.0,"2021-11-20 23:19:56.071751","","","","","","",""
14.0,0.0625758171081543,0.001984954939445616,"train",15200.0,"2021-11-20 23:20:00.308835","","","","","","",""
14.0,0.039302974939346313,0.0019856080640130295,"train",15220.0,"2021-11-20 23:20:04.985492","","","","","","",""
14.0,0.0741356834769249,0.0019862468028078676,"train",15240.0,"2021-11-20 23:20:09.175845","","","","","","",""
14.0,0.04842987284064293,0.001986871146112837,"train",15260.0,"2021-11-20 23:20:13.895439","","","","","","",""
14.0,0.05261719599366188,0.0019874810844296466,"train",15280.0,"2021-11-20 23:20:18.226141","","","","","","",""
14.0,0.04826497659087181,0.0019880766084791517,"train",15300.0,"2021-11-20 23:20:22.810850","","","","","","",""
14.0,0.04615094140172005,0.0019886577092014953,"train",15320.0,"2021-11-20 23:20:26.895939","","","","","","",""
14.0,0.05786192789673805,0.001989224377756247,"train",15340.0,"2021-11-20 23:20:30.953953","","","","","","",""
14.0,0.044970106333494186,0.0019897766055225353,"train",15360.0,"2021-11-20 23:20:35.590932","","","","","","",""
14.0,0.053612120449543,0.0019903143840991813,"train",15380.0,"2021-11-20 23:20:39.660335","","","","","","",""
14.0,0.05403614416718483,0.0019908377053048246,"train",15400.0,"2021-11-20 23:20:44.181696","","","","","","",""
14.0,0.0641244575381279,0.001991346561178048,"train",15420.0,"2021-11-20 23:20:48.181036","","","","","","",""
14.0,0.06072825938463211,0.0019918409439775003,"train",15440.0,"2021-11-20 23:20:52.689883","","","","","","",""
14.0,0.07906033098697662,0.0019923208461820117,"train",15460.0,"2021-11-20 23:20:56.805519","","","","","","",""
14.0,0.053082630038261414,0.001992786260490709,"train",15480.0,"2021-11-20 23:21:01.448117","","","","","","",""
14.0,0.07555603235960007,0.0019932371798231287,"train",15500.0,"2021-11-20 23:21:05.569860","","","","","","",""
14.0,0.04321641847491264,0.0019936735973193212,"train",15520.0,"2021-11-20 23:21:10.284332","","","","","","",""
14.0,0.05488603934645653,0.001994095506339958,"train",15540.0,"2021-11-20 23:21:14.510839","","","","","","",""
14.0,0.05131005123257637,0.001994502900466431,"train",15560.0,"2021-11-20 23:21:19.207216","","","","","","",""
14.0,0.05075724795460701,0.0019948957735009517,"train",15580.0,"2021-11-20 23:21:23.325508","","","","","","",""
14.0,0.07120750844478607,0.0019952741194666436,"train",15600.0,"2021-11-20 23:21:27.984067","","","","","","",""
14.0,0.07545333355665207,0.0019956379326076354,"train",15620.0,"2021-11-20 23:21:32.127798","","","","","","",""
14.0,0.07260109484195709,0.001995987207389146,"train",15640.0,"2021-11-20 23:21:36.261654","","","","","","",""
14.0,0.052273042500019073,0.0019963219384975706,"train",15660.0,"2021-11-20 23:21:40.859852","","","","","","",""
14.0,0.07997234165668488,0.001996642120840561,"train",15680.0,"2021-11-20 23:21:44.985987","","","","","","",""
14.0,0.04276677966117859,0.001996947749547103,"train",15700.0,"2021-11-20 23:21:49.613574","","","","","","",""
14.0,0.09056451171636581,0.0019972388199675905,"train",15720.0,"2021-11-20 23:21:53.707224","","","","","","",""
14.0,0.04539329558610916,0.001997515327673896,"train",15740.0,"2021-11-20 23:21:58.275470","","","","","","",""
14.0,0.040207214653491974,0.0019977772684594388,"train",15760.0,"2021-11-20 23:22:02.355654","","","","","","",""
14.0,0.037793196737766266,0.0019980246383392475,"train",15780.0,"2021-11-20 23:22:06.917374","","","","","","",""
14.0,0.06698395311832428,0.0019982574335500225,"train",15800.0,"2021-11-20 23:22:11.011678","","","","","","",""
14.0,0.049868594855070114,0.001998475650550192,"train",15820.0,"2021-11-20 23:22:15.717125","","","","","","",""
14.0,0.039483796805143356,0.0019986792860199657,"train",15840.0,"2021-11-20 23:22:19.819834","","","","","","",""
14.0,0.041082318872213364,0.001998868336861386,"train",15860.0,"2021-11-20 23:22:24.420229","","","","","","",""
14.0,0.07455440610647202,0.001999042800198376,"train",15880.0,"2021-11-20 23:22:28.539371","","","","","","",""
14.0,0.040272824466228485,0.00199920267337678,"train",15900.0,"2021-11-20 23:22:33.193154","","","","","","",""
14.0,0.04086380824446678,0.0019993479539644077,"train",15920.0,"2021-11-20 23:22:37.338338","","","","","","",""
14.0,0.04991690814495087,0.0019994786397510697,"train",15940.0,"2021-11-20 23:22:41.461312","","","","","","",""
14.0,0.05204954743385315,0.0019995947287486096,"train",15960.0,"2021-11-20 23:22:46.032761","","","","","","",""
14.0,0.0743209719657898,0.0019996962191909367,"train",15980.0,"2021-11-20 23:22:50.109551","","","","","","",""
14.0,0.05195927247405052,0.0019997831095340513,"train",16000.0,"2021-11-20 23:22:54.750814","","","","","","",""
14.0,0.05127769336104393,0.001999855398456069,"train",16020.0,"2021-11-20 23:22:58.925831","","","","","","",""
14.0,0.038378823548555374,0.00199991308485724,"train",16040.0,"2021-11-20 23:23:03.672107","","","","","","",""
14.0,0.04023633524775505,0.001999956167859967,"train",16060.0,"2021-11-20 23:23:07.868991","","","","","","",""
14.0,0.041810568422079086,0.0019999846468088172,"train",16080.0,"2021-11-20 23:23:12.557397","","","","","","",""
14.0,0.04598081111907959,0.0019999985212705335,"train",16100.0,"2021-11-20 23:23:16.752689","","","","","","",""
14.0,"","","train",16110.0,"2021-11-20 23:25:04.258053",0.6266608455213564,0.6527522197853634,0.9566098907767023,0.6530149290410854,0.5415971082380875,0.5633473595773913,0.37807066464236666
14.0,"","","val",16110.0,"2021-11-20 23:25:32.825670",0.6045459816769105,0.593620195415611,0.9464611202288703,0.6223249089613374,0.5061684435290057,0.526388303897961,0.34311559784349066
15.0,0.054846812039613724,0.0019999995774202316,"train",16120.0,"2021-11-20 23:25:37.881792","","","","","","",""
15.0,0.06585578620433807,0.0019999966438102564,"train",16140.0,"2021-11-20 23:25:42.036078","","","","","","",""
15.0,0.054746534675359726,0.0019999909162942875,"train",16160.0,"2021-11-20 23:25:46.761892","","","","","","",""
15.0,0.06691355258226395,0.001999982394888327,"train",16180.0,"2021-11-20 23:25:50.862098","","","","","","",""
15.0,0.06503786891698837,0.0019999710796161823,"train",16200.0,"2021-11-20 23:25:54.960204","","","","","","",""
15.0,0.04277500510215759,0.0019999569705094686,"train",16220.0,"2021-11-20 23:25:59.047242","","","","","","",""
15.0,0.05101495608687401,0.001999940067607605,"train",16240.0,"2021-11-20 23:26:03.095402","","","","","","",""
15.0,0.09156759083271027,0.001999920370957817,"train",16260.0,"2021-11-20 23:26:07.146553","","","","","","",""
15.0,0.06409657746553421,0.0019998978806151355,"train",16280.0,"2021-11-20 23:26:11.202053","","","","","","",""
15.0,0.05426054075360298,0.0019998725966423976,"train",16300.0,"2021-11-20 23:26:15.276803","","","","","","",""
15.0,0.03887871280312538,0.001999844519110244,"train",16320.0,"2021-11-20 23:26:19.534447","","","","","","",""
15.0,0.06851670891046524,0.001999813648097122,"train",16340.0,"2021-11-20 23:26:23.775142","","","","","","",""
15.0,0.05334058403968811,0.001999779983689282,"train",16360.0,"2021-11-20 23:26:28.020735","","","","","","",""
15.0,0.06833120435476303,0.0019997435259807806,"train",16380.0,"2021-11-20 23:26:32.209362","","","","","","",""
15.0,0.0402374193072319,0.001999704275073478,"train",16400.0,"2021-11-20 23:26:36.435319","","","","","","",""
15.0,0.03267175704240799,0.0019996622310770383,"train",16420.0,"2021-11-20 23:26:40.658358","","","","","","",""
15.0,0.04679019749164581,0.0019996173941089286,"train",16440.0,"2021-11-20 23:26:44.841753","","","","","","",""
15.0,0.04435912147164345,0.0019995697642944212,"train",16460.0,"2021-11-20 23:26:48.870170","","","","","","",""
15.0,0.06486189365386963,0.0019995193417665894,"train",16480.0,"2021-11-20 23:26:52.892901","","","","","","",""
15.0,0.07529274374246597,0.0019994661266663108,"train",16500.0,"2021-11-20 23:26:56.907202","","","","","","",""
15.0,0.05350759997963905,0.001999410119142264,"train",16520.0,"2021-11-20 23:27:00.939081","","","","","","",""
15.0,0.059751614928245544,0.0019993513193509297,"train",16540.0,"2021-11-20 23:27:04.954824","","","","","","",""
15.0,0.039610158652067184,0.0019992897274565906,"train",16560.0,"2021-11-20 23:27:09.487143","","","","","","",""
15.0,0.05018934980034828,0.0019992253436313303,"train",16580.0,"2021-11-20 23:27:13.537011","","","","","","",""
15.0,0.03517186641693115,0.0019991581680550313,"train",16600.0,"2021-11-20 23:27:17.611001","","","","","","",""
15.0,0.04432292282581329,0.0019990882009153785,"train",16620.0,"2021-11-20 23:27:21.659696","","","","","","",""
15.0,0.055424902588129044,0.001999015442407854,"train",16640.0,"2021-11-20 23:27:25.676278","","","","","","",""
15.0,0.0575176365673542,0.0019989398927357403,"train",16660.0,"2021-11-20 23:27:29.679770","","","","","","",""
15.0,0.06177293509244919,0.0019988615521101174,"train",16680.0,"2021-11-20 23:27:33.778376","","","","","","",""
15.0,0.08232422173023224,0.0019987804207498637,"train",16700.0,"2021-11-20 23:27:37.875347","","","","","","",""
15.0,0.043382033705711365,0.0019986964988816533,"train",16720.0,"2021-11-20 23:27:41.977818","","","","","","",""
15.0,0.0454401969909668,0.0019986097867399585,"train",16740.0,"2021-11-20 23:27:46.102143","","","","","","",""
15.0,0.05950899422168732,0.0019985202845670463,"train",16760.0,"2021-11-20 23:27:50.280042","","","","","","",""
15.0,0.04300867021083832,0.0019984279926129798,"train",16780.0,"2021-11-20 23:27:54.492296","","","","","","",""
15.0,0.06796960532665253,0.001998332911135615,"train",16800.0,"2021-11-20 23:27:58.830155","","","","","","",""
15.0,0.04928075522184372,0.0019982350404006036,"train",16820.0,"2021-11-20 23:28:02.939970","","","","","","",""
15.0,0.04471932351589203,0.0019981343806813883,"train",16840.0,"2021-11-20 23:28:06.980527","","","","","","",""
15.0,0.048661720007658005,0.001998030932259205,"train",16860.0,"2021-11-20 23:28:11.029926","","","","","","",""
15.0,0.06226561963558197,0.0019979246954230823,"train",16880.0,"2021-11-20 23:28:15.188141","","","","","","",""
15.0,0.04958905652165413,0.0019978156704698363,"train",16900.0,"2021-11-20 23:28:19.334606","","","","","","",""
15.0,0.05740097910165787,0.001997703857704076,"train",16920.0,"2021-11-20 23:28:23.532718","","","","","","",""
15.0,0.05777250975370407,0.0019975892574381976,"train",16940.0,"2021-11-20 23:28:28.271964","","","","","","",""
15.0,0.055270977318286896,0.001997471869992386,"train",16960.0,"2021-11-20 23:28:32.430262","","","","","","",""
15.0,0.047343283891677856,0.0019973516956946127,"train",16980.0,"2021-11-20 23:28:36.572673","","","","","","",""
15.0,0.0829843282699585,0.0019972287348806366,"train",17000.0,"2021-11-20 23:28:40.806553","","","","","","",""
15.0,0.036208316683769226,0.0019971029878940003,"train",17020.0,"2021-11-20 23:28:44.877548","","","","","","",""
15.0,0.062051232904195786,0.0019969744550860317,"train",17040.0,"2021-11-20 23:28:49.092924","","","","","","",""
15.0,0.09639547020196915,0.0019968431368158433,"train",17060.0,"2021-11-20 23:28:53.324828","","","","","","",""
15.0,0.07752186059951782,0.001996709033450327,"train",17080.0,"2021-11-20 23:28:57.409860","","","","","","",""
15.0,0.03350507467985153,0.0019965721453641585,"train",17100.0,"2021-11-20 23:29:01.632505","","","","","","",""
15.0,0.06283117830753326,0.0019964324729397935,"train",17120.0,"2021-11-20 23:29:05.811941","","","","","","",""
15.0,0.08020459860563278,0.0019962900165674657,"train",17140.0,"2021-11-20 23:29:09.958697","","","","","","",""
15.0,0.035214073956012726,0.0019961447766451887,"train",17160.0,"2021-11-20 23:29:14.057354","","","","","","",""
15.0,0.03804923966526985,0.001995996753578751,"train",17180.0,"2021-11-20 23:29:18.114424","","","","","","",""
15.0,"","","train",17184.0,"2021-11-20 23:31:08.032567",0.6445172087608237,0.6691605787958779,0.959933019875635,0.6822353298276532,0.560601357780315,0.58911911614341,0.3954646385895011
15.0,"","","val",17184.0,"2021-11-20 23:31:36.656826",0.6171286095326453,0.6094218961893796,0.947284411356837,0.6470953908681344,0.5200635963633469,0.5441939612252309,0.3545457609538838
16.0,0.056679341942071915,0.001995845947781719,"train",17200.0,"2021-11-20 23:31:43.005665","","","","","","",""
16.0,0.04666929319500923,0.001995692359675433,"train",17220.0,"2021-11-20 23:31:47.178206","","","","","","",""
16.0,0.02931404486298561,0.0019955359896890066,"train",17240.0,"2021-11-20 23:31:51.367061","","","","","","",""
16.0,0.049414314329624176,0.0019953768382593258,"train",17260.0,"2021-11-20 23:31:56.212165","","","","","","",""
16.0,0.05084303766489029,0.0019952149058310486,"train",17280.0,"2021-11-20 23:32:00.393728","","","","","","",""
16.0,0.04501454904675484,0.001995050192856602,"train",17300.0,"2021-11-20 23:32:04.580647","","","","","","",""
16.0,0.05876351147890091,0.001994882699796182,"train",17320.0,"2021-11-20 23:32:08.699748","","","","","","",""
16.0,0.050869520753622055,0.001994712427117752,"train",17340.0,"2021-11-20 23:32:12.831564","","","","","","",""
16.0,0.047551147639751434,0.0019945393752970413,"train",17360.0,"2021-11-20 23:32:16.921386","","","","","","",""
16.0,0.06785155832767487,0.001994363544817544,"train",17380.0,"2021-11-20 23:32:20.940704","","","","","","",""
16.0,0.05304853990674019,0.001994184936170517,"train",17400.0,"2021-11-20 23:32:24.940323","","","","","","",""
16.0,0.050449974834918976,0.0019940035498549804,"train",17420.0,"2021-11-20 23:32:28.997441","","","","","","",""
16.0,0.062331024557352066,0.0019938193863777145,"train",17440.0,"2021-11-20 23:32:33.126018","","","","","","",""
16.0,0.038733258843421936,0.001993632446253258,"train",17460.0,"2021-11-20 23:32:37.718340","","","","","","",""
16.0,0.07413087040185928,0.0019934427300039074,"train",17480.0,"2021-11-20 23:32:41.944751","","","","","","",""
16.0,0.0647658184170723,0.001993250238159717,"train",17500.0,"2021-11-20 23:32:46.141349","","","","","","",""
16.0,0.05203742906451225,0.0019930549712584944,"train",17520.0,"2021-11-20 23:32:50.316536","","","","","","",""
16.0,0.061609987169504166,0.001992856929845801,"train",17540.0,"2021-11-20 23:32:54.445092","","","","","","",""
16.0,0.0446859709918499,0.0019926561144749497,"train",17560.0,"2021-11-20 23:32:58.517111","","","","","","",""
16.0,0.04970451816916466,0.001992452525707004,"train",17580.0,"2021-11-20 23:33:02.587199","","","","","","",""
16.0,0.045448627322912216,0.0019922461641107767,"train",17600.0,"2021-11-20 23:33:06.672243","","","","","","",""
16.0,0.06624417752027512,0.001992037030262826,"train",17620.0,"2021-11-20 23:33:10.702604","","","","","","",""
16.0,0.04719424247741699,0.0019918251247474567,"train",17640.0,"2021-11-20 23:33:14.824199","","","","","","",""
16.0,0.05433613806962967,0.001991610448156718,"train",17660.0,"2021-11-20 23:33:19.469176","","","","","","",""
16.0,0.06300719082355499,0.0019913930010903996,"train",17680.0,"2021-11-20 23:33:23.466031","","","","","","",""
16.0,0.06918647140264511,0.001991172784156033,"train",17700.0,"2021-11-20 23:33:27.474469","","","","","","",""
16.0,0.052614517509937286,0.0019909497979688877,"train",17720.0,"2021-11-20 23:33:31.542367","","","","","","",""
16.0,0.04529637098312378,0.0019907240431519713,"train",17740.0,"2021-11-20 23:33:35.524666","","","","","","",""
16.0,0.06030214950442314,0.001990495520336026,"train",17760.0,"2021-11-20 23:33:39.566681","","","","","","",""
16.0,0.06344303488731384,0.0019902642301595284,"train",17780.0,"2021-11-20 23:33:43.657112","","","","","","",""
16.0,0.054291579872369766,0.001990030173268685,"train",17800.0,"2021-11-20 23:33:47.692796","","","","","","",""
16.0,0.06047922745347023,0.0019897933503174345,"train",17820.0,"2021-11-20 23:33:51.674723","","","","","","",""
16.0,0.04782330244779587,0.0019895537619674425,"train",17840.0,"2021-11-20 23:33:55.720072","","","","","","",""
16.0,0.06830905377864838,0.001989311408888101,"train",17860.0,"2021-11-20 23:34:00.511367","","","","","","",""
16.0,0.03525371477007866,0.001989066291756527,"train",17880.0,"2021-11-20 23:34:04.679838","","","","","","",""
16.0,0.0608840212225914,0.00198881841125756,"train",17900.0,"2021-11-20 23:34:08.723689","","","","","","",""
16.0,0.039292700588703156,0.0019885677680837595,"train",17920.0,"2021-11-20 23:34:12.761428","","","","","","",""
16.0,0.07538660615682602,0.001988314362935404,"train",17940.0,"2021-11-20 23:34:16.801533","","","","","","",""
16.0,0.03782539814710617,0.0019880581965204896,"train",17960.0,"2021-11-20 23:34:20.837496","","","","","","",""
16.0,0.052711326628923416,0.0019877992695547255,"train",17980.0,"2021-11-20 23:34:24.934260","","","","","","",""
16.0,0.047909315675497055,0.0019875375827615354,"train",18000.0,"2021-11-20 23:34:29.124825","","","","","","",""
16.0,0.05352500081062317,0.0019872731368720527,"train",18020.0,"2021-11-20 23:34:33.154135","","","","","","",""
16.0,0.0634363442659378,0.00198700593262512,"train",18040.0,"2021-11-20 23:34:37.235188","","","","","","",""
16.0,0.03238948807120323,0.001986735970767286,"train",18060.0,"2021-11-20 23:34:41.851754","","","","","","",""
16.0,0.05869293957948685,0.001986463252052804,"train",18080.0,"2021-11-20 23:34:45.923499","","","","","","",""
16.0,0.042222872376441956,0.0019861877772436305,"train",18100.0,"2021-11-20 23:34:50.032409","","","","","","",""
16.0,0.07271753251552582,0.001985909547109422,"train",18120.0,"2021-11-20 23:34:54.118517","","","","","","",""
16.0,0.03653410077095032,0.001985628562427533,"train",18140.0,"2021-11-20 23:34:58.242310","","","","","","",""
16.0,0.053763266652822495,0.001985344823983014,"train",18160.0,"2021-11-20 23:35:02.255906","","","","","","",""
16.0,0.04324742779135704,0.001985058332568609,"train",18180.0,"2021-11-20 23:35:06.313289","","","","","","",""
16.0,0.06007872521877289,0.001984769088984755,"train",18200.0,"2021-11-20 23:35:10.473939","","","","","","",""
16.0,0.038449954241514206,0.001984477094039576,"train",18220.0,"2021-11-20 23:35:14.607220","","","","","","",""
16.0,0.05864637717604637,0.001984182348548885,"train",18240.0,"2021-11-20 23:35:18.704089","","","","","","",""
16.0,"","","train",18258.0,"2021-11-20 23:37:07.682278",0.6406898057192753,0.6748195609149299,0.9622742445817736,0.6682173052912114,0.5440240914461012,0.5680317656334831,0.3855623780569768
16.0,"","","val",18258.0,"2021-11-20 23:37:36.543277",0.6137075263829294,0.6092798491946552,0.9494282973427881,0.6308366543041206,0.5006822673275917,0.5221528114240265,0.34071976125297987
17.0,0.055254217237234116,0.00198388485333618,"train",18260.0,"2021-11-20 23:37:39.915620","","","","","","",""
17.0,0.05269740894436836,0.0019835846092326396,"train",18280.0,"2021-11-20 23:37:44.173437","","","","","","",""
17.0,0.04402948543429375,0.0019832816170771246,"train",18300.0,"2021-11-20 23:37:48.291372","","","","","","",""
17.0,0.038295064121484756,0.001982975877716172,"train",18320.0,"2021-11-20 23:37:52.440227","","","","","","",""
17.0,0.07695692032575607,0.0019826673920039957,"train",18340.0,"2021-11-20 23:37:56.685697","","","","","","",""
17.0,0.04852107912302017,0.0019823561608024822,"train",18360.0,"2021-11-20 23:38:00.953162","","","","","","",""
17.0,0.0727500468492508,0.0019820421849811886,"train",18380.0,"2021-11-20 23:38:05.181845","","","","","","",""
17.0,0.0662340521812439,0.0019817254654173402,"train",18400.0,"2021-11-20 23:38:09.950656","","","","","","",""
17.0,0.039134591817855835,0.0019814060029958278,"train",18420.0,"2021-11-20 23:38:13.994540","","","","","","",""
17.0,0.06016791984438896,0.001981083798609206,"train",18440.0,"2021-11-20 23:38:18.051918","","","","","","",""
17.0,0.050396207720041275,0.0019807588531576908,"train",18460.0,"2021-11-20 23:38:22.100896","","","","","","",""
17.0,0.06441918760538101,0.0019804311675491555,"train",18480.0,"2021-11-20 23:38:26.149715","","","","","","",""
17.0,0.06046232953667641,0.00198010074269913,"train",18500.0,"2021-11-20 23:38:30.216057","","","","","","",""
17.0,0.038247015327215195,0.0019797675795307965,"train",18520.0,"2021-11-20 23:38:34.819339","","","","","","",""
17.0,0.05480153113603592,0.0019794316789749885,"train",18540.0,"2021-11-20 23:38:38.874815","","","","","","",""
17.0,0.0440174899995327,0.0019790930419701877,"train",18560.0,"2021-11-20 23:38:42.912160","","","","","","",""
17.0,0.05760480836033821,0.0019787516694625214,"train",18580.0,"2021-11-20 23:38:46.982498","","","","","","",""
17.0,0.0483684204518795,0.0019784075624057584,"train",18600.0,"2021-11-20 23:38:51.037292","","","","","","",""
17.0,0.051793307065963745,0.0019780607217613094,"train",18620.0,"2021-11-20 23:38:55.152451","","","","","","",""
17.0,0.06713791936635971,0.001977711148498221,"train",18640.0,"2021-11-20 23:38:59.254568","","","","","","",""
17.0,0.07084383815526962,0.0019773588435931756,"train",18660.0,"2021-11-20 23:39:03.800275","","","","","","",""
17.0,0.07844753563404083,0.0019770038080304873,"train",18680.0,"2021-11-20 23:39:07.921971","","","","","","",""
17.0,0.08061689883470535,0.001976646042802099,"train",18700.0,"2021-11-20 23:39:11.979848","","","","","","",""
17.0,0.039647966623306274,0.0019762855489075808,"train",18720.0,"2021-11-20 23:39:16.130521","","","","","","",""
17.0,0.054032161831855774,0.001975922327354126,"train",18740.0,"2021-11-20 23:39:20.229171","","","","","","",""
17.0,0.04082612320780754,0.001975556379156549,"train",18760.0,"2021-11-20 23:39:24.295324","","","","","","",""
17.0,0.05186115577816963,0.0019751877053372823,"train",18780.0,"2021-11-20 23:39:28.449977","","","","","","",""
17.0,0.03333317115902901,0.001974816306926373,"train",18800.0,"2021-11-20 23:39:33.248388","","","","","","",""
17.0,0.02935432828962803,0.001974442184961482,"train",18820.0,"2021-11-20 23:39:37.498870","","","","","","",""
17.0,0.03935900330543518,0.0019740653404878776,"train",18840.0,"2021-11-20 23:39:41.744528","","","","","","",""
17.0,0.03793782740831375,0.0019736857745584362,"train",18860.0,"2021-11-20 23:39:45.952392","","","","","","",""
17.0,0.06628403812646866,0.0019733034882336367,"train",18880.0,"2021-11-20 23:39:50.131767","","","","","","",""
17.0,0.042931266129016876,0.0019729184825815586,"train",18900.0,"2021-11-20 23:39:54.250628","","","","","","",""
17.0,0.07608029991388321,0.0019725307586778806,"train",18920.0,"2021-11-20 23:39:58.317946","","","","","","",""
17.0,0.039869070053100586,0.001972140317605874,"train",18940.0,"2021-11-20 23:40:03.112839","","","","","","",""
17.0,0.05581815540790558,0.0019717471604564028,"train",18960.0,"2021-11-20 23:40:07.248007","","","","","","",""
17.0,0.04319928586483002,0.0019713512883279185,"train",18980.0,"2021-11-20 23:40:11.417550","","","","","","",""
17.0,0.0737517848610878,0.00197095270232646,"train",19000.0,"2021-11-20 23:40:15.678342","","","","","","",""
17.0,0.040375132113695145,0.001970551403565646,"train",19020.0,"2021-11-20 23:40:19.870850","","","","","","",""
17.0,0.039957817643880844,0.0019701473931666765,"train",19040.0,"2021-11-20 23:40:24.096284","","","","","","",""
17.0,0.04432550445199013,0.001969740672258327,"train",19060.0,"2021-11-20 23:40:28.166525","","","","","","",""
17.0,0.04944242909550667,0.0019693312419769454,"train",19080.0,"2021-11-20 23:40:32.732329","","","","","","",""
17.0,0.060346730053424835,0.0019689191034664498,"train",19100.0,"2021-11-20 23:40:36.812189","","","","","","",""
17.0,0.05987297743558884,0.0019685042578783257,"train",19120.0,"2021-11-20 23:40:40.896701","","","","","","",""
17.0,0.04765070602297783,0.00196808670637162,"train",19140.0,"2021-11-20 23:40:44.929691","","","","","","",""
17.0,0.053487762808799744,0.001967666450112942,"train",19160.0,"2021-11-20 23:40:48.980112","","","","","","",""
17.0,0.058296408504247665,0.001967243490276456,"train",19180.0,"2021-11-20 23:40:53.188561","","","","","","",""
17.0,0.07069328427314758,0.0019668178280438818,"train",19200.0,"2021-11-20 23:40:57.990902","","","","","","",""
17.0,0.048608217388391495,0.0019663894646044875,"train",19220.0,"2021-11-20 23:41:02.289468","","","","","","",""
17.0,0.042450617998838425,0.001965958401155089,"train",19240.0,"2021-11-20 23:41:06.495770","","","","","","",""
17.0,0.03147198259830475,0.0019655246389000463,"train",19260.0,"2021-11-20 23:41:10.690286","","","","","","",""
17.0,0.05775884538888931,0.0019650881790512597,"train",19280.0,"2021-11-20 23:41:14.904894","","","","","","",""
17.0,0.06266450881958008,0.001964649022828165,"train",19300.0,"2021-11-20 23:41:19.021973","","","","","","",""
17.0,0.06126730516552925,0.0019642071714577325,"train",19320.0,"2021-11-20 23:41:23.060681","","","","","","",""
17.0,"","","train",19332.0,"2021-11-20 23:43:10.083130",0.6506730699265081,0.688006018295828,0.9655180117332564,0.6820860863060473,0.5738267480002714,0.6014365044038157,0.40562738627032685
17.0,"","","val",19332.0,"2021-11-20 23:43:39.532262",0.6184622521164328,0.6139016817532128,0.9504979873837909,0.6410832406414516,0.5222248301405586,0.5457578547972314,0.3531467572092737
18.0,0.05162363499403,0.0019637626261744634,"train",19340.0,"2021-11-20 23:43:44.813276","","","","","","",""
18.0,0.03834923729300499,0.001963315388220384,"train",19360.0,"2021-11-20 23:43:48.937676","","","","","","",""
18.0,0.03892907872796059,0.0019628654588450443,"train",19380.0,"2021-11-20 23:43:53.043851","","","","","","",""
18.0,0.061514388769865036,0.001962412839305514,"train",19400.0,"2021-11-20 23:43:57.157544","","","","","","",""
18.0,0.06242237240076065,0.0019619575308663785,"train",19420.0,"2021-11-20 23:44:01.785685","","","","","","",""
18.0,0.06351399421691895,0.001961499534799737,"train",19440.0,"2021-11-20 23:44:05.931639","","","","","","",""
18.0,0.06177598983049393,0.001961038852385196,"train",19460.0,"2021-11-20 23:44:09.998695","","","","","","",""
18.0,0.05313395708799362,0.0019605754849098683,"train",19480.0,"2021-11-20 23:44:14.620363","","","","","","",""
18.0,0.05841253697872162,0.0019601094336683693,"train",19500.0,"2021-11-20 23:44:18.761598","","","","","","",""
18.0,0.06945570558309555,0.0019596406999628116,"train",19520.0,"2021-11-20 23:44:22.981289","","","","","","",""
18.0,0.03162963688373566,0.0019591692851028022,"train",19540.0,"2021-11-20 23:44:27.165925","","","","","","",""
18.0,0.06305374950170517,0.001958695190405441,"train",19560.0,"2021-11-20 23:44:31.916695","","","","","","",""
18.0,0.03903147205710411,0.001958218417195312,"train",19580.0,"2021-11-20 23:44:35.979997","","","","","","",""
18.0,0.07621302455663681,0.001957738966804486,"train",19600.0,"2021-11-20 23:44:40.079318","","","","","","",""
18.0,0.057659875601530075,0.001957256840572511,"train",19620.0,"2021-11-20 23:44:44.794522","","","","","","",""
18.0,0.037869591265916824,0.0019567720398464133,"train",19640.0,"2021-11-20 23:44:48.987741","","","","","","",""
18.0,0.03638899326324463,0.00195628456598069,"train",19660.0,"2021-11-20 23:44:53.236260","","","","","","",""
18.0,0.0492735356092453,0.001955794420337307,"train",19680.0,"2021-11-20 23:44:57.401996","","","","","","",""
18.0,0.03577258065342903,0.0019553016042856957,"train",19700.0,"2021-11-20 23:45:02.033835","","","","","","",""
18.0,0.0383903943002224,0.001954806119202748,"train",19720.0,"2021-11-20 23:45:06.343171","","","","","","",""
18.0,0.03334301710128784,0.001954307966472812,"train",19740.0,"2021-11-20 23:45:10.569394","","","","","","",""
18.0,0.05836060643196106,0.0019538071474876914,"train",19760.0,"2021-11-20 23:45:15.295428","","","","","","",""
18.0,0.0600840225815773,0.001953303663646636,"train",19780.0,"2021-11-20 23:45:19.508427","","","","","","",""
18.0,0.04424499720335007,0.0019527975163563436,"train",19800.0,"2021-11-20 23:45:23.705982","","","","","","",""
18.0,0.03147490695118904,0.0019522887070309524,"train",19820.0,"2021-11-20 23:45:27.937520","","","","","","",""
18.0,0.03583040460944176,0.0019517772370920379,"train",19840.0,"2021-11-20 23:45:32.652807","","","","","","",""
18.0,0.07500138133764267,0.0019512631079686104,"train",19860.0,"2021-11-20 23:45:36.809693","","","","","","",""
18.0,0.06323173642158508,0.001950746321097108,"train",19880.0,"2021-11-20 23:45:40.966259","","","","","","",""
18.0,0.07234469056129456,0.0019502268779213957,"train",19900.0,"2021-11-20 23:45:45.593686","","","","","","",""
18.0,0.04368624463677406,0.0019497047798927598,"train",19920.0,"2021-11-20 23:45:49.656903","","","","","","",""
18.0,0.02951567992568016,0.001949180028469903,"train",19940.0,"2021-11-20 23:45:53.742290","","","","","","",""
18.0,0.06436621397733688,0.0019486526251189435,"train",19960.0,"2021-11-20 23:45:58.014169","","","","","","",""
18.0,0.06460002809762955,0.0019481225713134064,"train",19980.0,"2021-11-20 23:46:02.780939","","","","","","",""
18.0,0.0666121244430542,0.0019475898685342235,"train",20000.0,"2021-11-20 23:46:06.882015","","","","","","",""
18.0,0.0465654619038105,0.0019470545182697272,"train",20020.0,"2021-11-20 23:46:10.958318","","","","","","",""
18.0,0.061108123511075974,0.001946516522015647,"train",20040.0,"2021-11-20 23:46:15.584826","","","","","","",""
18.0,0.036556024104356766,0.0019459758812751047,"train",20060.0,"2021-11-20 23:46:19.696187","","","","","","",""
18.0,0.07496975362300873,0.0019454325975586106,"train",20080.0,"2021-11-20 23:46:23.839420","","","","","","",""
18.0,0.025744182989001274,0.0019448866723840602,"train",20100.0,"2021-11-20 23:46:27.946358","","","","","","",""
18.0,0.03389471024274826,0.001944338107276728,"train",20120.0,"2021-11-20 23:46:32.684678","","","","","","",""
18.0,0.0483633354306221,0.0019437869037692644,"train",20140.0,"2021-11-20 23:46:36.888630","","","","","","",""
18.0,0.03859039768576622,0.0019432330634016912,"train",20160.0,"2021-11-20 23:46:41.144321","","","","","","",""
18.0,0.06632211059331894,0.0019426765877213986,"train",20180.0,"2021-11-20 23:46:45.812300","","","","","","",""
18.0,0.02664346992969513,0.0019421174782831383,"train",20200.0,"2021-11-20 23:46:49.976795","","","","","","",""
18.0,0.0420813225209713,0.0019415557366490208,"train",20220.0,"2021-11-20 23:46:54.137061","","","","","","",""
