"epoch","loss","lr","part","step","time","accuracy","auprc","auroc","challenge_metric","f_beta_measure","f_measure","g_beta_measure"
0.0,0.4527226984500885,8.000730236035311e-05,"train",20.0,"2021-11-24 17:00:41.326907","","","","","","",""
0.0,0.25503015518188477,8.002920933031948e-05,"train",40.0,"2021-11-24 17:00:44.873744","","","","","","",""
0.0,0.13425926864147186,8.006572057662293e-05,"train",60.0,"2021-11-24 17:00:48.316745","","","","","","",""
0.0,0.11476313322782516,8.011683554380914e-05,"train",80.0,"2021-11-24 17:00:51.671956","","","","","","",""
0.0,0.13369637727737427,8.018255345425274e-05,"train",100.0,"2021-11-24 17:00:55.039668","","","","","","",""
0.0,0.13390395045280457,8.026287330817079e-05,"train",120.0,"2021-11-24 17:00:58.527404","","","","","","",""
0.0,0.1176760271191597,8.03577938836373e-05,"train",140.0,"2021-11-24 17:01:02.002551","","","","","","",""
0.0,0.12137721478939056,8.04673137366021e-05,"train",160.0,"2021-11-24 17:01:06.049395","","","","","","",""
0.0,0.11522737890481949,8.059143120091187e-05,"train",180.0,"2021-11-24 17:01:09.384979","","","","","","",""
0.0,0.12873001396656036,8.073014438833613e-05,"train",200.0,"2021-11-24 17:01:12.751088","","","","","","",""
0.0,0.12756480276584625,8.088345118859724e-05,"train",220.0,"2021-11-24 17:01:16.305906","","","","","","",""
0.0,0.11994343996047974,8.10513492693996e-05,"train",240.0,"2021-11-24 17:01:19.798599","","","","","","",""
0.0,0.11856506764888763,8.123383607646804e-05,"train",260.0,"2021-11-24 17:01:23.385401","","","","","","",""
0.0,0.11554434895515442,8.143090883358495e-05,"train",280.0,"2021-11-24 17:01:26.842532","","","","","","",""
0.0,0.12484679371118546,8.164256454263295e-05,"train",300.0,"2021-11-24 17:01:30.947933","","","","","","",""
0.0,0.11920936405658722,8.186879998364088e-05,"train",320.0,"2021-11-24 17:01:34.382411","","","","","","",""
0.0,0.11667715758085251,8.210961171483213e-05,"train",340.0,"2021-11-24 17:01:37.810908","","","","","","",""
0.0,0.11222508549690247,8.236499607267717e-05,"train",360.0,"2021-11-24 17:01:41.154014","","","","","","",""
0.0,0.11050321906805038,8.26349491719505e-05,"train",380.0,"2021-11-24 17:01:44.511559","","","","","","",""
0.0,0.10970189422369003,8.291946690578713e-05,"train",400.0,"2021-11-24 17:01:47.851028","","","","","","",""
0.0,0.1188940703868866,8.321854494574774e-05,"train",420.0,"2021-11-24 17:01:51.220229","","","","","","",""
0.0,0.12797574698925018,8.353217874188293e-05,"train",440.0,"2021-11-24 17:01:55.260061","","","","","","",""
0.0,0.11313296109437943,8.38603635228035e-05,"train",460.0,"2021-11-24 17:01:58.701986","","","","","","",""
0.0,0.11155901104211807,8.420309429575212e-05,"train",480.0,"2021-11-24 17:02:02.050796","","","","","","",""
0.0,0.11262185126543045,8.456036584667914e-05,"train",500.0,"2021-11-24 17:02:05.377429","","","","","","",""
0.0,0.11832665652036667,8.493217274032315e-05,"train",520.0,"2021-11-24 17:02:08.800922","","","","","","",""
0.0,0.11135910451412201,8.531850932029235e-05,"train",540.0,"2021-11-24 17:02:12.326026","","","","","","",""
0.0,0.10617676377296448,8.571936970915212e-05,"train",560.0,"2021-11-24 17:02:15.758539","","","","","","",""
0.0,0.10371973365545273,8.613474780851246e-05,"train",580.0,"2021-11-24 17:02:19.901073","","","","","","",""
0.0,0.10369560122489929,8.656463729912224e-05,"train",600.0,"2021-11-24 17:02:23.426146","","","","","","",""
0.0,0.10798002034425735,8.700903164096468e-05,"train",620.0,"2021-11-24 17:02:26.858648","","","","","","",""
0.0,0.11271873116493225,8.746792407335769e-05,"train",640.0,"2021-11-24 17:02:30.304746","","","","","","",""
0.0,0.10552752763032913,8.794130761505497e-05,"train",660.0,"2021-11-24 17:02:33.667219","","","","","","",""
0.0,0.10055852681398392,8.842917506435462e-05,"train",680.0,"2021-11-24 17:02:37.059689","","","","","","",""
0.0,0.10273713618516922,8.893151899920645e-05,"train",700.0,"2021-11-24 17:02:40.394519","","","","","","",""
0.0,0.10218635201454163,8.944833177732632e-05,"train",720.0,"2021-11-24 17:02:43.754081","","","","","","",""
0.0,0.10689876973628998,8.997960553631186e-05,"train",740.0,"2021-11-24 17:02:47.861458","","","","","","",""
0.0,0.09048126637935638,9.052533219376224e-05,"train",760.0,"2021-11-24 17:02:51.266795","","","","","","",""
0.0,0.09576854854822159,9.108550344740104e-05,"train",780.0,"2021-11-24 17:02:54.724756","","","","","","",""
0.0,0.09490404278039932,9.166011077520208e-05,"train",800.0,"2021-11-24 17:02:58.207863","","","","","","",""
0.0,0.11032472550868988,9.224914543552059e-05,"train",820.0,"2021-11-24 17:03:01.549060","","","","","","",""
0.0,0.10635410994291306,9.285259846722417e-05,"train",840.0,"2021-11-24 17:03:05.013690","","","","","","",""
0.0,0.0855671837925911,9.34704606898307e-05,"train",860.0,"2021-11-24 17:03:08.488118","","","","","","",""
0.0,0.10230234265327454,9.410272270364735e-05,"train",880.0,"2021-11-24 17:03:12.608297","","","","","","",""
0.0,0.10306991636753082,9.474937488991348e-05,"train",900.0,"2021-11-24 17:03:16.005304","","","","","","",""
0.0,0.11282557994127274,9.541040741094719e-05,"train",920.0,"2021-11-24 17:03:19.324742","","","","","","",""
0.0,0.08414961397647858,9.608581021029522e-05,"train",940.0,"2021-11-24 17:03:22.627090","","","","","","",""
0.0,0.10771669447422028,9.677557301288509e-05,"train",960.0,"2021-11-24 17:03:25.914973","","","","","","",""
0.0,0.08045004308223724,9.747968532518238e-05,"train",980.0,"2021-11-24 17:03:29.167957","","","","","","",""
0.0,0.09750999510288239,9.819813643535029e-05,"train",1000.0,"2021-11-24 17:03:32.455135","","","","","","",""
0.0,0.08965727686882019,9.893091541341185e-05,"train",1020.0,"2021-11-24 17:03:36.410014","","","","","","",""
0.0,0.07008565962314606,9.967801111141644e-05,"train",1040.0,"2021-11-24 17:03:39.775688","","","","","","",""
0.0,0.091304711997509,0.00010043941216361023,"train",1060.0,"2021-11-24 17:03:43.134902","","","","","","",""
0.0,"","","train",1074.0,"2021-11-24 17:05:16.818375",0.3911227534017318,0.21456158714102694,0.7866469621065652,0.29538700612216284,0.14236673200225375,0.13884261450488905,0.08987909744044656
0.0,"","","val",1074.0,"2021-11-24 17:05:41.759058",0.38866983648382236,0.21106099281314422,0.7865324986999637,0.2925947213770353,0.14079640517105185,0.137570989619206,0.08837379788814924
1.0,0.09703516960144043,0.00010121510698660771,"train",1080.0,"2021-11-24 17:05:45.607140","","","","","","",""
1.0,0.09635145962238312,0.00010200508377956928,"train",1100.0,"2021-11-24 17:05:49.214635","","","","","","",""
1.0,0.10558827221393585,0.00010280933052437993,"train",1120.0,"2021-11-24 17:05:52.711132","","","","","","",""
1.0,0.1057903990149498,0.00010362783498583223,"train",1140.0,"2021-11-24 17:05:56.153187","","","","","","",""
1.0,0.07892867177724838,0.0001044605847118124,"train",1160.0,"2021-11-24 17:06:00.313724","","","","","","",""
1.0,0.07953274250030518,0.0001053075670334907,"train",1180.0,"2021-11-24 17:06:03.723794","","","","","","",""
1.0,0.07897116988897324,0.00010616876906551181,"train",1200.0,"2021-11-24 17:06:07.254096","","","","","","",""
1.0,0.08792572468519211,0.0001070441777061941,"train",1220.0,"2021-11-24 17:06:10.816724","","","","","","",""
1.0,0.11516758799552917,0.00010793377963772563,"train",1240.0,"2021-11-24 17:06:14.380420","","","","","","",""
1.0,0.10434944182634354,0.0001088375613263698,"train",1260.0,"2021-11-24 17:06:17.915158","","","","","","",""
1.0,0.07067859917879105,0.00010975550902266908,"train",1280.0,"2021-11-24 17:06:21.306497","","","","","","",""
1.0,0.09339231997728348,0.00011068760876165474,"train",1300.0,"2021-11-24 17:06:25.358998","","","","","","",""
1.0,0.10119999945163727,0.0001116338463630598,"train",1320.0,"2021-11-24 17:06:28.845909","","","","","","",""
1.0,0.09640048444271088,0.00011259420743153455,"train",1340.0,"2021-11-24 17:06:32.175652","","","","","","",""
1.0,0.09414495527744293,0.00011356867735686535,"train",1360.0,"2021-11-24 17:06:35.580991","","","","","","",""
1.0,0.10757525265216827,0.00011455724131419621,"train",1380.0,"2021-11-24 17:06:38.932991","","","","","","",""
1.0,0.10510724782943726,0.00011555988426425654,"train",1400.0,"2021-11-24 17:06:42.287029","","","","","","",""
1.0,0.09354642778635025,0.00011657659095358746,"train",1420.0,"2021-11-24 17:06:45.636092","","","","","","",""
1.0,0.09114645421504974,0.00011760734591477516,"train",1440.0,"2021-11-24 17:06:49.702583","","","","","","",""
1.0,0.0877295508980751,0.00011865213346668618,"train",1460.0,"2021-11-24 17:06:53.127675","","","","","","",""
1.0,0.07441573590040207,0.00011971093771470502,"train",1480.0,"2021-11-24 17:06:56.623938","","","","","","",""
1.0,0.07678599655628204,0.0001207837425509777,"train",1500.0,"2021-11-24 17:07:00.074293","","","","","","",""
1.0,0.10667579621076584,0.00012187053165465503,"train",1520.0,"2021-11-24 17:07:03.457467","","","","","","",""
1.0,0.08966166526079178,0.000122971288492142,"train",1540.0,"2021-11-24 17:07:06.975603","","","","","","",""
1.0,0.08361983299255371,0.00012408599631734863,"train",1560.0,"2021-11-24 17:07:10.481506","","","","","","",""
1.0,0.11098872125148773,0.00012521463817194542,"train",1580.0,"2021-11-24 17:07:14.675222","","","","","","",""
1.0,0.08430065214633942,0.00012635719688562077,"train",1600.0,"2021-11-24 17:07:18.060015","","","","","","",""
1.0,0.07622139900922775,0.00012751365507634267,"train",1620.0,"2021-11-24 17:07:21.451060","","","","","","",""
1.0,0.08652797341346741,0.0001286839951506226,"train",1640.0,"2021-11-24 17:07:24.782692","","","","","","",""
1.0,0.08390344679355621,0.00012986819930378333,"train",1660.0,"2021-11-24 17:07:28.168569","","","","","","",""
1.0,0.08611918985843658,0.00013106624952023064,"train",1680.0,"2021-11-24 17:07:31.527087","","","","","","",""
1.0,0.10127381235361099,0.00013227812757372545,"train",1700.0,"2021-11-24 17:07:35.060007","","","","","","",""
1.0,0.11656138300895691,0.00013350381502766394,"train",1720.0,"2021-11-24 17:07:39.125659","","","","","","",""
1.0,0.10491042584180832,0.00013474329323535494,"train",1740.0,"2021-11-24 17:07:42.486529","","","","","","",""
1.0,0.10052250325679779,0.0001359965433403059,"train",1760.0,"2021-11-24 17:07:45.810412","","","","","","",""
1.0,0.07257898151874542,0.00013726354627650872,"train",1780.0,"2021-11-24 17:07:49.161055","","","","","","",""
1.0,0.08874258399009705,0.00013854428276873052,"train",1800.0,"2021-11-24 17:07:52.545442","","","","","","",""
1.0,0.09488388895988464,0.00013983873333280506,"train",1820.0,"2021-11-24 17:07:55.974755","","","","","","",""
1.0,0.08540542423725128,0.00014114687827593156,"train",1840.0,"2021-11-24 17:07:59.387444","","","","","","",""
1.0,0.07744693756103516,0.00014246869769697352,"train",1860.0,"2021-11-24 17:08:03.420122","","","","","","",""
1.0,0.07220310717821121,0.00014380417148676054,"train",1880.0,"2021-11-24 17:08:06.839017","","","","","","",""
1.0,0.07409168034791946,0.00014515327932839404,"train",1900.0,"2021-11-24 17:08:10.183355","","","","","","",""
1.0,0.06892570108175278,0.0001465160006975598,"train",1920.0,"2021-11-24 17:08:13.569169","","","","","","",""
1.0,0.07630156725645065,0.00014789231486283454,"train",1940.0,"2021-11-24 17:08:16.961422","","","","","","",""
1.0,0.0813436508178711,0.00014928220088600633,"train",1960.0,"2021-11-24 17:08:20.368908","","","","","","",""
1.0,0.08562053740024567,0.00015068563762239045,"train",1980.0,"2021-11-24 17:08:23.883922","","","","","","",""
1.0,0.08384840935468674,0.00015210260372115238,"train",2000.0,"2021-11-24 17:08:28.179187","","","","","","",""
1.0,0.08528807759284973,0.00015353307762563115,"train",2020.0,"2021-11-24 17:08:31.705960","","","","","","",""
1.0,0.094847172498703,0.00015497703757366872,"train",2040.0,"2021-11-24 17:08:35.170785","","","","","","",""
1.0,0.07791000604629517,0.00015643446159794,"train",2060.0,"2021-11-24 17:08:38.526190","","","","","","",""
1.0,0.07214178144931793,0.0001579053275262887,"train",2080.0,"2021-11-24 17:08:41.871156","","","","","","",""
1.0,0.08143546432256699,0.00015938961298206183,"train",2100.0,"2021-11-24 17:08:45.295775","","","","","","",""
1.0,0.07841873168945312,0.00016088729538445297,"train",2120.0,"2021-11-24 17:08:48.754790","","","","","","",""
1.0,0.10136876255273819,0.000162398351948844,"train",2140.0,"2021-11-24 17:08:52.064548","","","","","","",""
1.0,"","","train",2148.0,"2021-11-24 17:10:24.760182",0.4555628319871935,0.31243665873263726,0.8492786188839045,0.38087012058973224,0.21141412189487177,0.20728109715068208,0.13984920450608168
1.0,"","","val",2148.0,"2021-11-24 17:10:49.974897",0.45425026093007076,0.3062645858196142,0.8488824660576639,0.37804746352210783,0.209617333017402,0.20538456634827437,0.13805244410102258
2.0,0.07919678837060928,0.00016392275968715297,"train",2160.0,"2021-11-24 17:10:54.950515","","","","","","",""
2.0,0.10536907613277435,0.00016546049540818223,"train",2180.0,"2021-11-24 17:10:58.573292","","","","","","",""
2.0,0.08522842824459076,0.00016701153571797313,"train",2200.0,"2021-11-24 17:11:02.045827","","","","","","",""
2.0,0.08029123395681381,0.00016857585702016015,"train",2220.0,"2021-11-24 17:11:05.271689","","","","","","",""
2.0,0.08039591461420059,0.00017015343551633126,"train",2240.0,"2021-11-24 17:11:08.541941","","","","","","",""
2.0,0.07507376372814178,0.0001717442472063892,"train",2260.0,"2021-11-24 17:11:11.916328","","","","","","",""
2.0,0.08318085223436356,0.00017334826788891681,"train",2280.0,"2021-11-24 17:11:15.481193","","","","","","",""
2.0,0.07414256036281586,0.00017496547316154555,"train",2300.0,"2021-11-24 17:11:19.834106","","","","","","",""
2.0,0.0818033218383789,0.00017659583842132573,"train",2320.0,"2021-11-24 17:11:23.292001","","","","","","",""
2.0,0.083377905189991,0.00017823933886510217,"train",2340.0,"2021-11-24 17:11:26.745606","","","","","","",""
2.0,0.08455438166856766,0.00017989594948989015,"train",2360.0,"2021-11-24 17:11:30.179841","","","","","","",""
2.0,0.067499540746212,0.00018156564509325753,"train",2380.0,"2021-11-24 17:11:33.505979","","","","","","",""
2.0,0.09622178226709366,0.0001832484002737059,"train",2400.0,"2021-11-24 17:11:36.822027","","","","","","",""
2.0,0.08442821353673935,0.00018494418943105877,"train",2420.0,"2021-11-24 17:11:40.204160","","","","","","",""
2.0,0.10150577872991562,0.00018665298676685078,"train",2440.0,"2021-11-24 17:11:44.353922","","","","","","",""
2.0,0.10030253231525421,0.0001883747662847191,"train",2460.0,"2021-11-24 17:11:47.810084","","","","","","",""
2.0,0.08810427784919739,0.00019010950179080112,"train",2480.0,"2021-11-24 17:11:51.278601","","","","","","",""
2.0,0.11303918808698654,0.00019185716689412995,"train",2500.0,"2021-11-24 17:11:54.731567","","","","","","",""
2.0,0.10257798433303833,0.00019361773500703797,"train",2520.0,"2021-11-24 17:11:58.072266","","","","","","",""
2.0,0.05952034890651703,0.00019539117934556168,"train",2540.0,"2021-11-24 17:12:01.484518","","","","","","",""
2.0,0.07038316875696182,0.00019717747292984696,"train",2560.0,"2021-11-24 17:12:04.937307","","","","","","",""
2.0,0.08617638051509857,0.0001989765885845624,"train",2580.0,"2021-11-24 17:12:09.020201","","","","","","",""
2.0,0.08748465031385422,0.00020078849893931014,"train",2600.0,"2021-11-24 17:12:12.419638","","","","","","",""
2.0,0.08426414430141449,0.0002026131764290434,"train",2620.0,"2021-11-24 17:12:16.014215","","","","","","",""
2.0,0.09175117313861847,0.00020445059329448614,"train",2640.0,"2021-11-24 17:12:19.456720","","","","","","",""
2.0,0.06903889030218124,0.00020630072158255497,"train",2660.0,"2021-11-24 17:12:22.909860","","","","","","",""
2.0,0.06404280662536621,0.00020816353314678467,"train",2680.0,"2021-11-24 17:12:26.361436","","","","","","",""
2.0,0.08409979194402695,0.00021003899964775505,"train",2700.0,"2021-11-24 17:12:29.803196","","","","","","",""
2.0,0.0943230390548706,0.00021192709255352473,"train",2720.0,"2021-11-24 17:12:33.751573","","","","","","",""
2.0,0.08598785847425461,0.00021382778314006255,"train",2740.0,"2021-11-24 17:12:37.148318","","","","","","",""
2.0,0.07384815812110901,0.00021574104249168615,"train",2760.0,"2021-11-24 17:12:40.515528","","","","","","",""
2.0,0.08065114170312881,0.00021766684150150133,"train",2780.0,"2021-11-24 17:12:44.015928","","","","","","",""
2.0,0.07005081325769424,0.00021960515087184485,"train",2800.0,"2021-11-24 17:12:47.647274","","","","","","",""
2.0,0.062286410480737686,0.00022155594111472978,"train",2820.0,"2021-11-24 17:12:51.142950","","","","","","",""
2.0,0.07813064008951187,0.0002235191825522959,"train",2840.0,"2021-11-24 17:12:54.646850","","","","","","",""
2.0,0.08475784212350845,0.00022549484531725838,"train",2860.0,"2021-11-24 17:12:58.829830","","","","","","",""
2.0,0.059878554195165634,0.00022748289935336434,"train",2880.0,"2021-11-24 17:13:02.331702","","","","","","",""
2.0,0.0848158746957779,0.00022948331441584964,"train",2900.0,"2021-11-24 17:13:05.724507","","","","","","",""
2.0,0.07191725820302963,0.00023149606007189785,"train",2920.0,"2021-11-24 17:13:09.001697","","","","","","",""
2.0,0.06763942539691925,0.00023352110570110476,"train",2940.0,"2021-11-24 17:13:12.438115","","","","","","",""
2.0,0.09095007926225662,0.00023555842049594305,"train",2960.0,"2021-11-24 17:13:15.830705","","","","","","",""
2.0,0.0811079666018486,0.00023760797346223305,"train",2980.0,"2021-11-24 17:13:19.235401","","","","","","",""
2.0,0.09028567373752594,0.00023966973341961028,"train",3000.0,"2021-11-24 17:13:23.311446","","","","","","",""
2.0,0.08758512884378433,0.0002417436690020044,"train",3020.0,"2021-11-24 17:13:26.802566","","","","","","",""
2.0,0.08478834480047226,0.00024382974865811325,"train",3040.0,"2021-11-24 17:13:30.151704","","","","","","",""
2.0,0.04933440685272217,0.000245927940651884,"train",3060.0,"2021-11-24 17:13:33.484350","","","","","","",""
2.0,0.07434267550706863,0.0002480382130629953,"train",3080.0,"2021-11-24 17:13:36.848573","","","","","","",""
2.0,0.07037479430437088,0.0002501605337873443,"train",3100.0,"2021-11-24 17:13:40.187216","","","","","","",""
2.0,0.10274876654148102,0.0002522948705375337,"train",3120.0,"2021-11-24 17:13:43.535256","","","","","","",""
2.0,0.06282725185155869,0.00025444119084336303,"train",3140.0,"2021-11-24 17:13:47.563687","","","","","","",""
2.0,0.06809989362955093,0.00025659946205232364,"train",3160.0,"2021-11-24 17:13:50.948497","","","","","","",""
2.0,0.08507338911294937,0.0002587696513300941,"train",3180.0,"2021-11-24 17:13:54.354366","","","","","","",""
2.0,0.06352100521326065,0.0002609517256610412,"train",3200.0,"2021-11-24 17:13:57.754139","","","","","","",""
2.0,0.07689617574214935,0.00026314565184872084,"train",3220.0,"2021-11-24 17:14:01.081792","","","","","","",""
2.0,"","","train",3222.0,"2021-11-24 17:15:33.622421",0.4920614130830241,0.40326629496272637,0.8870238043551528,0.47989992984100344,0.32175369223829314,0.31277649019273035,0.21070953122645156
2.0,"","","val",3222.0,"2021-11-24 17:16:00.069553",0.4896787660906877,0.39829249628881896,0.8825876080457294,0.4731181600805851,0.316915940661356,0.30709749194519886,0.20492445457501823
3.0,0.08830448985099792,0.0002653513965163838,"train",3240.0,"2021-11-24 17:16:06.125338","","","","","","",""
3.0,0.08896920084953308,0.0002675689261074836,"train",3260.0,"2021-11-24 17:16:09.742402","","","","","","",""
3.0,0.07031030207872391,0.00026979820688618605,"train",3280.0,"2021-11-24 17:16:14.139861","","","","","","",""
3.0,0.07655349373817444,0.00027203920493788433,"train",3300.0,"2021-11-24 17:16:17.650165","","","","","","",""
3.0,0.07869907468557358,0.00027429188616971277,"train",3320.0,"2021-11-24 17:16:21.115930","","","","","","",""
3.0,0.061535827815532684,0.0002765562163110668,"train",3340.0,"2021-11-24 17:16:24.506247","","","","","","",""
3.0,0.05700506642460823,0.00027883216091412503,"train",3360.0,"2021-11-24 17:16:27.962824","","","","","","",""
3.0,0.06266601383686066,0.0002811196853543707,"train",3380.0,"2021-11-24 17:16:31.424829","","","","","","",""
3.0,0.0872604176402092,0.00028341875483112134,"train",3400.0,"2021-11-24 17:16:34.891014","","","","","","",""
3.0,0.06676255911588669,0.00028572933436805644,"train",3420.0,"2021-11-24 17:16:39.027671","","","","","","",""
3.0,0.06110849231481552,0.0002880513888137504,"train",3440.0,"2021-11-24 17:16:42.662248","","","","","","",""
3.0,0.06330742686986923,0.0002903848828422063,"train",3460.0,"2021-11-24 17:16:46.062392","","","","","","",""
3.0,0.05639798939228058,0.00029272978095339465,"train",3480.0,"2021-11-24 17:16:49.384018","","","","","","",""
3.0,0.07013986259698868,0.00029508604747379243,"train",3500.0,"2021-11-24 17:16:52.822454","","","","","","",""
3.0,0.0790766105055809,0.00029745364655692653,"train",3520.0,"2021-11-24 17:16:56.316111","","","","","","",""
3.0,0.08233948796987534,0.0002998325421839181,"train",3540.0,"2021-11-24 17:16:59.797246","","","","","","",""
3.0,0.051470253616571426,0.0003022226981640318,"train",3560.0,"2021-11-24 17:17:03.274818","","","","","","",""
3.0,0.09107817709445953,0.00030462407813522494,"train",3580.0,"2021-11-24 17:17:07.516405","","","","","","",""
3.0,0.06616200506687164,0.0003070366455647027,"train",3600.0,"2021-11-24 17:17:10.948510","","","","","","",""
3.0,0.0679628774523735,0.000309460363749471,"train",3620.0,"2021-11-24 17:17:14.392123","","","","","","",""
3.0,0.06549175083637238,0.0003118951958168978,"train",3640.0,"2021-11-24 17:17:17.755546","","","","","","",""
3.0,0.08181912451982498,0.0003143411047252722,"train",3660.0,"2021-11-24 17:17:21.162560","","","","","","",""
3.0,0.08818498998880386,0.0003167980532643691,"train",3680.0,"2021-11-24 17:17:24.629515","","","","","","",""
3.0,0.07730388641357422,0.0003192660040560141,"train",3700.0,"2021-11-24 17:17:28.055488","","","","","","",""
3.0,0.07625098526477814,0.0003217449195546528,"train",3720.0,"2021-11-24 17:17:32.295491","","","","","","",""
3.0,0.07201748341321945,0.00032423476204792244,"train",3740.0,"2021-11-24 17:17:35.802164","","","","","","",""
3.0,0.0653967410326004,0.0003267354936572248,"train",3760.0,"2021-11-24 17:17:39.264848","","","","","","",""
3.0,0.05949239805340767,0.0003292470763383026,"train",3780.0,"2021-11-24 17:17:42.742530","","","","","","",""
3.0,0.06034696474671364,0.0003317694718818192,"train",3800.0,"2021-11-24 17:17:46.180391","","","","","","",""
3.0,0.05935254693031311,0.00033430264191393853,"train",3820.0,"2021-11-24 17:17:49.658553","","","","","","",""
3.0,0.08612130582332611,0.0003368465478969097,"train",3840.0,"2021-11-24 17:17:53.010019","","","","","","",""
3.0,0.05029783025383949,0.0003394011511296533,"train",3860.0,"2021-11-24 17:17:57.143715","","","","","","",""
3.0,0.06175563484430313,0.0003419664127483496,"train",3880.0,"2021-11-24 17:18:00.524672","","","","","","",""
3.0,0.08083435148000717,0.00034454229372703074,"train",3900.0,"2021-11-24 17:18:03.975864","","","","","","",""
3.0,0.05970621481537819,0.00034712875487817314,"train",3920.0,"2021-11-24 17:18:07.467555","","","","","","",""
3.0,0.06242649629712105,0.00034972575685329526,"train",3940.0,"2021-11-24 17:18:11.011237","","","","","","",""
3.0,0.07722742855548859,0.0003523332601435541,"train",3960.0,"2021-11-24 17:18:14.457763","","","","","","",""
3.0,0.04671083390712738,0.00035495122508034916,"train",3980.0,"2021-11-24 17:18:18.123964","","","","","","",""
3.0,0.09176838397979736,0.0003575796118359231,"train",4000.0,"2021-11-24 17:18:22.432958","","","","","","",""
3.0,0.07232709974050522,0.00036021838042396906,"train",4020.0,"2021-11-24 17:18:25.812438","","","","","","",""
3.0,0.0654773935675621,0.0003628674907002389,"train",4040.0,"2021-11-24 17:18:29.313566","","","","","","",""
3.0,0.05051582306623459,0.00036552690236315395,"train",4060.0,"2021-11-24 17:18:32.807276","","","","","","",""
3.0,0.055078234523534775,0.00036819657495441773,"train",4080.0,"2021-11-24 17:18:36.192907","","","","","","",""
3.0,0.08801139891147614,0.0003708764678596317,"train",4100.0,"2021-11-24 17:18:39.631254","","","","","","",""
3.0,0.07515569776296616,0.00037356654030891293,"train",4120.0,"2021-11-24 17:18:43.077991","","","","","","",""
3.0,0.07067815214395523,0.0003762667513775148,"train",4140.0,"2021-11-24 17:18:47.123364","","","","","","",""
3.0,0.0898272693157196,0.0003789770599864498,"train",4160.0,"2021-11-24 17:18:50.447774","","","","","","",""
3.0,0.08956623077392578,0.000381697424903113,"train",4180.0,"2021-11-24 17:18:53.881539","","","","","","",""
3.0,0.0865635797381401,0.0003844278047419108,"train",4200.0,"2021-11-24 17:18:57.316922","","","","","","",""
3.0,0.06217101216316223,0.0003871681579648903,"train",4220.0,"2021-11-24 17:19:00.740594","","","","","","",""
3.0,0.09312305599451065,0.0003899184428823709,"train",4240.0,"2021-11-24 17:19:04.198715","","","","","","",""
3.0,0.06396128237247467,0.0003926786176535783,"train",4260.0,"2021-11-24 17:19:07.700502","","","","","","",""
3.0,0.08511800318956375,0.0003954486402872818,"train",4280.0,"2021-11-24 17:19:12.095447","","","","","","",""
3.0,"","","train",4296.0,"2021-11-24 17:20:46.826294",0.5430837517281525,0.46060071286744547,0.9091244661517183,0.5381463856062992,0.36168879271089244,0.3591838296701918,0.24948885421939884
3.0,"","","val",4296.0,"2021-11-24 17:21:12.075697",0.533283080134524,0.4512081023138848,0.9042596248818489,0.5238909306726384,0.353859779486136,0.34859724526384694,0.2414406596766037
4.0,0.054646603763103485,0.0003982284686424324,"train",4300.0,"2021-11-24 17:21:15.525599","","","","","","",""
4.0,0.060478854924440384,0.0004010180604288045,"train",4320.0,"2021-11-24 17:21:19.208737","","","","","","",""
4.0,0.07543057203292847,0.00040381737320763873,"train",4340.0,"2021-11-24 17:21:22.742421","","","","","","",""
4.0,0.07149290293455124,0.0004066263643922878,"train",4360.0,"2021-11-24 17:21:26.174712","","","","","","",""
4.0,0.07558637857437134,0.0004094449912488646,"train",4380.0,"2021-11-24 17:21:29.594254","","","","","","",""
4.0,0.0646766647696495,0.0004122732108968923,"train",4400.0,"2021-11-24 17:21:33.075103","","","","","","",""
4.0,0.07227160781621933,0.0004151109803099558,"train",4420.0,"2021-11-24 17:21:37.266493","","","","","","",""
4.0,0.06361857801675797,0.00041795825631635764,"train",4440.0,"2021-11-24 17:21:40.780346","","","","","","",""
4.0,0.06773684918880463,0.0004208149955997739,"train",4460.0,"2021-11-24 17:21:44.391038","","","","","","",""
4.0,0.06735369563102722,0.0004236811546999141,"train",4480.0,"2021-11-24 17:21:47.807526","","","","","","",""
4.0,0.057155508548021317,0.0004265566900131805,"train",4500.0,"2021-11-24 17:21:51.179171","","","","","","",""
4.0,0.09566634148359299,0.0004294415577933337,"train",4520.0,"2021-11-24 17:21:54.664545","","","","","","",""
4.0,0.05832653492689133,0.00043233571415215717,"train",4540.0,"2021-11-24 17:21:58.122517","","","","","","",""
4.0,0.07150661945343018,0.0004352391150601242,"train",4560.0,"2021-11-24 17:22:02.222892","","","","","","",""
4.0,0.06132111698389053,0.0004381517163470684,"train",4580.0,"2021-11-24 17:22:05.656014","","","","","","",""
4.0,0.06382910162210464,0.00044107347370285683,"train",4600.0,"2021-11-24 17:22:09.175308","","","","","","",""
4.0,0.0791594460606575,0.00044400434267806194,"train",4620.0,"2021-11-24 17:22:12.700528","","","","","","",""
4.0,0.06900928914546967,0.00044694427868463907,"train",4640.0,"2021-11-24 17:22:16.087558","","","","","","",""
4.0,0.061137937009334564,0.00044989323699660467,"train",4660.0,"2021-11-24 17:22:19.482844","","","","","","",""
4.0,0.059461452066898346,0.0004528511727507165,"train",4680.0,"2021-11-24 17:22:22.885696","","","","","","",""
4.0,0.08526795357465744,0.00045581804094715645,"train",4700.0,"2021-11-24 17:22:26.992398","","","","","","",""
4.0,0.08106136322021484,0.00045879379645021425,"train",4720.0,"2021-11-24 17:22:30.412228","","","","","","",""
4.0,0.06994868814945221,0.0004617783939889759,"train",4740.0,"2021-11-24 17:22:33.693040","","","","","","",""
4.0,0.07034457474946976,0.0004647717881580103,"train",4760.0,"2021-11-24 17:22:37.188388","","","","","","",""
4.0,0.06583376228809357,0.0004677739334180617,"train",4780.0,"2021-11-24 17:22:40.716894","","","","","","",""
4.0,0.0647151842713356,0.00047078478409674144,"train",4800.0,"2021-11-24 17:22:44.126496","","","","","","",""
4.0,0.0742398351430893,0.00047380429438922305,"train",4820.0,"2021-11-24 17:22:47.529538","","","","","","",""
4.0,0.07619687169790268,0.00047683241835893946,"train",4840.0,"2021-11-24 17:22:51.113435","","","","","","",""
4.0,0.06860826909542084,0.0004798691099382815,"train",4860.0,"2021-11-24 17:22:55.227361","","","","","","",""
4.0,0.0874200165271759,0.0004829143229292986,"train",4880.0,"2021-11-24 17:22:58.485765","","","","","","",""
4.0,0.055370818823575974,0.0004859680110044023,"train",4900.0,"2021-11-24 17:23:01.799112","","","","","","",""
4.0,0.057413455098867416,0.0004890301277070699,"train",4920.0,"2021-11-24 17:23:05.357753","","","","","","",""
4.0,0.06195635348558426,0.0004921006264525525,"train",4940.0,"2021-11-24 17:23:08.997195","","","","","","",""
4.0,0.0740380510687828,0.0004951794605285824,"train",4960.0,"2021-11-24 17:23:12.474937","","","","","","",""
4.0,0.06704428791999817,0.0004982665830960853,"train",4980.0,"2021-11-24 17:23:15.941219","","","","","","",""
4.0,0.05715491250157356,0.0005013619471898913,"train",5000.0,"2021-11-24 17:23:20.137277","","","","","","",""
4.0,0.06899622082710266,0.0005044655057194504,"train",5020.0,"2021-11-24 17:23:23.569303","","","","","","",""
4.0,0.06868740171194077,0.0005075772114695486,"train",5040.0,"2021-11-24 17:23:26.988491","","","","","","",""
4.0,0.07892781496047974,0.0005106970171010257,"train",5060.0,"2021-11-24 17:23:30.427527","","","","","","",""
4.0,0.052977416664361954,0.0005138248751514966,"train",5080.0,"2021-11-24 17:23:33.817956","","","","","","",""
4.0,0.08968380838632584,0.0005169607380360731,"train",5100.0,"2021-11-24 17:23:37.246238","","","","","","",""
4.0,0.059328027069568634,0.000520104558048086,"train",5120.0,"2021-11-24 17:23:40.604411","","","","","","",""
4.0,0.07456409186124802,0.0005232562873598136,"train",5140.0,"2021-11-24 17:23:44.663805","","","","","","",""
4.0,0.04162570461630821,0.0005264158780232072,"train",5160.0,"2021-11-24 17:23:48.107964","","","","","","",""
4.0,0.07424891740083694,0.0005295832819706228,"train",5180.0,"2021-11-24 17:23:51.516373","","","","","","",""
4.0,0.055055029690265656,0.0005327584510155488,"train",5200.0,"2021-11-24 17:23:54.879608","","","","","","",""
4.0,0.061721883714199066,0.000535941336853343,"train",5220.0,"2021-11-24 17:23:58.385469","","","","","","",""
4.0,0.06179070100188255,0.0005391318910619655,"train",5240.0,"2021-11-24 17:24:01.858675","","","","","","",""
4.0,0.07037877291440964,0.0005423300651027144,"train",5260.0,"2021-11-24 17:24:05.323999","","","","","","",""
4.0,0.052977029234170914,0.0005455358103209663,"train",5280.0,"2021-11-24 17:24:09.450411","","","","","","",""
4.0,0.06254088878631592,0.0005487490779469157,"train",5300.0,"2021-11-24 17:24:12.836877","","","","","","",""
4.0,0.07492969185113907,0.000551969819096316,"train",5320.0,"2021-11-24 17:24:16.210965","","","","","","",""
4.0,0.06528333574533463,0.0005551979847712252,"train",5340.0,"2021-11-24 17:24:19.621837","","","","","","",""
4.0,0.08888985961675644,0.0005584335258607489,"train",5360.0,"2021-11-24 17:24:23.025872","","","","","","",""
4.0,"","","train",5370.0,"2021-11-24 17:26:01.950494",0.546911154769701,0.47578018587839155,0.9111099489862993,0.5239325802930077,0.3595442877768455,0.36624980534404133,0.24756231302318385
4.0,"","","val",5370.0,"2021-11-24 17:26:27.081104",0.5355444740809463,0.4601602081255731,0.9062743171157268,0.5096950716230634,0.3475609882173783,0.35147674609149776,0.2347708004051018
5.0,0.0840802788734436,0.0005616763931417894,"train",5380.0,"2021-11-24 17:26:31.719895","","","","","","",""
5.0,0.0648813396692276,0.0005649265372797939,"train",5400.0,"2021-11-24 17:26:35.369473","","","","","","",""
5.0,0.08870328962802887,0.0005681839088295046,"train",5420.0,"2021-11-24 17:26:39.673573","","","","","","",""
5.0,0.05896984785795212,0.0005714484582357109,"train",5440.0,"2021-11-24 17:26:43.145000","","","","","","",""
5.0,0.060204457491636276,0.0005747201358340048,"train",5460.0,"2021-11-24 17:26:46.616601","","","","","","",""
5.0,0.0952676460146904,0.0005779988918515344,"train",5480.0,"2021-11-24 17:26:50.126371","","","","","","",""
5.0,0.05179201066493988,0.0005812846764077623,"train",5500.0,"2021-11-24 17:26:53.585007","","","","","","",""
5.0,0.08079385757446289,0.0005845774395152243,"train",5520.0,"2021-11-24 17:26:57.052089","","","","","","",""
5.0,0.059875521808862686,0.0005878771310802895,"train",5540.0,"2021-11-24 17:27:00.687489","","","","","","",""
5.0,0.06551375240087509,0.0005911837009039229,"train",5560.0,"2021-11-24 17:27:04.949291","","","","","","",""
5.0,0.060824185609817505,0.0005944970986824485,"train",5580.0,"2021-11-24 17:27:08.414572","","","","","","",""
5.0,0.04657910764217377,0.000597817274008315,"train",5600.0,"2021-11-24 17:27:11.957756","","","","","","",""
5.0,0.048804230988025665,0.0006011441763708635,"train",5620.0,"2021-11-24 17:27:15.639113","","","","","","",""
5.0,0.045994777232408524,0.0006044777551570929,"train",5640.0,"2021-11-24 17:27:19.135205","","","","","","",""
5.0,0.06135139241814613,0.000607817959652434,"train",5660.0,"2021-11-24 17:27:22.610868","","","","","","",""
5.0,0.060487136244773865,0.0006111647390415189,"train",5680.0,"2021-11-24 17:27:26.022345","","","","","","",""
5.0,0.04858238622546196,0.0006145180424089525,"train",5700.0,"2021-11-24 17:27:30.190125","","","","","","",""
5.0,0.07323719561100006,0.0006178778187400902,"train",5720.0,"2021-11-24 17:27:33.627825","","","","","","",""
5.0,0.08704354614019394,0.0006212440169218129,"train",5740.0,"2021-11-24 17:27:37.027747","","","","","","",""
5.0,0.05048806220293045,0.0006246165857433027,"train",5760.0,"2021-11-24 17:27:40.374731","","","","","","",""
5.0,0.059870339930057526,0.0006279954738968251,"train",5780.0,"2021-11-24 17:27:43.769185","","","","","","",""
5.0,0.09810808300971985,0.0006313806299785075,"train",5800.0,"2021-11-24 17:27:47.151569","","","","","","",""
5.0,0.08876318484544754,0.0006347720024891209,"train",5820.0,"2021-11-24 17:27:50.536220","","","","","","",""
5.0,0.07951369881629944,0.0006381695398348657,"train",5840.0,"2021-11-24 17:27:54.662947","","","","","","",""
5.0,0.0648120865225792,0.0006415731903281542,"train",5860.0,"2021-11-24 17:27:58.120269","","","","","","",""
5.0,0.04686456546187401,0.0006449829021883979,"train",5880.0,"2021-11-24 17:28:01.560313","","","","","","",""
5.0,0.05575374513864517,0.0006483986235427956,"train",5900.0,"2021-11-24 17:28:04.964091","","","","","","",""
5.0,0.08604767173528671,0.0006518203024271213,"train",5920.0,"2021-11-24 17:28:08.351151","","","","","","",""
5.0,0.05226844176650047,0.0006552478867865169,"train",5940.0,"2021-11-24 17:28:11.751490","","","","","","",""
5.0,0.04239794239401817,0.0006586813244762815,"train",5960.0,"2021-11-24 17:28:15.195397","","","","","","",""
5.0,0.06807080656290054,0.0006621205632626672,"train",5980.0,"2021-11-24 17:28:19.475663","","","","","","",""
5.0,0.08904887735843658,0.0006655655508236717,"train",6000.0,"2021-11-24 17:28:23.071259","","","","","","",""
5.0,0.057783011347055435,0.0006690162347498356,"train",6020.0,"2021-11-24 17:28:26.570180","","","","","","",""
5.0,0.06345811486244202,0.0006724725625450389,"train",6040.0,"2021-11-24 17:28:30.018461","","","","","","",""
5.0,0.06852404773235321,0.0006759344816273003,"train",6060.0,"2021-11-24 17:28:33.470575","","","","","","",""
5.0,0.04389225319027901,0.0006794019393295771,"train",6080.0,"2021-11-24 17:28:36.913215","","","","","","",""
5.0,0.07462169975042343,0.0006828748829005654,"train",6100.0,"2021-11-24 17:28:40.337175","","","","","","",""
5.0,0.035487134009599686,0.0006863532595055041,"train",6120.0,"2021-11-24 17:28:44.456868","","","","","","",""
5.0,0.06512679159641266,0.0006898370162269777,"train",6140.0,"2021-11-24 17:28:47.942004","","","","","","",""
5.0,0.0707070454955101,0.0006933261000657217,"train",6160.0,"2021-11-24 17:28:51.450057","","","","","","",""
5.0,0.05207088589668274,0.000696820457941429,"train",6180.0,"2021-11-24 17:28:54.885685","","","","","","",""
5.0,0.05673525109887123,0.000700320036693557,"train",6200.0,"2021-11-24 17:28:58.382827","","","","","","",""
5.0,0.0732964426279068,0.0007038247830821358,"train",6220.0,"2021-11-24 17:29:01.874679","","","","","","",""
5.0,0.05114610493183136,0.0007073346437885815,"train",6240.0,"2021-11-24 17:29:05.354348","","","","","","",""
5.0,0.0640072450041771,0.000710849565416502,"train",6260.0,"2021-11-24 17:29:08.813729","","","","","","",""
5.0,0.09481461346149445,0.0007143694944925134,"train",6280.0,"2021-11-24 17:29:12.878709","","","","","","",""
5.0,0.072642482817173,0.0007178943774670524,"train",6300.0,"2021-11-24 17:29:16.301646","","","","","","",""
5.0,0.06321124732494354,0.0007214241607151901,"train",6320.0,"2021-11-24 17:29:19.610370","","","","","","",""
5.0,0.0887768417596817,0.000724958790537449,"train",6340.0,"2021-11-24 17:29:23.076234","","","","","","",""
5.0,0.0698496624827385,0.0007284982131606195,"train",6360.0,"2021-11-24 17:29:26.448618","","","","","","",""
5.0,0.08827435225248337,0.0007320423747385781,"train",6380.0,"2021-11-24 17:29:29.739536","","","","","","",""
5.0,0.04496683552861214,0.0007355912213531054,"train",6400.0,"2021-11-24 17:29:33.086071","","","","","","",""
5.0,0.0565328523516655,0.000739144699014708,"train",6420.0,"2021-11-24 17:29:37.172270","","","","","","",""
5.0,0.06473562866449356,0.0007427027536634401,"train",6440.0,"2021-11-24 17:29:40.549412","","","","","","",""
5.0,"","","train",6444.0,"2021-11-24 17:31:13.917798",0.5437240777122899,0.4918904016243048,0.9209641821713412,0.5336573844525412,0.39844259638217217,0.4048280811744482,0.2657465585728947
5.0,"","","val",6444.0,"2021-11-24 17:31:39.025587",0.5302678882059608,0.47424610192337496,0.9139918857769972,0.5157809320363715,0.38617104716362416,0.3890072575235263,0.2563355443518506
6.0,0.05634060502052307,0.0007462653311697235,"train",6460.0,"2021-11-24 17:31:44.770249","","","","","","",""
6.0,0.04112083837389946,0.0007498323773351733,"train",6480.0,"2021-11-24 17:31:48.269786","","","","","","",""
6.0,0.053957775235176086,0.0007534038378934223,"train",6500.0,"2021-11-24 17:31:51.649599","","","","","","",""
6.0,0.05511471629142761,0.0007569796585109453,"train",6520.0,"2021-11-24 17:31:55.092305","","","","","","",""
6.0,0.0889580249786377,0.0007605597847878862,"train",6540.0,"2021-11-24 17:31:58.551380","","","","","","",""
6.0,0.056511588394641876,0.0007641441622588871,"train",6560.0,"2021-11-24 17:32:02.736937","","","","","","",""
6.0,0.046275682747364044,0.0007677327363939143,"train",6580.0,"2021-11-24 17:32:06.086177","","","","","","",""
6.0,0.07269858568906784,0.0007713254525990895,"train",6600.0,"2021-11-24 17:32:09.434715","","","","","","",""
6.0,0.05987056717276573,0.0007749222562175211,"train",6620.0,"2021-11-24 17:32:12.890982","","","","","","",""
6.0,0.05965027958154678,0.000778523092530133,"train",6640.0,"2021-11-24 17:32:16.394205","","","","","","",""
6.0,0.04642181470990181,0.0007821279067564996,"train",6660.0,"2021-11-24 17:32:19.889036","","","","","","",""
6.0,0.05735449865460396,0.0007857366440556786,"train",6680.0,"2021-11-24 17:32:23.307446","","","","","","",""
6.0,0.06003451719880104,0.0007893492495270442,"train",6700.0,"2021-11-24 17:32:27.441552","","","","","","",""
6.0,0.07502751797437668,0.0007929656682111239,"train",6720.0,"2021-11-24 17:32:30.890721","","","","","","",""
6.0,0.06524886935949326,0.0007965858450904332,"train",6740.0,"2021-11-24 17:32:34.144314","","","","","","",""
6.0,0.057663287967443466,0.000800209725090314,"train",6760.0,"2021-11-24 17:32:37.501397","","","","","","",""
6.0,0.07336100935935974,0.0008038372530797706,"train",6780.0,"2021-11-24 17:32:40.935184","","","","","","",""
6.0,0.10788489133119583,0.0008074683738723109,"train",6800.0,"2021-11-24 17:32:44.340711","","","","","","",""
6.0,0.05178909748792648,0.0008111030322267832,"train",6820.0,"2021-11-24 17:32:47.754746","","","","","","",""
6.0,0.05007823929190636,0.0008147411728482187,"train",6840.0,"2021-11-24 17:32:51.924509","","","","","","",""
6.0,0.07670801877975464,0.0008183827403886721,"train",6860.0,"2021-11-24 17:32:55.487791","","","","","","",""
6.0,0.07592298090457916,0.0008220276794480633,"train",6880.0,"2021-11-24 17:32:58.976678","","","","","","",""
6.0,0.05900579318404198,0.0008256759345750203,"train",6900.0,"2021-11-24 17:33:02.252789","","","","","","",""
6.0,0.06918197870254517,0.0008293274502677234,"train",6920.0,"2021-11-24 17:33:05.578820","","","","","","",""
6.0,0.06316778808832169,0.0008329821709747486,"train",6940.0,"2021-11-24 17:33:09.056188","","","","","","",""
6.0,0.05982297286391258,0.0008366400410959136,"train",6960.0,"2021-11-24 17:33:12.537174","","","","","","",""
6.0,0.07839114964008331,0.000840301004983123,"train",6980.0,"2021-11-24 17:33:16.618913","","","","","","",""
6.0,0.05197448283433914,0.0008439650069412147,"train",7000.0,"2021-11-24 17:33:20.040645","","","","","","",""
6.0,0.08028290420770645,0.0008476319912288095,"train",7020.0,"2021-11-24 17:33:23.447054","","","","","","",""
6.0,0.06511377543210983,0.0008513019020591544,"train",7040.0,"2021-11-24 17:33:26.818877","","","","","","",""
6.0,0.049677684903144836,0.0008549746836009771,"train",7060.0,"2021-11-24 17:33:30.316192","","","","","","",""
6.0,0.08426083624362946,0.0008586502799793306,"train",7080.0,"2021-11-24 17:33:33.748720","","","","","","",""
6.0,0.07096787542104721,0.0008623286352764453,"train",7100.0,"2021-11-24 17:33:37.166344","","","","","","",""
6.0,0.07618644833564758,0.0008660096935325802,"train",7120.0,"2021-11-24 17:33:41.198426","","","","","","",""
6.0,0.06075809895992279,0.0008696933987468731,"train",7140.0,"2021-11-24 17:33:44.509540","","","","","","",""
6.0,0.061813704669475555,0.0008733796948781924,"train",7160.0,"2021-11-24 17:33:47.760885","","","","","","",""
6.0,0.09045181423425674,0.0008770685258459915,"train",7180.0,"2021-11-24 17:33:51.136565","","","","","","",""
6.0,0.08125727623701096,0.0008807598355311595,"train",7200.0,"2021-11-24 17:33:54.425910","","","","","","",""
6.0,0.08745695650577545,0.0008844535677768764,"train",7220.0,"2021-11-24 17:33:57.724037","","","","","","",""
6.0,0.08115647733211517,0.0008881496663894681,"train",7240.0,"2021-11-24 17:34:01.146472","","","","","","",""
6.0,0.0562988705933094,0.0008918480751392592,"train",7260.0,"2021-11-24 17:34:05.170024","","","","","","",""
6.0,0.052796851843595505,0.00089554873776143,"train",7280.0,"2021-11-24 17:34:08.442516","","","","","","",""
6.0,0.05992938578128815,0.0008992515979568724,"train",7300.0,"2021-11-24 17:34:11.832796","","","","","","",""
6.0,0.05748404189944267,0.0009029565993930457,"train",7320.0,"2021-11-24 17:34:15.300503","","","","","","",""
6.0,0.07299581170082092,0.0009066636857048339,"train",7340.0,"2021-11-24 17:34:18.754234","","","","","","",""
6.0,0.0590985044836998,0.0009103728004954039,"train",7360.0,"2021-11-24 17:34:22.218303","","","","","","",""
6.0,0.049426283687353134,0.0009140838873370617,"train",7380.0,"2021-11-24 17:34:25.664610","","","","","","",""
6.0,0.07683850079774857,0.0009177968897721136,"train",7400.0,"2021-11-24 17:34:29.772210","","","","","","",""
6.0,0.0593288317322731,0.0009215117513137218,"train",7420.0,"2021-11-24 17:34:33.113190","","","","","","",""
6.0,0.07884317636489868,0.0009252284154467663,"train",7440.0,"2021-11-24 17:34:36.452634","","","","","","",""
6.0,0.052622172981500626,0.0009289468256287042,"train",7460.0,"2021-11-24 17:34:39.833666","","","","","","",""
6.0,0.05029823258519173,0.0009326669252904287,"train",7480.0,"2021-11-24 17:34:43.175426","","","","","","",""
6.0,0.07317926734685898,0.0009363886578371307,"train",7500.0,"2021-11-24 17:34:46.579978","","","","","","",""
6.0,"","","train",7518.0,"2021-11-24 17:36:22.851927",0.5725824055882995,0.5253943573778856,0.9319215619042486,0.5665749386185036,0.4081101888402359,0.4234098512611811,0.282574267027276
6.0,"","","val",7518.0,"2021-11-24 17:36:47.874593",0.5636669372608141,0.5043283454928587,0.9241284322514114,0.5518911342081192,0.39602997226098496,0.4082063028272599,0.269814760307776
7.0,0.06812924146652222,0.0009401119666491604,"train",7520.0,"2021-11-24 17:36:50.963978","","","","","","",""
7.0,0.0578935369849205,0.0009438367950828869,"train",7540.0,"2021-11-24 17:36:55.606448","","","","","","",""
7.0,0.09460790455341339,0.000947563086471561,"train",7560.0,"2021-11-24 17:36:59.172247","","","","","","",""
7.0,0.051381900906562805,0.0009512907841261783,"train",7580.0,"2021-11-24 17:37:02.617501","","","","","","",""
7.0,0.041288215667009354,0.0009550198313363391,"train",7600.0,"2021-11-24 17:37:05.983420","","","","","","",""
7.0,0.05306321755051613,0.0009587501713711128,"train",7620.0,"2021-11-24 17:37:09.377276","","","","","","",""
7.0,0.07274063676595688,0.0009624817474799023,"train",7640.0,"2021-11-24 17:37:12.821791","","","","","","",""
7.0,0.05076843872666359,0.0009662145028933038,"train",7660.0,"2021-11-24 17:37:16.277678","","","","","","",""
7.0,0.058258794248104095,0.0009699483808239733,"train",7680.0,"2021-11-24 17:37:20.502754","","","","","","",""
7.0,0.05151018127799034,0.0009736833244674895,"train",7700.0,"2021-11-24 17:37:24.044867","","","","","","",""
7.0,0.059909652918577194,0.0009774192770032192,"train",7720.0,"2021-11-24 17:37:27.634285","","","","","","",""
7.0,0.056649163365364075,0.0009811561815951785,"train",7740.0,"2021-11-24 17:37:31.146942","","","","","","",""
7.0,0.08722100406885147,0.0009848939813929015,"train",7760.0,"2021-11-24 17:37:34.619818","","","","","","",""
7.0,0.06361506134271622,0.0009886326195323026,"train",7780.0,"2021-11-24 17:37:38.063608","","","","","","",""
7.0,0.05481327697634697,0.0009923720391365428,"train",7800.0,"2021-11-24 17:37:41.501624","","","","","","",""
7.0,0.07705774903297424,0.000996112183316893,"train",7820.0,"2021-11-24 17:37:45.635731","","","","","","",""
7.0,0.08088301122188568,0.0009998529951736029,"train",7840.0,"2021-11-24 17:37:49.094318","","","","","","",""
7.0,0.039706576615571976,0.0010035944177967638,"train",7860.0,"2021-11-24 17:37:52.604663","","","","","","",""
7.0,0.05478542670607567,0.0010073363942671744,"train",7880.0,"2021-11-24 17:37:56.070885","","","","","","",""
7.0,0.07203614711761475,0.0010110788676572094,"train",7900.0,"2021-11-24 17:37:59.462862","","","","","","",""
7.0,0.04844922944903374,0.0010148217810316822,"train",7920.0,"2021-11-24 17:38:03.053000","","","","","","",""
7.0,0.05205381289124489,0.0010185650774487127,"train",7940.0,"2021-11-24 17:38:06.511231","","","","","","",""
7.0,0.05721177160739899,0.0010223086999605951,"train",7960.0,"2021-11-24 17:38:09.943447","","","","","","",""
7.0,0.057657625526189804,0.0010260525916146609,"train",7980.0,"2021-11-24 17:38:14.349223","","","","","","",""
7.0,0.0889938548207283,0.0010297966954541469,"train",8000.0,"2021-11-24 17:38:17.893633","","","","","","",""
7.0,0.07160337269306183,0.001033540954519064,"train",8020.0,"2021-11-24 17:38:21.364755","","","","","","",""
7.0,0.060180939733982086,0.0010372853118470592,"train",8040.0,"2021-11-24 17:38:24.743850","","","","","","",""
7.0,0.07866974920034409,0.0010410297104742857,"train",8060.0,"2021-11-24 17:38:28.138134","","","","","","",""
7.0,0.04702668637037277,0.0010447740934362692,"train",8080.0,"2021-11-24 17:38:31.518453","","","","","","",""
7.0,0.07395797222852707,0.0010485184037687715,"train",8100.0,"2021-11-24 17:38:34.877957","","","","","","",""
7.0,0.08248450607061386,0.0010522625845086615,"train",8120.0,"2021-11-24 17:38:38.993340","","","","","","",""
7.0,0.07381978631019592,0.0010560065786947796,"train",8140.0,"2021-11-24 17:38:42.348562","","","","","","",""
7.0,0.0696156695485115,0.0010597503293688013,"train",8160.0,"2021-11-24 17:38:45.805265","","","","","","",""
7.0,0.04497489705681801,0.001063493779576111,"train",8180.0,"2021-11-24 17:38:49.332684","","","","","","",""
7.0,0.04422755539417267,0.0010672368723666614,"train",8200.0,"2021-11-24 17:38:52.832620","","","","","","",""
7.0,0.07119107246398926,0.0010709795507958426,"train",8220.0,"2021-11-24 17:38:56.320919","","","","","","",""
7.0,0.06662938743829727,0.0010747217579253504,"train",8240.0,"2021-11-24 17:38:59.779869","","","","","","",""
7.0,0.07425092905759811,0.0010784634368240487,"train",8260.0,"2021-11-24 17:39:03.870619","","","","","","",""
7.0,0.07490511983633041,0.0010822045305688382,"train",8280.0,"2021-11-24 17:39:07.254605","","","","","","",""
7.0,0.05711517482995987,0.0010859449822455227,"train",8300.0,"2021-11-24 17:39:10.668278","","","","","","",""
7.0,0.05765797570347786,0.001089684734949672,"train",8320.0,"2021-11-24 17:39:14.012357","","","","","","",""
7.0,0.06624726206064224,0.00109342373178749,"train",8340.0,"2021-11-24 17:39:17.456385","","","","","","",""
7.0,0.05401400476694107,0.0010971619158766821,"train",8360.0,"2021-11-24 17:39:20.795588","","","","","","",""
7.0,0.06748457252979279,0.0011008992303473152,"train",8380.0,"2021-11-24 17:39:24.239649","","","","","","",""
7.0,0.0734216570854187,0.001104635618342687,"train",8400.0,"2021-11-24 17:39:28.362858","","","","","","",""
7.0,0.0634177178144455,0.001108371023020191,"train",8420.0,"2021-11-24 17:39:31.746714","","","","","","",""
7.0,0.07047408819198608,0.0011121053875521787,"train",8440.0,"2021-11-24 17:39:35.197244","","","","","","",""
7.0,0.0684095025062561,0.0011158386551268257,"train",8460.0,"2021-11-24 17:39:38.644478","","","","","","",""
7.0,0.06159248948097229,0.0011195707689489972,"train",8480.0,"2021-11-24 17:39:42.020782","","","","","","",""
7.0,0.04846981167793274,0.0011233016722411097,"train",8500.0,"2021-11-24 17:39:45.424121","","","","","","",""
7.0,0.047146424651145935,0.0011270313082439951,"train",8520.0,"2021-11-24 17:39:48.865672","","","","","","",""
7.0,0.06489352881908417,0.001130759620217767,"train",8540.0,"2021-11-24 17:39:52.957918","","","","","","",""
7.0,0.05792088806629181,0.0011344865514426794,"train",8560.0,"2021-11-24 17:39:56.406970","","","","","","",""
7.0,0.06503890454769135,0.0011382120452199938,"train",8580.0,"2021-11-24 17:39:59.881224","","","","","","",""
7.0,"","","train",8592.0,"2021-11-24 17:41:33.179980",0.5827694098813941,0.5489454264840442,0.9338422606237894,0.5802866690672355,0.43051934601295766,0.4405961210300338,0.2973120563823037
7.0,"","","val",8592.0,"2021-11-24 17:41:58.596970",0.5724805752058448,0.5253012972663974,0.9246935077743086,0.563249949674432,0.41856416169626376,0.42486191562641457,0.2832581154776167
8.0,0.08741014450788498,0.001141936044872839,"train",8600.0,"2021-11-24 17:42:02.897852","","","","","","",""
8.0,0.04962708428502083,0.0011456584937470744,"train",8620.0,"2021-11-24 17:42:06.545695","","","","","","",""
8.0,0.07089120894670486,0.0011493793352121522,"train",8640.0,"2021-11-24 17:42:09.970226","","","","","","",""
8.0,0.06182347238063812,0.0011530985126619784,"train",8660.0,"2021-11-24 17:42:13.327429","","","","","","",""
8.0,0.07231900095939636,0.001156815969515773,"train",8680.0,"2021-11-24 17:42:17.488727","","","","","","",""
8.0,0.03466975316405296,0.001160531649218934,"train",8700.0,"2021-11-24 17:42:20.882747","","","","","","",""
8.0,0.05740554258227348,0.001164245495243894,"train",8720.0,"2021-11-24 17:42:24.254605","","","","","","",""
8.0,0.049525000154972076,0.0011679574510909817,"train",8740.0,"2021-11-24 17:42:27.660771","","","","","","",""
8.0,0.04718843102455139,0.0011716674602892828,"train",8760.0,"2021-11-24 17:42:30.962597","","","","","","",""
8.0,0.07233619689941406,0.0011753754663974968,"train",8780.0,"2021-11-24 17:42:34.415069","","","","","","",""
8.0,0.06814562529325485,0.0011790814130047968,"train",8800.0,"2021-11-24 17:42:37.919023","","","","","","",""
8.0,0.06121169403195381,0.001182785243731688,"train",8820.0,"2021-11-24 17:42:42.049815","","","","","","",""
8.0,0.04470985010266304,0.0011864869022308656,"train",8840.0,"2021-11-24 17:42:45.501949","","","","","","",""
8.0,0.070339635014534,0.0011901863321880693,"train",8860.0,"2021-11-24 17:42:48.953949","","","","","","",""
8.0,0.06596648693084717,0.001193883477322945,"train",8880.0,"2021-11-24 17:42:52.438832","","","","","","",""
8.0,0.05415811017155647,0.0011975782813898961,"train",8900.0,"2021-11-24 17:42:55.756685","","","","","","",""
8.0,0.0571858249604702,0.0012012706881789417,"train",8920.0,"2021-11-24 17:42:59.115517","","","","","","",""
8.0,0.058193501085042953,0.001204960641516572,"train",8940.0,"2021-11-24 17:43:02.482485","","","","","","",""
8.0,0.06103111431002617,0.0012086480852666014,"train",8960.0,"2021-11-24 17:43:06.696868","","","","","","",""
8.0,0.0828472152352333,0.0012123329633310235,"train",8980.0,"2021-11-24 17:43:10.125605","","","","","","",""
8.0,0.0628499761223793,0.0012160152196508643,"train",9000.0,"2021-11-24 17:43:13.563436","","","","","","",""
8.0,0.07262112200260162,0.0012196947982070355,"train",9020.0,"2021-11-24 17:43:17.123559","","","","","","",""
8.0,0.06494078785181046,0.0012233716430211856,"train",9040.0,"2021-11-24 17:43:20.625059","","","","","","",""
8.0,0.05064995586872101,0.001227045698156553,"train",9060.0,"2021-11-24 17:43:24.077271","","","","","","",""
8.0,0.037735845893621445,0.0012307169077188148,"train",9080.0,"2021-11-24 17:43:27.621145","","","","","","",""
8.0,0.08459794521331787,0.0012343852158569401,"train",9100.0,"2021-11-24 17:43:31.852145","","","","","","",""
8.0,0.04702668637037277,0.0012380505667640377,"train",9120.0,"2021-11-24 17:43:35.234746","","","","","","",""
8.0,0.05314056947827339,0.0012417129046782046,"train",9140.0,"2021-11-24 17:43:38.673001","","","","","","",""
8.0,0.0657525286078453,0.0012453721738833758,"train",9160.0,"2021-11-24 17:43:42.070530","","","","","","",""
8.0,0.04715969040989876,0.001249028318710172,"train",9180.0,"2021-11-24 17:43:45.444351","","","","","","",""
8.0,0.05583260953426361,0.0012526812835367447,"train",9200.0,"2021-11-24 17:43:48.795636","","","","","","",""
8.0,0.05712977796792984,0.0012563310127896242,"train",9220.0,"2021-11-24 17:43:52.116078","","","","","","",""
8.0,0.0564890019595623,0.0012599774509445645,"train",9240.0,"2021-11-24 17:43:56.109698","","","","","","",""
8.0,0.04121168330311775,0.0012636205425273874,"train",9260.0,"2021-11-24 17:43:59.399660","","","","","","",""
8.0,0.05246300250291824,0.0012672602321148268,"train",9280.0,"2021-11-24 17:44:02.662366","","","","","","",""
8.0,0.050088800489902496,0.0012708964643353732,"train",9300.0,"2021-11-24 17:44:05.930646","","","","","","",""
8.0,0.07528198510408401,0.001274529183870114,"train",9320.0,"2021-11-24 17:44:09.250720","","","","","","",""
8.0,0.06811987608671188,0.0012781583354535748,"train",9340.0,"2021-11-24 17:44:12.675158","","","","","","",""
8.0,0.054890889674425125,0.0012817838638745646,"train",9360.0,"2021-11-24 17:44:16.075806","","","","","","",""
8.0,0.07631140202283859,0.001285405713977009,"train",9380.0,"2021-11-24 17:44:20.167289","","","","","","",""
8.0,0.059160441160202026,0.0012890238306607947,"train",9400.0,"2021-11-24 17:44:23.623031","","","","","","",""
8.0,0.0736914798617363,0.001292638158882606,"train",9420.0,"2021-11-24 17:44:27.035694","","","","","","",""
8.0,0.0825703963637352,0.0012962486436567603,"train",9440.0,"2021-11-24 17:44:30.531126","","","","","","",""
8.0,0.05200508236885071,0.0012998552300560484,"train",9460.0,"2021-11-24 17:44:33.965883","","","","","","",""
8.0,0.09203403443098068,0.0013034578632125668,"train",9480.0,"2021-11-24 17:44:37.406134","","","","","","",""
8.0,0.06563058495521545,0.0013070564883185534,"train",9500.0,"2021-11-24 17:44:40.769863","","","","","","",""
8.0,0.060538940131664276,0.001310651050627223,"train",9520.0,"2021-11-24 17:44:44.180016","","","","","","",""
8.0,0.04755585268139839,0.001314241495453598,"train",9540.0,"2021-11-24 17:44:48.275343","","","","","","",""
8.0,0.05943573638796806,0.00131782776817534,"train",9560.0,"2021-11-24 17:44:51.698722","","","","","","",""
8.0,0.05307701602578163,0.0013214098142335837,"train",9580.0,"2021-11-24 17:44:55.104712","","","","","","",""
8.0,0.045007362961769104,0.001324987579133764,"train",9600.0,"2021-11-24 17:44:58.429905","","","","","","",""
8.0,0.051650796085596085,0.0013285610084464463,"train",9620.0,"2021-11-24 17:45:01.844778","","","","","","",""
8.0,0.0949656292796135,0.001332130047808155,"train",9640.0,"2021-11-24 17:45:05.214614","","","","","","",""
8.0,0.04670490697026253,0.001335694642922199,"train",9660.0,"2021-11-24 17:45:08.550858","","","","","","",""
8.0,"","","train",9666.0,"2021-11-24 17:46:43.053862",0.5870188459579422,0.5540111208928367,0.9337448877247891,0.5941487085921473,0.46024587635705055,0.47434649854087874,0.31456010269524237
8.0,"","","val",9666.0,"2021-11-24 17:47:08.196726",0.5663342224283892,0.5212491885919731,0.9194376916725132,0.5677491051996629,0.43688500498135685,0.4502457774661211,0.2903223549176096
9.0,0.08290006965398788,0.0013392547395594985,"train",9680.0,"2021-11-24 17:47:13.640596","","","","","","",""
9.0,0.045812517404556274,0.001342810283559412,"train",9700.0,"2021-11-24 17:47:17.260359","","","","","","",""
9.0,0.05833893641829491,0.0013463612208305564,"train",9720.0,"2021-11-24 17:47:20.702390","","","","","","",""
9.0,0.07227940112352371,0.0013499074973516321,"train",9740.0,"2021-11-24 17:47:24.086362","","","","","","",""
9.0,0.050704773515462875,0.0013534490591722464,"train",9760.0,"2021-11-24 17:47:27.481194","","","","","","",""
9.0,0.05006304755806923,0.0013569858524137305,"train",9780.0,"2021-11-24 17:47:30.873546","","","","","","",""
9.0,0.04938895255327225,0.001360517823269962,"train",9800.0,"2021-11-24 17:47:34.357272","","","","","","",""
9.0,0.07696766406297684,0.0013640449180081834,"train",9820.0,"2021-11-24 17:47:38.620332","","","","","","",""
9.0,0.042141735553741455,0.0013675670829698173,"train",9840.0,"2021-11-24 17:47:42.053577","","","","","","",""
9.0,0.054872967302799225,0.0013710842645712853,"train",9860.0,"2021-11-24 17:47:45.524795","","","","","","",""
9.0,0.07175842672586441,0.0013745964093048219,"train",9880.0,"2021-11-24 17:47:48.939093","","","","","","",""
9.0,0.07903160899877548,0.0013781034637392886,"train",9900.0,"2021-11-24 17:47:52.492930","","","","","","",""
9.0,0.05380309373140335,0.0013816053745209864,"train",9920.0,"2021-11-24 17:47:56.032886","","","","","","",""
9.0,0.05909893289208412,0.0013851020883744697,"train",9940.0,"2021-11-24 17:47:59.597408","","","","","","",""
9.0,0.04335949569940567,0.001388593552103353,"train",9960.0,"2021-11-24 17:48:03.777548","","","","","","",""
9.0,0.0645427331328392,0.0013920797125911233,"train",9980.0,"2021-11-24 17:48:07.276145","","","","","","",""
9.0,0.05623765289783478,0.001395560516801947,"train",10000.0,"2021-11-24 17:48:10.679108","","","","","","",""
9.0,0.045029059052467346,0.0013990359117814774,"train",10020.0,"2021-11-24 17:48:14.121538","","","","","","",""
9.0,0.08532711863517761,0.0014025058446576583,"train",10040.0,"2021-11-24 17:48:17.530948","","","","","","",""
9.0,0.04744927957653999,0.0014059702626415317,"train",10060.0,"2021-11-24 17:48:20.920204","","","","","","",""
9.0,0.08394793421030045,0.0014094291130280377,"train",10080.0,"2021-11-24 17:48:24.321487","","","","","","",""
9.0,0.05197567492723465,0.0014128823431968183,"train",10100.0,"2021-11-24 17:48:28.426282","","","","","","",""
9.0,0.0513610914349556,0.001416329900613017,"train",10120.0,"2021-11-24 17:48:31.814714","","","","","","",""
9.0,0.07364864647388458,0.0014197717328280782,"train",10140.0,"2021-11-24 17:48:35.284300","","","","","","",""
9.0,0.05665798485279083,0.0014232077874805457,"train",10160.0,"2021-11-24 17:48:38.879143","","","","","","",""
9.0,0.05052648484706879,0.0014266380122968589,"train",10180.0,"2021-11-24 17:48:42.400116","","","","","","",""
9.0,0.0700792446732521,0.0014300623550921468,"train",10200.0,"2021-11-24 17:48:45.886243","","","","","","",""
9.0,0.05785137787461281,0.0014334807637710243,"train",10220.0,"2021-11-24 17:48:49.344149","","","","","","",""
9.0,0.04194202646613121,0.0014368931863283831,"train",10240.0,"2021-11-24 17:48:53.523892","","","","","","",""
9.0,0.05022652447223663,0.0014402995708501826,"train",10260.0,"2021-11-24 17:48:57.029026","","","","","","",""
9.0,0.07343382388353348,0.0014436998655142422,"train",10280.0,"2021-11-24 17:49:00.392485","","","","","","",""
9.0,0.08187021315097809,0.0014470940185910258,"train",10300.0,"2021-11-24 17:49:03.918832","","","","","","",""
9.0,0.07821547240018845,0.001450481978444431,"train",10320.0,"2021-11-24 17:49:07.440607","","","","","","",""
9.0,0.07897172123193741,0.0014538636935325763,"train",10340.0,"2021-11-24 17:49:10.890424","","","","","","",""
9.0,0.06802945584058762,0.0014572391124085817,"train",10360.0,"2021-11-24 17:49:14.218608","","","","","","",""
9.0,0.055114153772592545,0.0014606081837213525,"train",10380.0,"2021-11-24 17:49:18.286570","","","","","","",""
9.0,0.07377097755670547,0.0014639708562163639,"train",10400.0,"2021-11-24 17:49:21.659008","","","","","","",""
9.0,0.07022342085838318,0.001467327078736435,"train",10420.0,"2021-11-24 17:49:25.011220","","","","","","",""
9.0,0.06512515246868134,0.0014706768002225108,"train",10440.0,"2021-11-24 17:49:28.432855","","","","","","",""
9.0,0.06549583375453949,0.0014740199697144392,"train",10460.0,"2021-11-24 17:49:31.836487","","","","","","",""
9.0,0.05715276673436165,0.0014773565363517442,"train",10480.0,"2021-11-24 17:49:35.181480","","","","","","",""
9.0,0.06006490811705589,0.0014806864493744007,"train",10500.0,"2021-11-24 17:49:38.544363","","","","","","",""
9.0,0.05201173201203346,0.0014840096581236072,"train",10520.0,"2021-11-24 17:49:42.831164","","","","","","",""
9.0,0.08635690063238144,0.001487326112042556,"train",10540.0,"2021-11-24 17:49:46.313309","","","","","","",""
9.0,0.05820905789732933,0.0014906357606772013,"train",10560.0,"2021-11-24 17:49:49.816713","","","","","","",""
9.0,0.056217920035123825,0.0014939385536770291,"train",10580.0,"2021-11-24 17:49:53.279206","","","","","","",""
9.0,0.05834008380770683,0.0014972344407958218,"train",10600.0,"2021-11-24 17:49:56.734464","","","","","","",""
9.0,0.044817935675382614,0.0015005233718924213,"train",10620.0,"2021-11-24 17:50:00.088967","","","","","","",""
9.0,0.04674944654107094,0.0015038052969314946,"train",10640.0,"2021-11-24 17:50:03.457545","","","","","","",""
9.0,0.04791112244129181,0.0015070801659842939,"train",10660.0,"2021-11-24 17:50:06.896346","","","","","","",""
9.0,0.06214466318488121,0.001510347929229414,"train",10680.0,"2021-11-24 17:50:11.020716","","","","","","",""
9.0,0.08242571353912354,0.0015136085369535537,"train",10700.0,"2021-11-24 17:50:14.397434","","","","","","",""
9.0,0.04981238767504692,0.0015168619395522708,"train",10720.0,"2021-11-24 17:50:17.785114","","","","","","",""
9.0,0.06831638514995575,0.0015201080875307349,"train",10740.0,"2021-11-24 17:50:21.192406","","","","","","",""
9.0,"","","train",10740.0,"2021-11-24 17:51:52.938738",0.6014698391908608,0.5850233891049927,0.9432437035025215,0.6131697363912043,0.49237049156811774,0.5059731477328794,0.3397123179490038
9.0,"","","val",10740.0,"2021-11-24 17:52:18.230386",0.5749159225327612,0.547171341465553,0.9322636711781385,0.5805765985983713,0.4646410084604357,0.47489798406038014,0.30798268019838615
10.0,0.04021253064274788,0.0015233469315044834,"train",10760.0,"2021-11-24 17:52:24.750646","","","","","","",""
10.0,0.04530232027173042,0.0015265784222001709,"train",10780.0,"2021-11-24 17:52:28.321469","","","","","","",""
10.0,0.0404881127178669,0.0015298025104563185,"train",10800.0,"2021-11-24 17:52:31.680236","","","","","","",""
10.0,0.0676952376961708,0.001533019147224064,"train",10820.0,"2021-11-24 17:52:35.900677","","","","","","",""
10.0,0.07564786076545715,0.0015362282835679054,"train",10840.0,"2021-11-24 17:52:39.280584","","","","","","",""
10.0,0.062187615782022476,0.0015394298706664469,"train",10860.0,"2021-11-24 17:52:42.722236","","","","","","",""
10.0,0.07001372426748276,0.001542623859813141,"train",10880.0,"2021-11-24 17:52:46.207856","","","","","","",""
10.0,0.046146221458911896,0.00154581020241703,"train",10900.0,"2021-11-24 17:52:49.629956","","","","","","",""
10.0,0.07852019369602203,0.0015489888500034858,"train",10920.0,"2021-11-24 17:52:53.024776","","","","","","",""
10.0,0.05824880301952362,0.0015521597542149444,"train",10940.0,"2021-11-24 17:52:56.459671","","","","","","",""
10.0,0.06891661882400513,0.0015553228668116455,"train",10960.0,"2021-11-24 17:53:00.534979","","","","","","",""
10.0,0.06107911467552185,0.0015584781396723642,"train",10980.0,"2021-11-24 17:53:04.079676","","","","","","",""
10.0,0.07153946906328201,0.0015616255247951432,"train",11000.0,"2021-11-24 17:53:07.453197","","","","","","",""
10.0,0.05759766697883606,0.0015647649742980233,"train",11020.0,"2021-11-24 17:53:10.816413","","","","","","",""
10.0,0.07151015847921371,0.0015678964404197727,"train",11040.0,"2021-11-24 17:53:14.165705","","","","","","",""
10.0,0.0733468309044838,0.0015710198755206112,"train",11060.0,"2021-11-24 17:53:17.495717","","","","","","",""
10.0,0.07878190279006958,0.0015741352320829379,"train",11080.0,"2021-11-24 17:53:20.822866","","","","","","",""
10.0,0.05118280276656151,0.0015772424627120527,"train",11100.0,"2021-11-24 17:53:24.943526","","","","","","",""
10.0,0.07868451625108719,0.0015803415201368761,"train",11120.0,"2021-11-24 17:53:28.253159","","","","","","",""
10.0,0.06313418596982956,0.001583432357210671,"train",11140.0,"2021-11-24 17:53:31.630658","","","","","","",""
10.0,0.0702672228217125,0.001586514926911758,"train",11160.0,"2021-11-24 17:53:35.032530","","","","","","",""
10.0,0.05433492362499237,0.0015895891823442313,"train",11180.0,"2021-11-24 17:53:38.432512","","","","","","",""
10.0,0.06755771487951279,0.0015926550767386717,"train",11200.0,"2021-11-24 17:53:41.826119","","","","","","",""
10.0,0.040014177560806274,0.0015957125634528599,"train",11220.0,"2021-11-24 17:53:45.218032","","","","","","",""
10.0,0.039601393043994904,0.0015987615959724836,"train",11240.0,"2021-11-24 17:53:49.294652","","","","","","",""
10.0,0.07014211267232895,0.0016018021279118457,"train",11260.0,"2021-11-24 17:53:52.705039","","","","","","",""
10.0,0.059249840676784515,0.0016048341130145728,"train",11280.0,"2021-11-24 17:53:56.155116","","","","","","",""
10.0,0.048991672694683075,0.0016078575051543145,"train",11300.0,"2021-11-24 17:53:59.566191","","","","","","",""
10.0,0.06294893473386765,0.0016108722583354478,"train",11320.0,"2021-11-24 17:54:02.893535","","","","","","",""
10.0,0.0767676830291748,0.0016138783266937777,"train",11340.0,"2021-11-24 17:54:06.283590","","","","","","",""
10.0,0.03893371298909187,0.0016168756644972322,"train",11360.0,"2021-11-24 17:54:09.750337","","","","","","",""
10.0,0.053814683109521866,0.0016198642261465587,"train",11380.0,"2021-11-24 17:54:13.916112","","","","","","",""
10.0,0.05814620479941368,0.0016228439661760208,"train",11400.0,"2021-11-24 17:54:17.287871","","","","","","",""
10.0,0.054380930960178375,0.001625814839254086,"train",11420.0,"2021-11-24 17:54:20.604833","","","","","","",""
10.0,0.06786541640758514,0.0016287768001841164,"train",11440.0,"2021-11-24 17:54:23.941335","","","","","","",""
10.0,0.05860001593828201,0.001631729803905059,"train",11460.0,"2021-11-24 17:54:27.288878","","","","","","",""
10.0,0.051515139639377594,0.0016346738054921273,"train",11480.0,"2021-11-24 17:54:30.644147","","","","","","",""
10.0,0.06967464089393616,0.001637608760157486,"train",11500.0,"2021-11-24 17:54:33.999738","","","","","","",""
10.0,0.05339445546269417,0.0016405346232509356,"train",11520.0,"2021-11-24 17:54:38.018269","","","","","","",""
10.0,0.05253011733293533,0.0016434513502605861,"train",11540.0,"2021-11-24 17:54:41.414310","","","","","","",""
10.0,0.038375526666641235,0.0016463588968135383,"train",11560.0,"2021-11-24 17:54:44.895024","","","","","","",""
10.0,0.05573732405900955,0.0016492572186765577,"train",11580.0,"2021-11-24 17:54:48.316725","","","","","","",""
10.0,0.05570591613650322,0.001652146271756747,"train",11600.0,"2021-11-24 17:54:51.776252","","","","","","",""
10.0,0.03387444466352463,0.0016550260121022172,"train",11620.0,"2021-11-24 17:54:55.258960","","","","","","",""
10.0,0.04275909811258316,0.0016578963959027562,"train",11640.0,"2021-11-24 17:54:58.673456","","","","","","",""
10.0,0.06587862968444824,0.001660757379490496,"train",11660.0,"2021-11-24 17:55:02.698784","","","","","","",""
10.0,0.04992484673857689,0.0016636089193405761,"train",11680.0,"2021-11-24 17:55:06.057033","","","","","","",""
10.0,0.04779568314552307,0.0016664509720718049,"train",11700.0,"2021-11-24 17:55:09.420536","","","","","","",""
10.0,0.046456605195999146,0.0016692834944473224,"train",11720.0,"2021-11-24 17:55:12.865601","","","","","","",""
10.0,0.05002436414361,0.0016721064433752554,"train",11740.0,"2021-11-24 17:55:16.302106","","","","","","",""
10.0,0.07158085703849792,0.0016749197759093734,"train",11760.0,"2021-11-24 17:55:19.754328","","","","","","",""
10.0,0.053171947598457336,0.0016777234492497436,"train",11780.0,"2021-11-24 17:55:23.204228","","","","","","",""
10.0,0.08220495283603668,0.0016805174207433808,"train",11800.0,"2021-11-24 17:55:27.291968","","","","","","",""
10.0,"","","train",11814.0,"2021-11-24 17:57:06.663833",0.60231390526086,0.5882376094694709,0.9426484183036319,0.6057566184176819,0.4763452499343285,0.4982250782111152,0.32841193031226557
10.0,"","","val",11814.0,"2021-11-24 17:57:32.437300",0.5822799489736751,0.5563788474482052,0.9331342254383261,0.579110432561072,0.4539318122461232,0.4708461540542818,0.30322041992204435
11.0,0.042639169842004776,0.0016833016478848956,"train",11820.0,"2021-11-24 17:57:36.310648","","","","","","",""
11.0,0.04569118842482567,0.0016860760883171426,"train",11840.0,"2021-11-24 17:57:40.122596","","","","","","",""
11.0,0.0509655587375164,0.001688840699831864,"train",11860.0,"2021-11-24 17:57:43.604426","","","","","","",""
11.0,0.043566007167100906,0.0016915954403703313,"train",11880.0,"2021-11-24 17:57:46.991909","","","","","","",""
11.0,0.046385738998651505,0.0016943402680239862,"train",11900.0,"2021-11-24 17:57:50.421467","","","","","","",""
11.0,0.05617055669426918,0.0016970751410350774,"train",11920.0,"2021-11-24 17:57:53.916335","","","","","","",""
11.0,0.04804927855730057,0.001699800017797296,"train",11940.0,"2021-11-24 17:57:58.150079","","","","","","",""
11.0,0.04048297554254532,0.0017025148568564086,"train",11960.0,"2021-11-24 17:58:01.589149","","","","","","",""
11.0,0.08830506354570389,0.001705219616910888,"train",11980.0,"2021-11-24 17:58:05.029634","","","","","","",""
11.0,0.05298146978020668,0.001707914256812541,"train",12000.0,"2021-11-24 17:58:08.483315","","","","","","",""
11.0,0.0813378244638443,0.0017105987355671352,"train",12020.0,"2021-11-24 17:58:11.849446","","","","","","",""
11.0,0.04735543951392174,0.0017132730123350227,"train",12040.0,"2021-11-24 17:58:15.213343","","","","","","",""
11.0,0.03641800954937935,0.00171593704643176,"train",12060.0,"2021-11-24 17:58:18.587921","","","","","","",""
11.0,0.08368243277072906,0.0017185907973287285,"train",12080.0,"2021-11-24 17:58:21.941939","","","","","","",""
11.0,0.09486526995897293,0.0017212342246537506,"train",12100.0,"2021-11-24 17:58:26.105613","","","","","","",""
11.0,0.05596837028861046,0.0017238672881917032,"train",12120.0,"2021-11-24 17:58:29.558651","","","","","","",""
11.0,0.053482189774513245,0.001726489947885131,"train",12140.0,"2021-11-24 17:58:32.947993","","","","","","",""
11.0,0.045794375240802765,0.0017291021638348543,"train",12160.0,"2021-11-24 17:58:36.293659","","","","","","",""
11.0,0.06055276095867157,0.0017317038963005765,"train",12180.0,"2021-11-24 17:58:39.619374","","","","","","",""
11.0,0.04793994128704071,0.00173429510570149,"train",12200.0,"2021-11-24 17:58:43.050417","","","","","","",""
11.0,0.04407013580203056,0.0017368757526168759,"train",12220.0,"2021-11-24 17:58:46.590098","","","","","","",""
11.0,0.06736009567975998,0.0017394457977867057,"train",12240.0,"2021-11-24 17:58:50.788673","","","","","","",""
11.0,0.0887414738535881,0.0017420052021122378,"train",12260.0,"2021-11-24 17:58:54.247048","","","","","","",""
11.0,0.07928173989057541,0.0017445539266566128,"train",12280.0,"2021-11-24 17:58:57.662695","","","","","","",""
11.0,0.07629797607660294,0.001747091932645445,"train",12300.0,"2021-11-24 17:59:01.090104","","","","","","",""
11.0,0.03499850258231163,0.0017496191814674125,"train",12320.0,"2021-11-24 17:59:04.490700","","","","","","",""
11.0,0.05246850475668907,0.001752135634674846,"train",12340.0,"2021-11-24 17:59:07.919820","","","","","","",""
11.0,0.03653056174516678,0.0017546412539843118,"train",12360.0,"2021-11-24 17:59:11.345882","","","","","","",""
11.0,0.081523597240448,0.001757136001277194,"train",12380.0,"2021-11-24 17:59:15.580700","","","","","","",""
11.0,0.055042821913957596,0.001759619838600278,"train",12400.0,"2021-11-24 17:59:18.994314","","","","","","",""
11.0,0.0902920663356781,0.0017620927281663229,"train",12420.0,"2021-11-24 17:59:22.367068","","","","","","",""
11.0,0.05577465891838074,0.0017645546323546398,"train",12440.0,"2021-11-24 17:59:25.851276","","","","","","",""
11.0,0.04487668350338936,0.0017670055137116636,"train",12460.0,"2021-11-24 17:59:29.325508","","","","","","",""
11.0,0.089698426425457,0.0017694453349515209,"train",12480.0,"2021-11-24 17:59:32.857909","","","","","","",""
11.0,0.07353650778532028,0.0017718740589566,"train",12500.0,"2021-11-24 17:59:36.326300","","","","","","",""
11.0,0.042976390570402145,0.0017742916487781134,"train",12520.0,"2021-11-24 17:59:40.440778","","","","","","",""
11.0,0.043459489941596985,0.0017766980676366608,"train",12540.0,"2021-11-24 17:59:43.938268","","","","","","",""
11.0,0.05148761346936226,0.001779093278922789,"train",12560.0,"2021-11-24 17:59:47.435412","","","","","","",""
11.0,0.055835213512182236,0.001781477246197548,"train",12580.0,"2021-11-24 17:59:51.054294","","","","","","",""
11.0,0.062279947102069855,0.0017838499331930462,"train",12600.0,"2021-11-24 17:59:54.542972","","","","","","",""
11.0,0.04783901199698448,0.001786211303813001,"train",12620.0,"2021-11-24 17:59:57.954125","","","","","","",""
11.0,0.04891619458794594,0.0017885613221332894,"train",12640.0,"2021-11-24 18:00:01.337506","","","","","","",""
11.0,0.05495063215494156,0.0017908999524024931,"train",12660.0,"2021-11-24 18:00:05.385556","","","","","","",""
11.0,0.05975494533777237,0.0017932271590424438,"train",12680.0,"2021-11-24 18:00:08.809411","","","","","","",""
11.0,0.0416029617190361,0.0017955429066487635,"train",12700.0,"2021-11-24 18:00:12.264764","","","","","","",""
11.0,0.07894778251647949,0.0017978471599914025,"train",12720.0,"2021-11-24 18:00:15.661157","","","","","","",""
11.0,0.0825684666633606,0.0018001398840151778,"train",12740.0,"2021-11-24 18:00:19.139499","","","","","","",""
11.0,0.05145548656582832,0.0018024210438403031,"train",12760.0,"2021-11-24 18:00:22.492737","","","","","","",""
11.0,0.03930464759469032,0.0018046906047629228,"train",12780.0,"2021-11-24 18:00:25.840027","","","","","","",""
11.0,0.05295553803443909,0.0018069485322556372,"train",12800.0,"2021-11-24 18:00:29.906717","","","","","","",""
11.0,0.042389266192913055,0.001809194791968029,"train",12820.0,"2021-11-24 18:00:33.242481","","","","","","",""
11.0,0.051947008818387985,0.0018114293497271863,"train",12840.0,"2021-11-24 18:00:36.587477","","","","","","",""
11.0,0.07077299803495407,0.0018136521715382218,"train",12860.0,"2021-11-24 18:00:39.911805","","","","","","",""
11.0,0.08033736050128937,0.0018158632235847892,"train",12880.0,"2021-11-24 18:00:43.238799","","","","","","",""
11.0,"","","train",12888.0,"2021-11-24 18:02:20.506377",0.5742268791384705,0.5885947858893785,0.9445523297083802,0.6212783535338497,0.47944495093204675,0.49297785385772563,0.3236108253745564
11.0,"","","val",12888.0,"2021-11-24 18:02:46.889267",0.5513742317059028,0.5452209990527651,0.9306301374865499,0.586747138114496,0.45159027005365526,0.463248003738219,0.2951871919154306
12.0,0.03810400515794754,0.0018180624722295999,"train",12900.0,"2021-11-24 18:02:51.892520","","","","","","",""
12.0,0.07949624210596085,0.001820249884014933,"train",12920.0,"2021-11-24 18:02:55.502196","","","","","","",""
12.0,0.08309723436832428,0.001822425425663144,"train",12940.0,"2021-11-24 18:02:59.676131","","","","","","",""
12.0,0.025594038888812065,0.0018245890640771725,"train",12960.0,"2021-11-24 18:03:02.973569","","","","","","",""
12.0,0.06952635198831558,0.0018267407663410452,"train",12980.0,"2021-11-24 18:03:06.482764","","","","","","",""
12.0,0.06378558278083801,0.0018288804997203755,"train",13000.0,"2021-11-24 18:03:10.005836","","","","","","",""
12.0,0.0562145821750164,0.0018310082316628634,"train",13020.0,"2021-11-24 18:03:13.458950","","","","","","",""
12.0,0.05121684446930885,0.0018331239297987893,"train",13040.0,"2021-11-24 18:03:16.985430","","","","","","",""
12.0,0.03747046738862991,0.0018352275619415066,"train",13060.0,"2021-11-24 18:03:20.561607","","","","","","",""
12.0,0.048533424735069275,0.0018373190960879326,"train",13080.0,"2021-11-24 18:03:24.805140","","","","","","",""
12.0,0.044963493943214417,0.0018393985004190336,"train",13100.0,"2021-11-24 18:03:28.263052","","","","","","",""
12.0,0.05763924494385719,0.00184146574330031,"train",13120.0,"2021-11-24 18:03:31.638450","","","","","","",""
12.0,0.06859878450632095,0.001843520793282278,"train",13140.0,"2021-11-24 18:03:35.169677","","","","","","",""
12.0,0.07754964381456375,0.0018455636191009464,"train",13160.0,"2021-11-24 18:03:38.672994","","","","","","",""
12.0,0.07492304593324661,0.001847594189678294,"train",13180.0,"2021-11-24 18:03:42.183011","","","","","","",""
12.0,0.06494012475013733,0.0018496124741227415,"train",13200.0,"2021-11-24 18:03:45.664667","","","","","","",""
12.0,0.04795854538679123,0.001851618441729622,"train",13220.0,"2021-11-24 18:03:49.045829","","","","","","",""
12.0,0.051220305263996124,0.0018536120619816467,"train",13240.0,"2021-11-24 18:03:53.100956","","","","","","",""
12.0,0.05789981037378311,0.0018555933045493712,"train",13260.0,"2021-11-24 18:03:56.489369","","","","","","",""
12.0,0.06827985495328903,0.0018575621392916554,"train",13280.0,"2021-11-24 18:03:59.919070","","","","","","",""
12.0,0.07016374170780182,0.0018595185362561225,"train",13300.0,"2021-11-24 18:04:03.422118","","","","","","",""
12.0,0.04985663667321205,0.0018614624656796155,"train",13320.0,"2021-11-24 18:04:06.908791","","","","","","",""
12.0,0.04490342363715172,0.0018633938979886484,"train",13340.0,"2021-11-24 18:04:10.360249","","","","","","",""
12.0,0.05796891078352928,0.0018653128037998568,"train",13360.0,"2021-11-24 18:04:13.793184","","","","","","",""
12.0,0.08107871562242508,0.0018672191539204459,"train",13380.0,"2021-11-24 18:04:17.882707","","","","","","",""
12.0,0.04434721916913986,0.0018691129193486335,"train",13400.0,"2021-11-24 18:04:21.307856","","","","","","",""
12.0,0.04400726780295372,0.0018709940712740908,"train",13420.0,"2021-11-24 18:04:24.698482","","","","","","",""
12.0,0.05870096758008003,0.0018728625810783823,"train",13440.0,"2021-11-24 18:04:28.065027","","","","","","",""
12.0,0.044547174125909805,0.0018747184203353996,"train",13460.0,"2021-11-24 18:04:31.395920","","","","","","",""
12.0,0.05788912624120712,0.0018765615608117947,"train",13480.0,"2021-11-24 18:04:34.787008","","","","","","",""
12.0,0.05224170908331871,0.0018783919744674096,"train",13500.0,"2021-11-24 18:04:38.119183","","","","","","",""
12.0,0.06286934018135071,0.0018802096334557027,"train",13520.0,"2021-11-24 18:04:42.283586","","","","","","",""
12.0,0.06794557720422745,0.0018820145101241712,"train",13540.0,"2021-11-24 18:04:45.673939","","","","","","",""
12.0,0.051495764404535294,0.0018838065770147745,"train",13560.0,"2021-11-24 18:04:49.082099","","","","","","",""
12.0,0.05461232736706734,0.0018855858068643496,"train",13580.0,"2021-11-24 18:04:52.575946","","","","","","",""
12.0,0.06520770490169525,0.001887352172605026,"train",13600.0,"2021-11-24 18:04:55.968811","","","","","","",""
12.0,0.05993051826953888,0.0018891056473646398,"train",13620.0,"2021-11-24 18:04:59.406164","","","","","","",""
12.0,0.043742887675762177,0.0018908462044671395,"train",13640.0,"2021-11-24 18:05:02.862848","","","","","","",""
12.0,0.04698708653450012,0.001892573817432993,"train",13660.0,"2021-11-24 18:05:06.954933","","","","","","",""
12.0,0.0577378123998642,0.0018942884599795914,"train",13680.0,"2021-11-24 18:05:10.370406","","","","","","",""
12.0,0.08311398327350616,0.001895990106021648,"train",13700.0,"2021-11-24 18:05:13.778790","","","","","","",""
12.0,0.0455988310277462,0.0018976787296715943,"train",13720.0,"2021-11-24 18:05:17.220125","","","","","","",""
12.0,0.04867680370807648,0.0018993543052399757,"train",13740.0,"2021-11-24 18:05:20.474821","","","","","","",""
12.0,0.0534980334341526,0.0019010168072358413,"train",13760.0,"2021-11-24 18:05:23.815443","","","","","","",""
12.0,0.06513381749391556,0.0019026662103671305,"train",13780.0,"2021-11-24 18:05:27.284724","","","","","","",""
12.0,0.0667092427611351,0.0019043024895410605,"train",13800.0,"2021-11-24 18:05:31.388029","","","","","","",""
12.0,0.04833681881427765,0.001905925619864506,"train",13820.0,"2021-11-24 18:05:34.763851","","","","","","",""
12.0,0.0763070210814476,0.001907535576644378,"train",13840.0,"2021-11-24 18:05:38.108961","","","","","","",""
12.0,0.04606526717543602,0.0019091323353880008,"train",13860.0,"2021-11-24 18:05:41.488788","","","","","","",""
12.0,0.042638037353754044,0.0019107158718034828,"train",13880.0,"2021-11-24 18:05:44.931847","","","","","","",""
12.0,0.06979198008775711,0.001912286161800088,"train",13900.0,"2021-11-24 18:05:48.283023","","","","","","",""
12.0,0.05978197604417801,0.0019138431814886008,"train",13920.0,"2021-11-24 18:05:51.669640","","","","","","",""
12.0,0.052804846316576004,0.0019153869071816896,"train",13940.0,"2021-11-24 18:05:55.020064","","","","","","",""
12.0,0.06600388139486313,0.0019169173153942693,"train",13960.0,"2021-11-24 18:05:58.987489","","","","","","",""
12.0,"","","train",13962.0,"2021-11-24 18:07:31.852098",0.5901477115622499,0.5990385299249925,0.9436109707599079,0.6126187453459766,0.49135126874018237,0.5159814117586212,0.33424058054042444
12.0,"","","val",13962.0,"2021-11-24 18:07:56.944575",0.5642467818624609,0.5539296998101604,0.927497146096204,0.5791154050429008,0.4619593287491461,0.4821448418377419,0.30448145990566494
13.0,0.04617643356323242,0.0019184343828438557,"train",13980.0,"2021-11-24 18:08:02.989086","","","","","","",""
13.0,0.0674128383398056,0.0019199380864509208,"train",14000.0,"2021-11-24 18:08:06.458607","","","","","","",""
13.0,0.04886820912361145,0.0019214284033392457,"train",14020.0,"2021-11-24 18:08:09.914091","","","","","","",""
13.0,0.058798376470804214,0.0019229053108362649,"train",14040.0,"2021-11-24 18:08:13.224728","","","","","","",""
13.0,0.046017006039619446,0.0019243687864734145,"train",14060.0,"2021-11-24 18:08:16.629350","","","","","","",""
13.0,0.06557512283325195,0.0019258188079864732,"train",14080.0,"2021-11-24 18:08:20.363388","","","","","","",""
13.0,0.04107135161757469,0.0019272553533158999,"train",14100.0,"2021-11-24 18:08:24.695752","","","","","","",""
13.0,0.04208528250455856,0.0019286784006071697,"train",14120.0,"2021-11-24 18:08:28.292822","","","","","","",""
13.0,0.06961409747600555,0.0019300879282111083,"train",14140.0,"2021-11-24 18:08:31.873275","","","","","","",""
13.0,0.048840150237083435,0.0019314839146842185,"train",14160.0,"2021-11-24 18:08:35.508995","","","","","","",""
13.0,0.04527159035205841,0.0019328663387890076,"train",14180.0,"2021-11-24 18:08:39.084908","","","","","","",""
13.0,0.05002987012267113,0.0019342351794943119,"train",14200.0,"2021-11-24 18:08:42.546154","","","","","","",""
13.0,0.07447908073663712,0.0019355904159756138,"train",14220.0,"2021-11-24 18:08:45.922850","","","","","","",""
13.0,0.08951401710510254,0.0019369320276153613,"train",14240.0,"2021-11-24 18:08:50.068923","","","","","","",""
13.0,0.03922002390027046,0.00193825999400328,"train",14260.0,"2021-11-24 18:08:53.452459","","","","","","",""
13.0,0.041173871606588364,0.0019395742949366843,"train",14280.0,"2021-11-24 18:08:56.820602","","","","","","",""
13.0,0.05036652460694313,0.0019408749104207845,"train",14300.0,"2021-11-24 18:09:00.244182","","","","","","",""
13.0,0.04689028859138489,0.0019421618206689913,"train",14320.0,"2021-11-24 18:09:03.656893","","","","","","",""
13.0,0.052068207412958145,0.0019434350061032163,"train",14340.0,"2021-11-24 18:09:07.034628","","","","","","",""
13.0,0.03630857914686203,0.0019446944473541703,"train",14360.0,"2021-11-24 18:09:10.570360","","","","","","",""
13.0,0.036090899258852005,0.0019459401252616573,"train",14380.0,"2021-11-24 18:09:14.708315","","","","","","",""
13.0,0.07979149371385574,0.001947172020874868,"train",14400.0,"2021-11-24 18:09:18.103323","","","","","","",""
13.0,0.06833267956972122,0.0019483901154526647,"train",14420.0,"2021-11-24 18:09:21.597653","","","","","","",""
13.0,0.03140620142221451,0.0019495943904638694,"train",14440.0,"2021-11-24 18:09:24.998522","","","","","","",""
13.0,0.06039375811815262,0.0019507848275875444,"train",14460.0,"2021-11-24 18:09:28.507277","","","","","","",""
13.0,0.06125195324420929,0.0019519614087132712,"train",14480.0,"2021-11-24 18:09:32.060564","","","","","","",""
13.0,0.0838235393166542,0.0019531241159414263,"train",14500.0,"2021-11-24 18:09:35.589484","","","","","","",""
13.0,0.04873719438910484,0.001954272931583453,"train",14520.0,"2021-11-24 18:09:39.799846","","","","","","",""
13.0,0.051671937108039856,0.0019554078381621306,"train",14540.0,"2021-11-24 18:09:43.178206","","","","","","",""
13.0,0.06584988534450531,0.0019565288184118417,"train",14560.0,"2021-11-24 18:09:46.637057","","","","","","",""
13.0,0.04122065380215645,0.0019576358552788314,"train",14580.0,"2021-11-24 18:09:50.121435","","","","","","",""
13.0,0.04883173108100891,0.0019587289319214713,"train",14600.0,"2021-11-24 18:09:53.551636","","","","","","",""
13.0,0.0715615376830101,0.0019598080317105113,"train",14620.0,"2021-11-24 18:09:56.981968","","","","","","",""
13.0,0.053265996277332306,0.001960873138229337,"train",14640.0,"2021-11-24 18:10:00.394469","","","","","","",""
13.0,0.08140368014574051,0.0019619242352742153,"train",14660.0,"2021-11-24 18:10:04.532816","","","","","","",""
13.0,0.07992120832204819,0.001962961306854543,"train",14680.0,"2021-11-24 18:10:07.964400","","","","","","",""
13.0,0.043725915253162384,0.0019639843371930905,"train",14700.0,"2021-11-24 18:10:11.351229","","","","","","",""
13.0,0.07554622739553452,0.001964993310726241,"train",14720.0,"2021-11-24 18:10:14.850204","","","","","","",""
13.0,0.04158375784754753,0.0019659882121042262,"train",14740.0,"2021-11-24 18:10:18.257591","","","","","","",""
13.0,0.07538773864507675,0.001966969026191363,"train",14760.0,"2021-11-24 18:10:21.762917","","","","","","",""
13.0,0.042954303324222565,0.0019679357380662805,"train",14780.0,"2021-11-24 18:10:25.141545","","","","","","",""
13.0,0.08208425343036652,0.001968888333022148,"train",14800.0,"2021-11-24 18:10:29.208878","","","","","","",""
13.0,0.06502773612737656,0.0019698267965669,"train",14820.0,"2021-11-24 18:10:32.565022","","","","","","",""
13.0,0.06648504734039307,0.0019707511144234557,"train",14840.0,"2021-11-24 18:10:35.978389","","","","","","",""
13.0,0.06497153639793396,0.001971661272529935,"train",14860.0,"2021-11-24 18:10:39.377674","","","","","","",""
13.0,0.0710897147655487,0.001972557257039875,"train",14880.0,"2021-11-24 18:10:42.827962","","","","","","",""
13.0,0.051604315638542175,0.0019734390543224385,"train",14900.0,"2021-11-24 18:10:46.269547","","","","","","",""
13.0,0.04351775720715523,0.001974306650962622,"train",14920.0,"2021-11-24 18:10:49.702368","","","","","","",""
13.0,0.05312734097242355,0.0019751600337614608,"train",14940.0,"2021-11-24 18:10:53.162901","","","","","","",""
13.0,0.04642316326498985,0.0019759991897362284,"train",14960.0,"2021-11-24 18:10:57.409464","","","","","","",""
13.0,0.036263834685087204,0.0019768241061206343,"train",14980.0,"2021-11-24 18:11:00.868364","","","","","","",""
13.0,0.07009979337453842,0.0019776347703650186,"train",15000.0,"2021-11-24 18:11:04.246589","","","","","","",""
13.0,0.07107071578502655,0.001978431170136543,"train",15020.0,"2021-11-24 18:11:07.586524","","","","","","",""
13.0,"","","train",15036.0,"2021-11-24 18:12:42.689646",0.6169540857163647,0.6230015443627033,0.950122185296785,0.62727839395802,0.5119042245102644,0.533447740601326,0.35450764952039765
13.0,"","","val",15036.0,"2021-11-24 18:13:08.169194",0.5890641308129422,0.5697630665085118,0.9353668973682014,0.5896334019222821,0.4789429877793208,0.4969030984751778,0.3179449469403404
14.0,0.046454716473817825,0.0019792132933193784,"train",15040.0,"2021-11-24 18:13:11.579412","","","","","","",""
14.0,0.05517639219760895,0.001979981128014888,"train",15060.0,"2021-11-24 18:13:15.084047","","","","","","",""
14.0,0.06294221431016922,0.001980734662541811,"train",15080.0,"2021-11-24 18:13:18.448190","","","","","","",""
14.0,0.04058951884508133,0.0019814738854364374,"train",15100.0,"2021-11-24 18:13:22.588118","","","","","","",""
14.0,0.07906321436166763,0.0019821987854527832,"train",15120.0,"2021-11-24 18:13:25.950600","","","","","","",""
14.0,0.060365330427885056,0.0019829093515627634,"train",15140.0,"2021-11-24 18:13:29.278407","","","","","","",""
14.0,0.058421384543180466,0.001983605572956358,"train",15160.0,"2021-11-24 18:13:32.618649","","","","","","",""
14.0,0.03619271516799927,0.001984287439041775,"train",15180.0,"2021-11-24 18:13:35.962999","","","","","","",""
14.0,0.04304605349898338,0.001984954939445616,"train",15200.0,"2021-11-24 18:13:39.355990","","","","","","",""
14.0,0.07391341775655746,0.0019856080640130295,"train",15220.0,"2021-11-24 18:13:42.786407","","","","","","",""
14.0,0.04856174811720848,0.0019862468028078676,"train",15240.0,"2021-11-24 18:13:46.873792","","","","","","",""
14.0,0.044242408126592636,0.001986871146112837,"train",15260.0,"2021-11-24 18:13:50.322355","","","","","","",""
14.0,0.05006725713610649,0.0019874810844296466,"train",15280.0,"2021-11-24 18:13:53.748588","","","","","","",""
14.0,0.07418293505907059,0.0019880766084791517,"train",15300.0,"2021-11-24 18:13:57.197682","","","","","","",""
14.0,0.0453355498611927,0.0019886577092014953,"train",15320.0,"2021-11-24 18:14:00.642170","","","","","","",""
14.0,0.06466510891914368,0.001989224377756247,"train",15340.0,"2021-11-24 18:14:04.078919","","","","","","",""
14.0,0.04429573565721512,0.0019897766055225353,"train",15360.0,"2021-11-24 18:14:07.507765","","","","","","",""
14.0,0.03652241453528404,0.0019903143840991813,"train",15380.0,"2021-11-24 18:14:11.632730","","","","","","",""
14.0,0.07637784630060196,0.0019908377053048246,"train",15400.0,"2021-11-24 18:14:15.253974","","","","","","",""
14.0,0.07390139997005463,0.001991346561178048,"train",15420.0,"2021-11-24 18:14:18.785182","","","","","","",""
14.0,0.08393732458353043,0.0019918409439775003,"train",15440.0,"2021-11-24 18:14:22.235649","","","","","","",""
14.0,0.04702569171786308,0.0019923208461820117,"train",15460.0,"2021-11-24 18:14:25.612359","","","","","","",""
14.0,0.047843124717473984,0.001992786260490709,"train",15480.0,"2021-11-24 18:14:28.975163","","","","","","",""
14.0,0.05165727436542511,0.0019932371798231287,"train",15500.0,"2021-11-24 18:14:32.404406","","","","","","",""
14.0,0.041021473705768585,0.0019936735973193212,"train",15520.0,"2021-11-24 18:14:36.639796","","","","","","",""
14.0,0.05736972764134407,0.001994095506339958,"train",15540.0,"2021-11-24 18:14:40.048509","","","","","","",""
14.0,0.0755162462592125,0.001994502900466431,"train",15560.0,"2021-11-24 18:14:43.480997","","","","","","",""
14.0,0.05246277153491974,0.0019948957735009517,"train",15580.0,"2021-11-24 18:14:46.838239","","","","","","",""
14.0,0.07863255590200424,0.0019952741194666436,"train",15600.0,"2021-11-24 18:14:50.164391","","","","","","",""
14.0,0.05425143614411354,0.0019956379326076354,"train",15620.0,"2021-11-24 18:14:53.522363","","","","","","",""
14.0,0.0599348247051239,0.001995987207389146,"train",15640.0,"2021-11-24 18:14:56.889648","","","","","","",""
14.0,0.03781605511903763,0.0019963219384975706,"train",15660.0,"2021-11-24 18:15:00.998835","","","","","","",""
14.0,0.04730098322033882,0.001996642120840561,"train",15680.0,"2021-11-24 18:15:04.380440","","","","","","",""
14.0,0.053273532539606094,0.001996947749547103,"train",15700.0,"2021-11-24 18:15:07.712740","","","","","","",""
14.0,0.053452614694833755,0.0019972388199675905,"train",15720.0,"2021-11-24 18:15:11.065311","","","","","","",""
14.0,0.057394251227378845,0.001997515327673896,"train",15740.0,"2021-11-24 18:15:14.467768","","","","","","",""
14.0,0.04949287325143814,0.0019977772684594388,"train",15760.0,"2021-11-24 18:15:17.910074","","","","","","",""
14.0,0.03904900699853897,0.0019980246383392475,"train",15780.0,"2021-11-24 18:15:21.361645","","","","","","",""
14.0,0.07446948438882828,0.0019982574335500225,"train",15800.0,"2021-11-24 18:15:25.502017","","","","","","",""
14.0,0.05079204589128494,0.001998475650550192,"train",15820.0,"2021-11-24 18:15:28.918324","","","","","","",""
14.0,0.06047695502638817,0.0019986792860199657,"train",15840.0,"2021-11-24 18:15:32.366787","","","","","","",""
14.0,0.056713320314884186,0.001998868336861386,"train",15860.0,"2021-11-24 18:15:35.791638","","","","","","",""
14.0,0.05577144771814346,0.001999042800198376,"train",15880.0,"2021-11-24 18:15:39.212872","","","","","","",""
14.0,0.04774802550673485,0.00199920267337678,"train",15900.0,"2021-11-24 18:15:42.738453","","","","","","",""
14.0,0.07598546147346497,0.0019993479539644077,"train",15920.0,"2021-11-24 18:15:46.265501","","","","","","",""
14.0,0.05436722934246063,0.0019994786397510697,"train",15940.0,"2021-11-24 18:15:50.447210","","","","","","",""
14.0,0.07855137437582016,0.0019995947287486096,"train",15960.0,"2021-11-24 18:15:53.890241","","","","","","",""
14.0,0.06572055071592331,0.0019996962191909367,"train",15980.0,"2021-11-24 18:15:57.262126","","","","","","",""
14.0,0.05027827247977257,0.0019997831095340513,"train",16000.0,"2021-11-24 18:16:00.726767","","","","","","",""
14.0,0.06943555176258087,0.001999855398456069,"train",16020.0,"2021-11-24 18:16:04.162880","","","","","","",""
14.0,0.06701640784740448,0.00199991308485724,"train",16040.0,"2021-11-24 18:16:07.626886","","","","","","",""
14.0,0.061506710946559906,0.001999956167859967,"train",16060.0,"2021-11-24 18:16:11.161865","","","","","","",""
14.0,0.039631523191928864,0.0019999846468088172,"train",16080.0,"2021-11-24 18:16:14.625494","","","","","","",""
14.0,0.05040821433067322,0.0019999985212705335,"train",16100.0,"2021-11-24 18:16:18.718570","","","","","","",""
14.0,"","","train",16110.0,"2021-11-24 18:17:52.409658",0.6302845084770429,0.6465374477942932,0.9539831570997256,0.6508308193611207,0.5335717442392542,0.5511615991291452,0.3800066817973799
14.0,"","","val",16110.0,"2021-11-24 18:18:17.853436",0.5947466079090804,0.5887156133145627,0.9385449562742139,0.6070530969036542,0.4958547113209548,0.5101049290753875,0.33704084205762747
15.0,0.03117229975759983,0.0019999995774202316,"train",16120.0,"2021-11-24 18:18:22.461368","","","","","","",""
15.0,0.056698933243751526,0.0019999966438102564,"train",16140.0,"2021-11-24 18:18:26.085278","","","","","","",""
15.0,0.02951023355126381,0.0019999909162942875,"train",16160.0,"2021-11-24 18:18:29.597073","","","","","","",""
15.0,0.037575095891952515,0.001999982394888327,"train",16180.0,"2021-11-24 18:18:33.004424","","","","","","",""
15.0,0.04945911839604378,0.0019999710796161823,"train",16200.0,"2021-11-24 18:18:36.624009","","","","","","",""
15.0,0.04843997210264206,0.0019999569705094686,"train",16220.0,"2021-11-24 18:18:40.009072","","","","","","",""
15.0,0.06839539855718613,0.001999940067607605,"train",16240.0,"2021-11-24 18:18:44.157003","","","","","","",""
15.0,0.07167237251996994,0.001999920370957817,"train",16260.0,"2021-11-24 18:18:47.519268","","","","","","",""
15.0,0.08545410633087158,0.0019998978806151355,"train",16280.0,"2021-11-24 18:18:50.876239","","","","","","",""
15.0,0.05193212628364563,0.0019998725966423976,"train",16300.0,"2021-11-24 18:18:54.401917","","","","","","",""
15.0,0.04373754933476448,0.001999844519110244,"train",16320.0,"2021-11-24 18:18:57.722343","","","","","","",""
15.0,0.06422407925128937,0.001999813648097122,"train",16340.0,"2021-11-24 18:19:01.175129","","","","","","",""
15.0,0.060615424066782,0.001999779983689282,"train",16360.0,"2021-11-24 18:19:04.707406","","","","","","",""
15.0,0.06331577152013779,0.0019997435259807806,"train",16380.0,"2021-11-24 18:19:08.901708","","","","","","",""
15.0,0.04503757506608963,0.001999704275073478,"train",16400.0,"2021-11-24 18:19:12.336629","","","","","","",""
15.0,0.0462191216647625,0.0019996622310770383,"train",16420.0,"2021-11-24 18:19:15.838671","","","","","","",""
15.0,0.07194673269987106,0.0019996173941089286,"train",16440.0,"2021-11-24 18:19:19.469398","","","","","","",""
15.0,0.05797329545021057,0.0019995697642944212,"train",16460.0,"2021-11-24 18:19:23.064559","","","","","","",""
15.0,0.04802777245640755,0.0019995193417665894,"train",16480.0,"2021-11-24 18:19:26.644313","","","","","","",""
15.0,0.04501385986804962,0.0019994661266663108,"train",16500.0,"2021-11-24 18:19:30.097730","","","","","","",""
15.0,0.047159790992736816,0.001999410119142264,"train",16520.0,"2021-11-24 18:19:34.230696","","","","","","",""
15.0,0.05110309273004532,0.0019993513193509297,"train",16540.0,"2021-11-24 18:19:37.616022","","","","","","",""
15.0,0.07788572460412979,0.0019992897274565906,"train",16560.0,"2021-11-24 18:19:41.000724","","","","","","",""
15.0,0.05935075134038925,0.0019992253436313303,"train",16580.0,"2021-11-24 18:19:44.479477","","","","","","",""
15.0,0.06484242528676987,0.0019991581680550313,"train",16600.0,"2021-11-24 18:19:47.996012","","","","","","",""
15.0,0.054663434624671936,0.0019990882009153785,"train",16620.0,"2021-11-24 18:19:51.500622","","","","","","",""
15.0,0.04187193512916565,0.001999015442407854,"train",16640.0,"2021-11-24 18:19:54.998926","","","","","","",""
15.0,0.06010771915316582,0.0019989398927357403,"train",16660.0,"2021-11-24 18:19:59.087406","","","","","","",""
15.0,0.04418323189020157,0.0019988615521101174,"train",16680.0,"2021-11-24 18:20:02.533488","","","","","","",""
15.0,0.05597398430109024,0.0019987804207498637,"train",16700.0,"2021-11-24 18:20:05.931553","","","","","","",""
15.0,0.059205856174230576,0.0019986964988816533,"train",16720.0,"2021-11-24 18:20:09.307102","","","","","","",""
15.0,0.03696228936314583,0.0019986097867399585,"train",16740.0,"2021-11-24 18:20:12.671158","","","","","","",""
15.0,0.08075156807899475,0.0019985202845670463,"train",16760.0,"2021-11-24 18:20:16.088396","","","","","","",""
15.0,0.06107376515865326,0.0019984279926129798,"train",16780.0,"2021-11-24 18:20:19.533713","","","","","","",""
15.0,0.0647958293557167,0.001998332911135615,"train",16800.0,"2021-11-24 18:20:22.958149","","","","","","",""
15.0,0.06943919509649277,0.0019982350404006036,"train",16820.0,"2021-11-24 18:20:27.116814","","","","","","",""
15.0,0.03156301751732826,0.0019981343806813883,"train",16840.0,"2021-11-24 18:20:30.539060","","","","","","",""
15.0,0.0818556696176529,0.001998030932259205,"train",16860.0,"2021-11-24 18:20:33.883241","","","","","","",""
15.0,0.06820506602525711,0.0019979246954230823,"train",16880.0,"2021-11-24 18:20:37.281005","","","","","","",""
15.0,0.0847480297088623,0.0019978156704698363,"train",16900.0,"2021-11-24 18:20:40.619801","","","","","","",""
15.0,0.04640612378716469,0.001997703857704076,"train",16920.0,"2021-11-24 18:20:43.949905","","","","","","",""
15.0,0.036301132291555405,0.0019975892574381976,"train",16940.0,"2021-11-24 18:20:47.398611","","","","","","",""
15.0,0.04245348274707794,0.001997471869992386,"train",16960.0,"2021-11-24 18:20:51.293276","","","","","","",""
15.0,0.061992570757865906,0.0019973516956946127,"train",16980.0,"2021-11-24 18:20:54.722103","","","","","","",""
15.0,0.062290605157613754,0.0019972287348806366,"train",17000.0,"2021-11-24 18:20:58.073511","","","","","","",""
15.0,0.08583024889230728,0.0019971029878940003,"train",17020.0,"2021-11-24 18:21:01.545943","","","","","","",""
15.0,0.03521646931767464,0.0019969744550860317,"train",17040.0,"2021-11-24 18:21:04.985296","","","","","","",""
15.0,0.05219307541847229,0.0019968431368158433,"train",17060.0,"2021-11-24 18:21:08.372073","","","","","","",""
15.0,0.0886036828160286,0.001996709033450327,"train",17080.0,"2021-11-24 18:21:11.706217","","","","","","",""
15.0,0.04243238642811775,0.0019965721453641585,"train",17100.0,"2021-11-24 18:21:15.751649","","","","","","",""
15.0,0.05459272116422653,0.0019964324729397935,"train",17120.0,"2021-11-24 18:21:19.035972","","","","","","",""
15.0,0.060610588639974594,0.0019962900165674657,"train",17140.0,"2021-11-24 18:21:22.309384","","","","","","",""
15.0,0.043856751173734665,0.0019961447766451887,"train",17160.0,"2021-11-24 18:21:25.691354","","","","","","",""
15.0,0.06899619102478027,0.001995996753578751,"train",17180.0,"2021-11-24 18:21:29.101613","","","","","","",""
15.0,"","","train",17184.0,"2021-11-24 18:23:02.273800",0.6319289820272138,0.6516016939985522,0.9574184798821809,0.6538640827138035,0.5492814442280325,0.5755663618477775,0.38658460907023995
15.0,"","","val",17184.0,"2021-11-24 18:23:27.061863",0.594282732227763,0.5871229612555313,0.9421980399177339,0.605201671124498,0.49809665582736906,0.5204032648017304,0.3321739132048055
16.0,0.060072388499975204,0.001995845947781719,"train",17200.0,"2021-11-24 18:23:32.752291","","","","","","",""
16.0,0.03165778890252113,0.001995692359675433,"train",17220.0,"2021-11-24 18:23:36.266215","","","","","","",""
16.0,0.058362577110528946,0.0019955359896890066,"train",17240.0,"2021-11-24 18:23:40.590518","","","","","","",""
16.0,0.055366113781929016,0.0019953768382593258,"train",17260.0,"2021-11-24 18:23:44.064939","","","","","","",""
16.0,0.04360859841108322,0.0019952149058310486,"train",17280.0,"2021-11-24 18:23:47.542675","","","","","","",""
16.0,0.04644173011183739,0.001995050192856602,"train",17300.0,"2021-11-24 18:23:51.068448","","","","","","",""
16.0,0.04933566600084305,0.001994882699796182,"train",17320.0,"2021-11-24 18:23:54.378307","","","","","","",""
16.0,0.054199252277612686,0.001994712427117752,"train",17340.0,"2021-11-24 18:23:57.700525","","","","","","",""
16.0,0.0818130299448967,0.0019945393752970413,"train",17360.0,"2021-11-24 18:24:01.124808","","","","","","",""
16.0,0.0640440434217453,0.001994363544817544,"train",17380.0,"2021-11-24 18:24:05.341755","","","","","","",""
16.0,0.04603917896747589,0.001994184936170517,"train",17400.0,"2021-11-24 18:24:08.808700","","","","","","",""
16.0,0.061057139188051224,0.0019940035498549804,"train",17420.0,"2021-11-24 18:24:12.255912","","","","","","",""
16.0,0.0625925064086914,0.0019938193863777145,"train",17440.0,"2021-11-24 18:24:15.755060","","","","","","",""
16.0,0.03990296646952629,0.001993632446253258,"train",17460.0,"2021-11-24 18:24:19.168372","","","","","","",""
16.0,0.0543881319463253,0.0019934427300039074,"train",17480.0,"2021-11-24 18:24:22.665290","","","","","","",""
16.0,0.03880931809544563,0.001993250238159717,"train",17500.0,"2021-11-24 18:24:26.100311","","","","","","",""
16.0,0.05294106900691986,0.0019930549712584944,"train",17520.0,"2021-11-24 18:24:30.111830","","","","","","",""
16.0,0.05788913369178772,0.001992856929845801,"train",17540.0,"2021-11-24 18:24:33.582285","","","","","","",""
16.0,0.05652579292654991,0.0019926561144749497,"train",17560.0,"2021-11-24 18:24:36.968068","","","","","","",""
16.0,0.0654066726565361,0.001992452525707004,"train",17580.0,"2021-11-24 18:24:40.330541","","","","","","",""
16.0,0.047375425696372986,0.0019922461641107767,"train",17600.0,"2021-11-24 18:24:43.654743","","","","","","",""
16.0,0.04588755965232849,0.001992037030262826,"train",17620.0,"2021-11-24 18:24:47.207437","","","","","","",""
16.0,0.05377231538295746,0.0019918251247474567,"train",17640.0,"2021-11-24 18:24:50.601692","","","","","","",""
16.0,0.0432833768427372,0.001991610448156718,"train",17660.0,"2021-11-24 18:24:54.049294","","","","","","",""
16.0,0.053740035742521286,0.0019913930010903996,"train",17680.0,"2021-11-24 18:24:58.039036","","","","","","",""
16.0,0.06939143687486649,0.001991172784156033,"train",17700.0,"2021-11-24 18:25:01.393536","","","","","","",""
16.0,0.09391453862190247,0.0019909497979688877,"train",17720.0,"2021-11-24 18:25:04.784681","","","","","","",""
16.0,0.05212399736046791,0.0019907240431519713,"train",17740.0,"2021-11-24 18:25:08.195379","","","","","","",""
16.0,0.05274006351828575,0.001990495520336026,"train",17760.0,"2021-11-24 18:25:11.446744","","","","","","",""
16.0,0.06099773198366165,0.0019902642301595284,"train",17780.0,"2021-11-24 18:25:14.750896","","","","","","",""
16.0,0.023615989834070206,0.001990030173268685,"train",17800.0,"2021-11-24 18:25:18.098203","","","","","","",""
16.0,0.061310842633247375,0.0019897933503174345,"train",17820.0,"2021-11-24 18:25:22.202740","","","","","","",""
16.0,0.0709526464343071,0.0019895537619674425,"train",17840.0,"2021-11-24 18:25:25.526066","","","","","","",""
16.0,0.07378250360488892,0.001989311408888101,"train",17860.0,"2021-11-24 18:25:28.882818","","","","","","",""
16.0,0.05918550863862038,0.001989066291756527,"train",17880.0,"2021-11-24 18:25:32.262387","","","","","","",""
16.0,0.03556555137038231,0.00198881841125756,"train",17900.0,"2021-11-24 18:25:35.765068","","","","","","",""
16.0,0.057576265186071396,0.0019885677680837595,"train",17920.0,"2021-11-24 18:25:39.148588","","","","","","",""
16.0,0.0722491592168808,0.001988314362935404,"train",17940.0,"2021-11-24 18:25:42.485589","","","","","","",""
16.0,0.06805187463760376,0.0019880581965204896,"train",17960.0,"2021-11-24 18:25:46.399550","","","","","","",""
16.0,0.06646668910980225,0.0019877992695547255,"train",17980.0,"2021-11-24 18:25:49.692257","","","","","","",""
16.0,0.05522853881120682,0.0019875375827615354,"train",18000.0,"2021-11-24 18:25:53.130882","","","","","","",""
16.0,0.0410943441092968,0.0019872731368720527,"train",18020.0,"2021-11-24 18:25:56.544350","","","","","","",""
16.0,0.05515147000551224,0.00198700593262512,"train",18040.0,"2021-11-24 18:25:59.976033","","","","","","",""
16.0,0.05760194733738899,0.001986735970767286,"train",18060.0,"2021-11-24 18:26:03.391682","","","","","","",""
16.0,0.0475836843252182,0.001986463252052804,"train",18080.0,"2021-11-24 18:26:06.833408","","","","","","",""
16.0,0.0834183618426323,0.0019861877772436305,"train",18100.0,"2021-11-24 18:26:10.991937","","","","","","",""
16.0,0.04313962906599045,0.001985909547109422,"train",18120.0,"2021-11-24 18:26:14.426951","","","","","","",""
16.0,0.06729636341333389,0.001985628562427533,"train",18140.0,"2021-11-24 18:26:17.863905","","","","","","",""
16.0,0.035808078944683075,0.001985344823983014,"train",18160.0,"2021-11-24 18:26:21.259757","","","","","","",""
16.0,0.04583576321601868,0.001985058332568609,"train",18180.0,"2021-11-24 18:26:24.638946","","","","","","",""
16.0,0.05146677792072296,0.001984769088984755,"train",18200.0,"2021-11-24 18:26:28.029184","","","","","","",""
16.0,0.045801788568496704,0.001984477094039576,"train",18220.0,"2021-11-24 18:26:31.396728","","","","","","",""
16.0,0.04936259612441063,0.001984182348548885,"train",18240.0,"2021-11-24 18:26:35.526254","","","","","","",""
16.0,"","","train",18258.0,"2021-11-24 18:28:10.995086",0.6508040456959907,0.6731737008996499,0.9605027604344337,0.6738900935034328,0.5588460456375596,0.5805794387704948,0.4026109635306234
16.0,"","","val",18258.0,"2021-11-24 18:28:36.076849",0.6055897019598747,0.5908117287142617,0.9431660801252768,0.6207827017135283,0.5056519111896447,0.5239136199306165,0.3441805402333756
17.0,0.09811966866254807,0.00198388485333618,"train",18260.0,"2021-11-24 18:28:39.126030","","","","","","",""
17.0,0.04245366156101227,0.0019835846092326396,"train",18280.0,"2021-11-24 18:28:42.969113","","","","","","",""
17.0,0.05484467372298241,0.0019832816170771246,"train",18300.0,"2021-11-24 18:28:46.618618","","","","","","",""
17.0,0.04214083403348923,0.001982975877716172,"train",18320.0,"2021-11-24 18:28:50.214435","","","","","","",""
17.0,0.061383649706840515,0.0019826673920039957,"train",18340.0,"2021-11-24 18:28:53.743102","","","","","","",""
17.0,0.06193394213914871,0.0019823561608024822,"train",18360.0,"2021-11-24 18:28:57.209450","","","","","","",""
17.0,0.06536431610584259,0.0019820421849811886,"train",18380.0,"2021-11-24 18:29:00.684621","","","","","","",""
17.0,0.04119526222348213,0.0019817254654173402,"train",18400.0,"2021-11-24 18:29:04.900043","","","","","","",""
17.0,0.04254177212715149,0.0019814060029958278,"train",18420.0,"2021-11-24 18:29:08.221632","","","","","","",""
17.0,0.060762111097574234,0.001981083798609206,"train",18440.0,"2021-11-24 18:29:11.600930","","","","","","",""
17.0,0.06329581141471863,0.0019807588531576908,"train",18460.0,"2021-11-24 18:29:14.960182","","","","","","",""
17.0,0.06053319200873375,0.0019804311675491555,"train",18480.0,"2021-11-24 18:29:18.304109","","","","","","",""
17.0,0.04200290888547897,0.00198010074269913,"train",18500.0,"2021-11-24 18:29:21.692768","","","","","","",""
17.0,0.06123309209942818,0.0019797675795307965,"train",18520.0,"2021-11-24 18:29:25.093538","","","","","","",""
17.0,0.08460041135549545,0.0019794316789749885,"train",18540.0,"2021-11-24 18:29:29.178575","","","","","","",""
17.0,0.03246348351240158,0.0019790930419701877,"train",18560.0,"2021-11-24 18:29:32.635516","","","","","","",""
17.0,0.04735112190246582,0.0019787516694625214,"train",18580.0,"2021-11-24 18:29:36.073824","","","","","","",""
17.0,0.06051674112677574,0.0019784075624057584,"train",18600.0,"2021-11-24 18:29:39.511260","","","","","","",""
17.0,0.06760396808385849,0.0019780607217613094,"train",18620.0,"2021-11-24 18:29:42.952814","","","","","","",""
17.0,0.05090554058551788,0.001977711148498221,"train",18640.0,"2021-11-24 18:29:46.377947","","","","","","",""
17.0,0.0467255599796772,0.0019773588435931756,"train",18660.0,"2021-11-24 18:29:49.821308","","","","","","",""
17.0,0.03919104486703873,0.0019770038080304873,"train",18680.0,"2021-11-24 18:29:53.825725","","","","","","",""
17.0,0.07909281551837921,0.001976646042802099,"train",18700.0,"2021-11-24 18:29:57.274954","","","","","","",""
17.0,0.05386778712272644,0.0019762855489075808,"train",18720.0,"2021-11-24 18:30:00.660557","","","","","","",""
17.0,0.04399635270237923,0.001975922327354126,"train",18740.0,"2021-11-24 18:30:03.997005","","","","","","",""
17.0,0.05659672990441322,0.001975556379156549,"train",18760.0,"2021-11-24 18:30:07.451409","","","","","","",""
17.0,0.07613669335842133,0.0019751877053372823,"train",18780.0,"2021-11-24 18:30:10.711128","","","","","","",""
17.0,0.047437772154808044,0.001974816306926373,"train",18800.0,"2021-11-24 18:30:13.944449","","","","","","",""
17.0,0.0402868278324604,0.001974442184961482,"train",18820.0,"2021-11-24 18:30:18.057210","","","","","","",""
17.0,0.0490817129611969,0.0019740653404878776,"train",18840.0,"2021-11-24 18:30:21.575321","","","","","","",""
17.0,0.04095267504453659,0.0019736857745584362,"train",18860.0,"2021-11-24 18:30:24.980757","","","","","","",""
17.0,0.051798589527606964,0.0019733034882336367,"train",18880.0,"2021-11-24 18:30:28.364573","","","","","","",""
17.0,0.06647192686796188,0.0019729184825815586,"train",18900.0,"2021-11-24 18:30:31.815321","","","","","","",""
17.0,0.04171781614422798,0.0019725307586778806,"train",18920.0,"2021-11-24 18:30:35.274857","","","","","","",""
17.0,0.04193374142050743,0.001972140317605874,"train",18940.0,"2021-11-24 18:30:38.831668","","","","","","",""
17.0,0.04212687537074089,0.0019717471604564028,"train",18960.0,"2021-11-24 18:30:42.862880","","","","","","",""
17.0,0.05157212167978287,0.0019713512883279185,"train",18980.0,"2021-11-24 18:30:46.225988","","","","","","",""
17.0,0.06426636874675751,0.00197095270232646,"train",19000.0,"2021-11-24 18:30:49.539237","","","","","","",""
17.0,0.08078756183385849,0.001970551403565646,"train",19020.0,"2021-11-24 18:30:52.982358","","","","","","",""
17.0,0.06787635385990143,0.0019701473931666765,"train",19040.0,"2021-11-24 18:30:56.439713","","","","","","",""
17.0,0.03534393385052681,0.001969740672258327,"train",19060.0,"2021-11-24 18:30:59.884354","","","","","","",""
17.0,0.06453798711299896,0.0019693312419769454,"train",19080.0,"2021-11-24 18:31:03.386496","","","","","","",""
17.0,0.05145087465643883,0.0019689191034664498,"train",19100.0,"2021-11-24 18:31:06.852050","","","","","","",""
17.0,0.042658764868974686,0.0019685042578783257,"train",19120.0,"2021-11-24 18:31:11.017715","","","","","","",""
17.0,0.08544271439313889,0.00196808670637162,"train",19140.0,"2021-11-24 18:31:14.441579","","","","","","",""
17.0,0.0406666174530983,0.001967666450112942,"train",19160.0,"2021-11-24 18:31:17.787194","","","","","","",""
17.0,0.04330536723136902,0.001967243490276456,"train",19180.0,"2021-11-24 18:31:21.166814","","","","","","",""
17.0,0.03990176320075989,0.0019668178280438818,"train",19200.0,"2021-11-24 18:31:24.579053","","","","","","",""
17.0,0.06051025167107582,0.0019663894646044875,"train",19220.0,"2021-11-24 18:31:27.983322","","","","","","",""
17.0,0.045668382197618484,0.001965958401155089,"train",19240.0,"2021-11-24 18:31:31.366870","","","","","","",""
17.0,0.06636981666088104,0.0019655246389000463,"train",19260.0,"2021-11-24 18:31:35.466966","","","","","","",""
17.0,0.10390397906303406,0.0019650881790512597,"train",19280.0,"2021-11-24 18:31:38.938442","","","","","","",""
17.0,0.03202366456389427,0.001964649022828165,"train",19300.0,"2021-11-24 18:31:42.368423","","","","","","",""
17.0,0.08753421902656555,0.0019642071714577325,"train",19320.0,"2021-11-24 18:31:45.759404","","","","","","",""
17.0,"","","train",19332.0,"2021-11-24 18:33:19.538089",0.6461034708578913,0.6686479018353763,0.9593489511483602,0.6791806286109305,0.5653482580905123,0.5945624376303795,0.4020641608172925
17.0,"","","val",19332.0,"2021-11-24 18:33:45.213766",0.5974138930766555,0.5852361462132009,0.9396536671894864,0.6214436900207779,0.5092651709816196,0.5317153272507269,0.3405613332031879
18.0,0.04384149983525276,0.0019637626261744634,"train",19340.0,"2021-11-24 18:33:49.423159","","","","","","",""
18.0,0.038455065339803696,0.001963315388220384,"train",19360.0,"2021-11-24 18:33:52.999229","","","","","","",""
18.0,0.07223989814519882,0.0019628654588450443,"train",19380.0,"2021-11-24 18:33:56.432257","","","","","","",""
18.0,0.06739906221628189,0.001962412839305514,"train",19400.0,"2021-11-24 18:34:00.542913","","","","","","",""
18.0,0.05566956475377083,0.0019619575308663785,"train",19420.0,"2021-11-24 18:34:03.955445","","","","","","",""
18.0,0.0428231917321682,0.001961499534799737,"train",19440.0,"2021-11-24 18:34:07.316608","","","","","","",""
18.0,0.053960252553224564,0.001961038852385196,"train",19460.0,"2021-11-24 18:34:10.730517","","","","","","",""
18.0,0.045697588473558426,0.0019605754849098683,"train",19480.0,"2021-11-24 18:34:14.046793","","","","","","",""
18.0,0.05105581879615784,0.0019601094336683693,"train",19500.0,"2021-11-24 18:34:17.432734","","","","","","",""
18.0,0.03667382523417473,0.0019596406999628116,"train",19520.0,"2021-11-24 18:34:20.874407","","","","","","",""
18.0,0.040223803371191025,0.0019591692851028022,"train",19540.0,"2021-11-24 18:34:25.054028","","","","","","",""
18.0,0.05354441702365875,0.001958695190405441,"train",19560.0,"2021-11-24 18:34:28.586917","","","","","","",""
18.0,0.05908020958304405,0.001958218417195312,"train",19580.0,"2021-11-24 18:34:32.094181","","","","","","",""
18.0,0.07503267377614975,0.001957738966804486,"train",19600.0,"2021-11-24 18:34:35.473710","","","","","","",""
18.0,0.04390716180205345,0.001957256840572511,"train",19620.0,"2021-11-24 18:34:38.947398","","","","","","",""
18.0,0.03712688758969307,0.0019567720398464133,"train",19640.0,"2021-11-24 18:34:42.434497","","","","","","",""
18.0,0.066774383187294,0.00195628456598069,"train",19660.0,"2021-11-24 18:34:45.910073","","","","","","",""
18.0,0.0420491024851799,0.001955794420337307,"train",19680.0,"2021-11-24 18:34:50.285198","","","","","","",""
18.0,0.0591653510928154,0.0019553016042856957,"train",19700.0,"2021-11-24 18:34:53.843467","","","","","","",""
18.0,0.04534546285867691,0.001954806119202748,"train",19720.0,"2021-11-24 18:34:57.457032","","","","","","",""
18.0,0.06120442599058151,0.001954307966472812,"train",19740.0,"2021-11-24 18:35:00.971296","","","","","","",""
18.0,0.045163027942180634,0.0019538071474876914,"train",19760.0,"2021-11-24 18:35:04.330557","","","","","","",""
18.0,0.037436164915561676,0.001953303663646636,"train",19780.0,"2021-11-24 18:35:07.717207","","","","","","",""
18.0,0.037578560411930084,0.0019527975163563436,"train",19800.0,"2021-11-24 18:35:11.234528","","","","","","",""
18.0,0.03692522272467613,0.0019522887070309524,"train",19820.0,"2021-11-24 18:35:15.574599","","","","","","",""
18.0,0.05017256364226341,0.0019517772370920379,"train",19840.0,"2021-11-24 18:35:19.067849","","","","","","",""
18.0,0.036864180117845535,0.0019512631079686104,"train",19860.0,"2021-11-24 18:35:22.441527","","","","","","",""
18.0,0.04365870729088783,0.001950746321097108,"train",19880.0,"2021-11-24 18:35:25.877821","","","","","","",""
18.0,0.049645330756902695,0.0019502268779213957,"train",19900.0,"2021-11-24 18:35:29.368867","","","","","","",""
18.0,0.04559064656496048,0.0019497047798927598,"train",19920.0,"2021-11-24 18:35:32.880212","","","","","","",""
18.0,0.05522507056593895,0.001949180028469903,"train",19940.0,"2021-11-24 18:35:36.341487","","","","","","",""
18.0,0.06314653158187866,0.0019486526251189435,"train",19960.0,"2021-11-24 18:35:40.314994","","","","","","",""
18.0,0.06119319424033165,0.0019481225713134064,"train",19980.0,"2021-11-24 18:35:43.709807","","","","","","",""
18.0,0.04670220613479614,0.0019475898685342235,"train",20000.0,"2021-11-24 18:35:47.159533","","","","","","",""
18.0,0.06377553939819336,0.0019470545182697272,"train",20020.0,"2021-11-24 18:35:50.574192","","","","","","",""
18.0,0.03900613263249397,0.001946516522015647,"train",20040.0,"2021-11-24 18:35:53.892822","","","","","","",""
18.0,0.04613085091114044,0.0019459758812751047,"train",20060.0,"2021-11-24 18:35:57.288376","","","","","","",""
18.0,0.0691315159201622,0.0019454325975586106,"train",20080.0,"2021-11-24 18:36:00.673934","","","","","","",""
18.0,0.04096183180809021,0.0019448866723840602,"train",20100.0,"2021-11-24 18:36:04.005362","","","","","","",""
18.0,0.03744227811694145,0.001944338107276728,"train",20120.0,"2021-11-24 18:36:08.067022","","","","","","",""
18.0,0.0679485946893692,0.0019437869037692644,"train",20140.0,"2021-11-24 18:36:11.500867","","","","","","",""
18.0,0.06109122931957245,0.0019432330634016912,"train",20160.0,"2021-11-24 18:36:14.942742","","","","","","",""
18.0,0.05575723201036453,0.0019426765877213986,"train",20180.0,"2021-11-24 18:36:18.292240","","","","","","",""
18.0,0.07896264642477036,0.0019421174782831383,"train",20200.0,"2021-11-24 18:36:21.781099","","","","","","",""
18.0,0.07457052916288376,0.0019415557366490208,"train",20220.0,"2021-11-24 18:36:25.162305","","","","","","",""
