"epoch","loss","lr","part","step","time","accuracy","auprc","auroc","challenge_metric","f_beta_measure","f_measure","g_beta_measure"
0.0,0.4519667327404022,8.000730236035311e-05,"train",20.0,"2021-11-19 12:42:05.324325","","","","","","",""
0.0,0.24789336323738098,8.002920933031948e-05,"train",40.0,"2021-11-19 12:42:08.907694","","","","","","",""
0.0,0.12656083703041077,8.006572057662293e-05,"train",60.0,"2021-11-19 12:42:12.461015","","","","","","",""
0.0,0.1285715252161026,8.011683554380914e-05,"train",80.0,"2021-11-19 12:42:16.268085","","","","","","",""
0.0,0.13058213889598846,8.018255345425274e-05,"train",100.0,"2021-11-19 12:42:19.631581","","","","","","",""
0.0,0.12057323008775711,8.026287330817079e-05,"train",120.0,"2021-11-19 12:42:23.015949","","","","","","",""
0.0,0.11627814173698425,8.03577938836373e-05,"train",140.0,"2021-11-19 12:42:26.781686","","","","","","",""
0.0,0.1167050376534462,8.04673137366021e-05,"train",160.0,"2021-11-19 12:42:30.214871","","","","","","",""
0.0,0.10992171615362167,8.059143120091187e-05,"train",180.0,"2021-11-19 12:42:33.702475","","","","","","",""
0.0,0.12777861952781677,8.073014438833613e-05,"train",200.0,"2021-11-19 12:42:37.408465","","","","","","",""
0.0,0.10923058539628983,8.088345118859724e-05,"train",220.0,"2021-11-19 12:42:40.836853","","","","","","",""
0.0,0.1131790354847908,8.10513492693996e-05,"train",240.0,"2021-11-19 12:42:44.311008","","","","","","",""
0.0,0.12765206396579742,8.123383607646804e-05,"train",260.0,"2021-11-19 12:42:48.104911","","","","","","",""
0.0,0.12452474236488342,8.143090883358495e-05,"train",280.0,"2021-11-19 12:42:51.531129","","","","","","",""
0.0,0.140800341963768,8.164256454263295e-05,"train",300.0,"2021-11-19 12:42:54.972533","","","","","","",""
0.0,0.12773361802101135,8.186879998364088e-05,"train",320.0,"2021-11-19 12:42:58.740746","","","","","","",""
0.0,0.11354973167181015,8.210961171483213e-05,"train",340.0,"2021-11-19 12:43:02.182396","","","","","","",""
0.0,0.12051043659448624,8.236499607267717e-05,"train",360.0,"2021-11-19 12:43:05.651064","","","","","","",""
0.0,0.12526646256446838,8.26349491719505e-05,"train",380.0,"2021-11-19 12:43:09.339179","","","","","","",""
0.0,0.12173730880022049,8.291946690578713e-05,"train",400.0,"2021-11-19 12:43:12.920310","","","","","","",""
0.0,0.10989635437726974,8.321854494574774e-05,"train",420.0,"2021-11-19 12:43:16.484792","","","","","","",""
0.0,0.1056642234325409,8.353217874188293e-05,"train",440.0,"2021-11-19 12:43:20.335968","","","","","","",""
0.0,0.11122900992631912,8.38603635228035e-05,"train",460.0,"2021-11-19 12:43:23.869799","","","","","","",""
0.0,0.11226663738489151,8.420309429575212e-05,"train",480.0,"2021-11-19 12:43:27.367346","","","","","","",""
0.0,0.10934878140687943,8.456036584667914e-05,"train",500.0,"2021-11-19 12:43:31.232268","","","","","","",""
0.0,0.11898786574602127,8.493217274032315e-05,"train",520.0,"2021-11-19 12:43:34.762796","","","","","","",""
0.0,0.10716086626052856,8.531850932029235e-05,"train",540.0,"2021-11-19 12:43:38.386262","","","","","","",""
0.0,0.11035671830177307,8.571936970915212e-05,"train",560.0,"2021-11-19 12:43:42.201815","","","","","","",""
0.0,0.10862380266189575,8.613474780851246e-05,"train",580.0,"2021-11-19 12:43:45.765442","","","","","","",""
0.0,0.11401645094156265,8.656463729912224e-05,"train",600.0,"2021-11-19 12:43:49.283437","","","","","","",""
0.0,0.11039792001247406,8.700903164096468e-05,"train",620.0,"2021-11-19 12:43:53.011972","","","","","","",""
0.0,0.09833716601133347,8.746792407335769e-05,"train",640.0,"2021-11-19 12:43:56.521270","","","","","","",""
0.0,0.10253070294857025,8.794130761505497e-05,"train",660.0,"2021-11-19 12:44:00.003813","","","","","","",""
0.0,0.08577392995357513,8.842917506435462e-05,"train",680.0,"2021-11-19 12:44:03.841065","","","","","","",""
0.0,0.10120007395744324,8.893151899920645e-05,"train",700.0,"2021-11-19 12:44:07.376312","","","","","","",""
0.0,0.08645540475845337,8.944833177732632e-05,"train",720.0,"2021-11-19 12:44:10.907555","","","","","","",""
0.0,0.10266998410224915,8.997960553631186e-05,"train",740.0,"2021-11-19 12:44:14.812057","","","","","","",""
0.0,0.1067696213722229,9.052533219376224e-05,"train",760.0,"2021-11-19 12:44:18.347880","","","","","","",""
0.0,0.09194719046354294,9.108550344740104e-05,"train",780.0,"2021-11-19 12:44:21.883733","","","","","","",""
0.0,0.10069643706083298,9.166011077520208e-05,"train",800.0,"2021-11-19 12:44:25.733296","","","","","","",""
0.0,0.10119703412055969,9.224914543552059e-05,"train",820.0,"2021-11-19 12:44:29.398194","","","","","","",""
0.0,0.09916025400161743,9.285259846722417e-05,"train",840.0,"2021-11-19 12:44:33.032313","","","","","","",""
0.0,0.08792459219694138,9.34704606898307e-05,"train",860.0,"2021-11-19 12:44:36.956235","","","","","","",""
0.0,0.09352917969226837,9.410272270364735e-05,"train",880.0,"2021-11-19 12:44:40.612012","","","","","","",""
0.0,0.0786772146821022,9.474937488991348e-05,"train",900.0,"2021-11-19 12:44:44.162295","","","","","","",""
0.0,0.09302917122840881,9.541040741094719e-05,"train",920.0,"2021-11-19 12:44:48.036748","","","","","","",""
0.0,0.10310570150613785,9.608581021029522e-05,"train",940.0,"2021-11-19 12:44:51.583063","","","","","","",""
0.0,0.09482842683792114,9.677557301288509e-05,"train",960.0,"2021-11-19 12:44:55.131577","","","","","","",""
0.0,0.09715097397565842,9.747968532518238e-05,"train",980.0,"2021-11-19 12:44:58.989292","","","","","","",""
0.0,0.07623114436864853,9.819813643535029e-05,"train",1000.0,"2021-11-19 12:45:02.567923","","","","","","",""
0.0,0.09963873773813248,9.893091541341185e-05,"train",1020.0,"2021-11-19 12:45:06.049315","","","","","","",""
0.0,0.10196293890476227,9.967801111141644e-05,"train",1040.0,"2021-11-19 12:45:09.869973","","","","","","",""
0.0,0.11185701191425323,0.00010043941216361023,"train",1060.0,"2021-11-19 12:45:13.399199","","","","","","",""
0.0,"","","train",1074.0,"2021-11-19 12:47:07.286682",0.40433675325620316,0.2194615164827311,0.7950271656575887,0.3023920747204182,0.14788945415615723,0.14093153338358044,0.09760416963406467
0.0,"","","val",1074.0,"2021-11-19 12:47:37.932725",0.40229618462252115,0.21875399161814885,0.7957862901127878,0.3016191864047467,0.14745125021112535,0.14029739694047058,0.09686181545286493
1.0,0.10487383604049683,0.00010121510698660771,"train",1080.0,"2021-11-19 12:47:44.199321","","","","","","",""
1.0,0.09267204999923706,0.00010200508377956928,"train",1100.0,"2021-11-19 12:47:48.423376","","","","","","",""
1.0,0.10419438779354095,0.00010280933052437993,"train",1120.0,"2021-11-19 12:47:52.050465","","","","","","",""
1.0,0.08333214372396469,0.00010362783498583223,"train",1140.0,"2021-11-19 12:47:55.696954","","","","","","",""
1.0,0.10568510740995407,0.0001044605847118124,"train",1160.0,"2021-11-19 12:47:59.524842","","","","","","",""
1.0,0.07874039560556412,0.0001053075670334907,"train",1180.0,"2021-11-19 12:48:03.125201","","","","","","",""
1.0,0.10241290926933289,0.00010616876906551181,"train",1200.0,"2021-11-19 12:48:06.794604","","","","","","",""
1.0,0.08732134103775024,0.0001070441777061941,"train",1220.0,"2021-11-19 12:48:10.714854","","","","","","",""
1.0,0.09457476437091827,0.00010793377963772563,"train",1240.0,"2021-11-19 12:48:14.187351","","","","","","",""
1.0,0.08751142024993896,0.0001088375613263698,"train",1260.0,"2021-11-19 12:48:17.642151","","","","","","",""
1.0,0.10223454982042313,0.00010975550902266908,"train",1280.0,"2021-11-19 12:48:21.440162","","","","","","",""
1.0,0.08675578981637955,0.00011068760876165474,"train",1300.0,"2021-11-19 12:48:25.001370","","","","","","",""
1.0,0.0979970246553421,0.0001116338463630598,"train",1320.0,"2021-11-19 12:48:28.571375","","","","","","",""
1.0,0.0778849795460701,0.00011259420743153455,"train",1340.0,"2021-11-19 12:48:32.390113","","","","","","",""
1.0,0.08479918539524078,0.00011356867735686535,"train",1360.0,"2021-11-19 12:48:35.838969","","","","","","",""
1.0,0.07327806949615479,0.00011455724131419621,"train",1380.0,"2021-11-19 12:48:39.303594","","","","","","",""
1.0,0.07793902605772018,0.00011555988426425654,"train",1400.0,"2021-11-19 12:48:43.129839","","","","","","",""
1.0,0.08458876609802246,0.00011657659095358746,"train",1420.0,"2021-11-19 12:48:46.602595","","","","","","",""
1.0,0.10541298985481262,0.00011760734591477516,"train",1440.0,"2021-11-19 12:48:50.090723","","","","","","",""
1.0,0.101009301841259,0.00011865213346668618,"train",1460.0,"2021-11-19 12:48:53.810531","","","","","","",""
1.0,0.11578233540058136,0.00011971093771470502,"train",1480.0,"2021-11-19 12:48:57.243089","","","","","","",""
1.0,0.08426009863615036,0.0001207837425509777,"train",1500.0,"2021-11-19 12:49:00.667112","","","","","","",""
1.0,0.08580781519412994,0.00012187053165465503,"train",1520.0,"2021-11-19 12:49:04.352062","","","","","","",""
1.0,0.08940289169549942,0.000122971288492142,"train",1540.0,"2021-11-19 12:49:07.699242","","","","","","",""
1.0,0.10225465148687363,0.00012408599631734863,"train",1560.0,"2021-11-19 12:49:11.082390","","","","","","",""
1.0,0.09539682418107986,0.00012521463817194542,"train",1580.0,"2021-11-19 12:49:14.816314","","","","","","",""
1.0,0.08952617645263672,0.00012635719688562077,"train",1600.0,"2021-11-19 12:49:18.270795","","","","","","",""
1.0,0.10846982151269913,0.00012751365507634267,"train",1620.0,"2021-11-19 12:49:21.842780","","","","","","",""
1.0,0.06985684484243393,0.0001286839951506226,"train",1640.0,"2021-11-19 12:49:25.503227","","","","","","",""
1.0,0.06993293017148972,0.00012986819930378333,"train",1660.0,"2021-11-19 12:49:28.837633","","","","","","",""
1.0,0.0739283487200737,0.00013106624952023064,"train",1680.0,"2021-11-19 12:49:32.151528","","","","","","",""
1.0,0.1105043813586235,0.00013227812757372545,"train",1700.0,"2021-11-19 12:49:35.795755","","","","","","",""
1.0,0.07523573935031891,0.00013350381502766394,"train",1720.0,"2021-11-19 12:49:39.141627","","","","","","",""
1.0,0.0851486325263977,0.00013474329323535494,"train",1740.0,"2021-11-19 12:49:42.493049","","","","","","",""
1.0,0.07016531378030777,0.0001359965433403059,"train",1760.0,"2021-11-19 12:49:46.216281","","","","","","",""
1.0,0.09868640452623367,0.00013726354627650872,"train",1780.0,"2021-11-19 12:49:57.957698","","","","","","",""
1.0,0.09946964681148529,0.00013854428276873052,"train",1800.0,"2021-11-19 12:50:01.433861","","","","","","",""
1.0,0.08768008649349213,0.00013983873333280506,"train",1820.0,"2021-11-19 12:50:05.298495","","","","","","",""
1.0,0.09058919548988342,0.00014114687827593156,"train",1840.0,"2021-11-19 12:50:08.782681","","","","","","",""
1.0,0.06681676208972931,0.00014246869769697352,"train",1860.0,"2021-11-19 12:50:12.216127","","","","","","",""
1.0,0.07666318863630295,0.00014380417148676054,"train",1880.0,"2021-11-19 12:50:19.251578","","","","","","",""
1.0,0.09465833008289337,0.00014515327932839404,"train",1900.0,"2021-11-19 12:50:22.727590","","","","","","",""
1.0,0.11558519303798676,0.0001465160006975598,"train",1920.0,"2021-11-19 12:50:28.116595","","","","","","",""
1.0,0.07730654627084732,0.00014789231486283454,"train",1940.0,"2021-11-19 12:50:31.910486","","","","","","",""
1.0,0.09248779714107513,0.00014928220088600633,"train",1960.0,"2021-11-19 12:50:35.293624","","","","","","",""
1.0,0.09650951623916626,0.00015068563762239045,"train",1980.0,"2021-11-19 12:50:38.648494","","","","","","",""
1.0,0.08689369261264801,0.00015210260372115238,"train",2000.0,"2021-11-19 12:50:42.261584","","","","","","",""
1.0,0.10302812606096268,0.00015353307762563115,"train",2020.0,"2021-11-19 12:50:45.651390","","","","","","",""
1.0,0.08108444511890411,0.00015497703757366872,"train",2040.0,"2021-11-19 12:50:49.018495","","","","","","",""
1.0,0.0828627273440361,0.00015643446159794,"train",2060.0,"2021-11-19 12:50:52.835705","","","","","","",""
1.0,0.09018836915493011,0.0001579053275262887,"train",2080.0,"2021-11-19 12:50:56.269633","","","","","","",""
1.0,0.09963531047105789,0.00015938961298206183,"train",2100.0,"2021-11-19 12:50:59.872117","","","","","","",""
1.0,0.06834138929843903,0.00016088729538445297,"train",2120.0,"2021-11-19 12:51:03.988379","","","","","","",""
1.0,0.0821700319647789,0.000162398351948844,"train",2140.0,"2021-11-19 12:51:07.713417","","","","","","",""
1.0,"","","train",2148.0,"2021-11-19 12:52:56.731734",0.4415193189259987,0.3069284039948191,0.8478995848292337,0.3876195757476637,0.2057258946631839,0.2026581066709217,0.140675230375835
1.0,"","","val",2148.0,"2021-11-19 12:53:24.861784",0.43470949785457497,0.3031229466931445,0.8443063020811721,0.3798378903004675,0.20304485926772728,0.19983432663878611,0.13656925913954793
2.0,0.07372400909662247,0.00016392275968715297,"train",2160.0,"2021-11-19 12:53:31.557372","","","","","","",""
2.0,0.06955918669700623,0.00016546049540818223,"train",2180.0,"2021-11-19 12:53:35.690093","","","","","","",""
2.0,0.07134141772985458,0.00016701153571797313,"train",2200.0,"2021-11-19 12:53:39.206908","","","","","","",""
2.0,0.0974259227514267,0.00016857585702016015,"train",2220.0,"2021-11-19 12:53:42.800104","","","","","","",""
2.0,0.08330591022968292,0.00017015343551633126,"train",2240.0,"2021-11-19 12:53:46.729222","","","","","","",""
2.0,0.06909164041280746,0.0001717442472063892,"train",2260.0,"2021-11-19 12:53:50.345231","","","","","","",""
2.0,0.06687049567699432,0.00017334826788891681,"train",2280.0,"2021-11-19 12:53:53.925335","","","","","","",""
2.0,0.10246595740318298,0.00017496547316154555,"train",2300.0,"2021-11-19 12:53:57.706990","","","","","","",""
2.0,0.10101683437824249,0.00017659583842132573,"train",2320.0,"2021-11-19 12:54:01.202466","","","","","","",""
2.0,0.06600556522607803,0.00017823933886510217,"train",2340.0,"2021-11-19 12:54:04.829988","","","","","","",""
2.0,0.06791901588439941,0.00017989594948989015,"train",2360.0,"2021-11-19 12:54:08.724592","","","","","","",""
2.0,0.07283377647399902,0.00018156564509325753,"train",2380.0,"2021-11-19 12:54:12.360996","","","","","","",""
2.0,0.060129497200250626,0.0001832484002737059,"train",2400.0,"2021-11-19 12:54:15.973072","","","","","","",""
2.0,0.08563170582056046,0.00018494418943105877,"train",2420.0,"2021-11-19 12:54:19.755867","","","","","","",""
2.0,0.07794240117073059,0.00018665298676685078,"train",2440.0,"2021-11-19 12:54:23.313462","","","","","","",""
2.0,0.08767363429069519,0.0001883747662847191,"train",2460.0,"2021-11-19 12:54:26.882115","","","","","","",""
2.0,0.0641271099448204,0.00019010950179080112,"train",2480.0,"2021-11-19 12:54:30.824909","","","","","","",""
2.0,0.07085635513067245,0.00019185716689412995,"train",2500.0,"2021-11-19 12:54:34.349146","","","","","","",""
2.0,0.0762869268655777,0.00019361773500703797,"train",2520.0,"2021-11-19 12:54:37.902414","","","","","","",""
2.0,0.07836423069238663,0.00019539117934556168,"train",2540.0,"2021-11-19 12:54:41.746128","","","","","","",""
2.0,0.06584896147251129,0.00019717747292984696,"train",2560.0,"2021-11-19 12:54:45.256008","","","","","","",""
2.0,0.08704840391874313,0.0001989765885845624,"train",2580.0,"2021-11-19 12:54:48.818854","","","","","","",""
2.0,0.07820544391870499,0.00020078849893931014,"train",2600.0,"2021-11-19 12:54:52.575097","","","","","","",""
2.0,0.07616622745990753,0.0002026131764290434,"train",2620.0,"2021-11-19 12:54:56.028667","","","","","","",""
2.0,0.10128167271614075,0.00020445059329448614,"train",2640.0,"2021-11-19 12:54:59.476773","","","","","","",""
2.0,0.07599498331546783,0.00020630072158255497,"train",2660.0,"2021-11-19 12:55:03.422716","","","","","","",""
2.0,0.09900683164596558,0.00020816353314678467,"train",2680.0,"2021-11-19 12:55:06.965055","","","","","","",""
2.0,0.07413464039564133,0.00021003899964775505,"train",2700.0,"2021-11-19 12:55:10.528537","","","","","","",""
2.0,0.06876309216022491,0.00021192709255352473,"train",2720.0,"2021-11-19 12:55:14.368581","","","","","","",""
2.0,0.12233108282089233,0.00021382778314006255,"train",2740.0,"2021-11-19 12:55:17.955365","","","","","","",""
2.0,0.07963532954454422,0.00021574104249168615,"train",2760.0,"2021-11-19 12:55:21.540809","","","","","","",""
2.0,0.07469683140516281,0.00021766684150150133,"train",2780.0,"2021-11-19 12:55:25.505966","","","","","","",""
2.0,0.056223541498184204,0.00021960515087184485,"train",2800.0,"2021-11-19 12:55:29.022459","","","","","","",""
2.0,0.09087961912155151,0.00022155594111472978,"train",2820.0,"2021-11-19 12:55:32.527902","","","","","","",""
2.0,0.07698781788349152,0.0002235191825522959,"train",2840.0,"2021-11-19 12:55:36.463233","","","","","","",""
2.0,0.08035460114479065,0.00022549484531725838,"train",2860.0,"2021-11-19 12:55:40.084780","","","","","","",""
2.0,0.06341119855642319,0.00022748289935336434,"train",2880.0,"2021-11-19 12:55:43.685764","","","","","","",""
2.0,0.09514464437961578,0.00022948331441584964,"train",2900.0,"2021-11-19 12:55:47.426309","","","","","","",""
2.0,0.08041798323392868,0.00023149606007189785,"train",2920.0,"2021-11-19 12:55:50.998608","","","","","","",""
2.0,0.0747571513056755,0.00023352110570110476,"train",2940.0,"2021-11-19 12:55:54.547434","","","","","","",""
2.0,0.0756072923541069,0.00023555842049594305,"train",2960.0,"2021-11-19 12:55:58.400831","","","","","","",""
2.0,0.053967490792274475,0.00023760797346223305,"train",2980.0,"2021-11-19 12:56:01.965139","","","","","","",""
2.0,0.06947597861289978,0.00023966973341961028,"train",3000.0,"2021-11-19 12:56:05.529912","","","","","","",""
2.0,0.06911294907331467,0.0002417436690020044,"train",3020.0,"2021-11-19 12:56:09.272649","","","","","","",""
2.0,0.07142359763383865,0.00024382974865811325,"train",3040.0,"2021-11-19 12:56:12.813143","","","","","","",""
2.0,0.08447439223527908,0.000245927940651884,"train",3060.0,"2021-11-19 12:56:16.313497","","","","","","",""
2.0,0.09736175090074539,0.0002480382130629953,"train",3080.0,"2021-11-19 12:56:20.254602","","","","","","",""
2.0,0.07708528637886047,0.0002501605337873443,"train",3100.0,"2021-11-19 12:56:23.696848","","","","","","",""
2.0,0.072575643658638,0.0002522948705375337,"train",3120.0,"2021-11-19 12:56:26.926223","","","","","","",""
2.0,0.08604784309864044,0.00025444119084336303,"train",3140.0,"2021-11-19 12:56:30.486480","","","","","","",""
2.0,0.08399631083011627,0.00025659946205232364,"train",3160.0,"2021-11-19 12:56:33.754482","","","","","","",""
2.0,0.09160704165697098,0.0002587696513300941,"train",3180.0,"2021-11-19 12:56:37.090074","","","","","","",""
2.0,0.08503899723291397,0.0002609517256610412,"train",3200.0,"2021-11-19 12:56:41.011257","","","","","","",""
2.0,0.050831329077482224,0.00026314565184872084,"train",3220.0,"2021-11-19 12:56:44.920615","","","","","","",""
2.0,"","","train",3222.0,"2021-11-19 12:58:28.075278",0.48002619515389655,0.3764380007205278,0.8784159972595847,0.44015599241091413,0.28049318241564625,0.2840865613628216,0.1856680435670522
2.0,"","","val",3222.0,"2021-11-19 12:58:57.162387",0.47634234025281225,0.3723895367914235,0.8751954828144685,0.43249073224215473,0.2780861388405196,0.280615474719306,0.18209812659399943
3.0,0.07900329679250717,0.0002653513965163838,"train",3240.0,"2021-11-19 12:59:04.706822","","","","","","",""
3.0,0.05729307606816292,0.0002675689261074836,"train",3260.0,"2021-11-19 12:59:08.626562","","","","","","",""
3.0,0.07079779356718063,0.00026979820688618605,"train",3280.0,"2021-11-19 12:59:12.231938","","","","","","",""
3.0,0.08057484775781631,0.00027203920493788433,"train",3300.0,"2021-11-19 12:59:15.832731","","","","","","",""
3.0,0.08395754545927048,0.00027429188616971277,"train",3320.0,"2021-11-19 12:59:19.755148","","","","","","",""
3.0,0.0867265984416008,0.0002765562163110668,"train",3340.0,"2021-11-19 12:59:23.378092","","","","","","",""
3.0,0.07052572816610336,0.00027883216091412503,"train",3360.0,"2021-11-19 12:59:27.059769","","","","","","",""
3.0,0.0891667902469635,0.0002811196853543707,"train",3380.0,"2021-11-19 12:59:31.021470","","","","","","",""
3.0,0.07286453247070312,0.00028341875483112134,"train",3400.0,"2021-11-19 12:59:34.754442","","","","","","",""
3.0,0.08453108370304108,0.00028572933436805644,"train",3420.0,"2021-11-19 12:59:38.392238","","","","","","",""
3.0,0.08921240270137787,0.0002880513888137504,"train",3440.0,"2021-11-19 12:59:42.311224","","","","","","",""
3.0,0.0570397675037384,0.0002903848828422063,"train",3460.0,"2021-11-19 12:59:45.937242","","","","","","",""
3.0,0.07150997221469879,0.00029272978095339465,"train",3480.0,"2021-11-19 12:59:49.535102","","","","","","",""
3.0,0.06278500705957413,0.00029508604747379243,"train",3500.0,"2021-11-19 12:59:53.408339","","","","","","",""
3.0,0.06799744069576263,0.00029745364655692653,"train",3520.0,"2021-11-19 12:59:56.978216","","","","","","",""
3.0,0.07035060226917267,0.0002998325421839181,"train",3540.0,"2021-11-19 13:00:00.582964","","","","","","",""
3.0,0.07743995636701584,0.0003022226981640318,"train",3560.0,"2021-11-19 13:00:04.523997","","","","","","",""
3.0,0.05910976231098175,0.00030462407813522494,"train",3580.0,"2021-11-19 13:00:07.989849","","","","","","",""
3.0,0.07675358653068542,0.0003070366455647027,"train",3600.0,"2021-11-19 13:00:11.481908","","","","","","",""
3.0,0.053648676723241806,0.000309460363749471,"train",3620.0,"2021-11-19 13:00:15.331309","","","","","","",""
3.0,0.06588249653577805,0.0003118951958168978,"train",3640.0,"2021-11-19 13:00:18.812290","","","","","","",""
3.0,0.07447250187397003,0.0003143411047252722,"train",3660.0,"2021-11-19 13:00:22.305334","","","","","","",""
3.0,0.07212715595960617,0.0003167980532643691,"train",3680.0,"2021-11-19 13:00:26.141871","","","","","","",""
3.0,0.07386712729930878,0.0003192660040560141,"train",3700.0,"2021-11-19 13:00:29.643119","","","","","","",""
3.0,0.09230969846248627,0.0003217449195546528,"train",3720.0,"2021-11-19 13:00:33.172131","","","","","","",""
3.0,0.09519091248512268,0.00032423476204792244,"train",3740.0,"2021-11-19 13:00:36.931175","","","","","","",""
3.0,0.10150579363107681,0.0003267354936572248,"train",3760.0,"2021-11-19 13:00:40.370335","","","","","","",""
3.0,0.06422479450702667,0.0003292470763383026,"train",3780.0,"2021-11-19 13:00:43.967344","","","","","","",""
3.0,0.05881059914827347,0.0003317694718818192,"train",3800.0,"2021-11-19 13:00:47.845074","","","","","","",""
3.0,0.08521012216806412,0.00033430264191393853,"train",3820.0,"2021-11-19 13:00:51.370559","","","","","","",""
3.0,0.08476129919290543,0.0003368465478969097,"train",3840.0,"2021-11-19 13:00:54.783997","","","","","","",""
3.0,0.06397559493780136,0.0003394011511296533,"train",3860.0,"2021-11-19 13:00:58.473295","","","","","","",""
3.0,0.08782362192869186,0.0003419664127483496,"train",3880.0,"2021-11-19 13:01:01.898739","","","","","","",""
3.0,0.057858653366565704,0.00034454229372703074,"train",3900.0,"2021-11-19 13:01:05.296899","","","","","","",""
3.0,0.09983910620212555,0.00034712875487817314,"train",3920.0,"2021-11-19 13:01:09.066071","","","","","","",""
3.0,0.06598999351263046,0.00034972575685329526,"train",3940.0,"2021-11-19 13:01:12.471504","","","","","","",""
3.0,0.06952134519815445,0.0003523332601435541,"train",3960.0,"2021-11-19 13:01:15.854020","","","","","","",""
3.0,0.06774500012397766,0.00035495122508034916,"train",3980.0,"2021-11-19 13:01:19.618995","","","","","","",""
3.0,0.07195873558521271,0.0003575796118359231,"train",4000.0,"2021-11-19 13:01:23.079731","","","","","","",""
3.0,0.08548826724290848,0.00036021838042396906,"train",4020.0,"2021-11-19 13:01:26.488918","","","","","","",""
3.0,0.0780116468667984,0.0003628674907002389,"train",4040.0,"2021-11-19 13:01:30.310756","","","","","","",""
3.0,0.05975748598575592,0.00036552690236315395,"train",4060.0,"2021-11-19 13:01:33.737157","","","","","","",""
3.0,0.07133041322231293,0.00036819657495441773,"train",4080.0,"2021-11-19 13:01:37.149563","","","","","","",""
3.0,0.07349690049886703,0.0003708764678596317,"train",4100.0,"2021-11-19 13:01:40.911436","","","","","","",""
3.0,0.0732857957482338,0.00037356654030891293,"train",4120.0,"2021-11-19 13:01:44.381780","","","","","","",""
3.0,0.08478984236717224,0.0003762667513775148,"train",4140.0,"2021-11-19 13:01:47.974395","","","","","","",""
3.0,0.07524159550666809,0.0003789770599864498,"train",4160.0,"2021-11-19 13:01:51.781631","","","","","","",""
3.0,0.07207251340150833,0.000381697424903113,"train",4180.0,"2021-11-19 13:01:55.227641","","","","","","",""
3.0,0.07777751982212067,0.0003844278047419108,"train",4200.0,"2021-11-19 13:01:58.720997","","","","","","",""
3.0,0.06321140378713608,0.0003871681579648903,"train",4220.0,"2021-11-19 13:02:02.515752","","","","","","",""
3.0,0.0611225888133049,0.0003899184428823709,"train",4240.0,"2021-11-19 13:02:06.039160","","","","","","",""
3.0,0.060492802411317825,0.0003926786176535783,"train",4260.0,"2021-11-19 13:02:09.609510","","","","","","",""
3.0,0.05858537554740906,0.0003954486402872818,"train",4280.0,"2021-11-19 13:02:13.398059","","","","","","",""
3.0,"","","train",4296.0,"2021-11-19 13:03:57.307044",0.5023502874190497,0.42475596234385826,0.8911302124083212,0.4715591364691023,0.3098344393007925,0.31574042213333553,0.211085801923924
3.0,"","","val",4296.0,"2021-11-19 13:04:26.108102",0.4928679113997449,0.4123586262625863,0.8859812978118045,0.4585431012130038,0.3009077383153506,0.3062452027724364,0.2024402503361077
4.0,0.07431354373693466,0.0003982284686424324,"train",4300.0,"2021-11-19 13:04:31.148726","","","","","","",""
4.0,0.047780029475688934,0.0004010180604288045,"train",4320.0,"2021-11-19 13:04:34.810582","","","","","","",""
4.0,0.07365672290325165,0.00040381737320763873,"train",4340.0,"2021-11-19 13:04:38.738919","","","","","","",""
4.0,0.09322058409452438,0.0004066263643922878,"train",4360.0,"2021-11-19 13:04:42.289189","","","","","","",""
4.0,0.08513551205396652,0.0004094449912488646,"train",4380.0,"2021-11-19 13:04:45.806824","","","","","","",""
4.0,0.07027141004800797,0.0004122732108968923,"train",4400.0,"2021-11-19 13:04:49.651383","","","","","","",""
4.0,0.062468431890010834,0.0004151109803099558,"train",4420.0,"2021-11-19 13:04:53.202699","","","","","","",""
4.0,0.06564883142709732,0.00041795825631635764,"train",4440.0,"2021-11-19 13:04:56.657601","","","","","","",""
4.0,0.08560949563980103,0.0004208149955997739,"train",4460.0,"2021-11-19 13:05:00.521559","","","","","","",""
4.0,0.07299474626779556,0.0004236811546999141,"train",4480.0,"2021-11-19 13:05:04.142568","","","","","","",""
4.0,0.083092600107193,0.0004265566900131805,"train",4500.0,"2021-11-19 13:05:07.861220","","","","","","",""
4.0,0.08750554919242859,0.0004294415577933337,"train",4520.0,"2021-11-19 13:05:11.750028","","","","","","",""
4.0,0.07362188398838043,0.00043233571415215717,"train",4540.0,"2021-11-19 13:05:15.254507","","","","","","",""
4.0,0.07466732710599899,0.0004352391150601242,"train",4560.0,"2021-11-19 13:05:18.851730","","","","","","",""
4.0,0.054106660187244415,0.0004381517163470684,"train",4580.0,"2021-11-19 13:05:22.791962","","","","","","",""
4.0,0.0628989115357399,0.00044107347370285683,"train",4600.0,"2021-11-19 13:05:26.433521","","","","","","",""
4.0,0.07373581826686859,0.00044400434267806194,"train",4620.0,"2021-11-19 13:05:29.908885","","","","","","",""
4.0,0.048846110701560974,0.00044694427868463907,"train",4640.0,"2021-11-19 13:05:33.654746","","","","","","",""
4.0,0.07554729282855988,0.00044989323699660467,"train",4660.0,"2021-11-19 13:05:37.160631","","","","","","",""
4.0,0.07121556997299194,0.0004528511727507165,"train",4680.0,"2021-11-19 13:05:40.746146","","","","","","",""
4.0,0.06007622927427292,0.00045581804094715645,"train",4700.0,"2021-11-19 13:05:44.592944","","","","","","",""
4.0,0.061024848371744156,0.00045879379645021425,"train",4720.0,"2021-11-19 13:05:48.188574","","","","","","",""
4.0,0.05961721017956734,0.0004617783939889759,"train",4740.0,"2021-11-19 13:05:51.735635","","","","","","",""
4.0,0.06175653636455536,0.0004647717881580103,"train",4760.0,"2021-11-19 13:05:55.545456","","","","","","",""
4.0,0.06075473874807358,0.0004677739334180617,"train",4780.0,"2021-11-19 13:05:59.153235","","","","","","",""
4.0,0.06622960418462753,0.00047078478409674144,"train",4800.0,"2021-11-19 13:06:02.730783","","","","","","",""
4.0,0.0648011565208435,0.00047380429438922305,"train",4820.0,"2021-11-19 13:06:06.633892","","","","","","",""
4.0,0.06225604563951492,0.00047683241835893946,"train",4840.0,"2021-11-19 13:06:10.244649","","","","","","",""
4.0,0.08696532249450684,0.0004798691099382815,"train",4860.0,"2021-11-19 13:06:13.759803","","","","","","",""
4.0,0.10492778569459915,0.0004829143229292986,"train",4880.0,"2021-11-19 13:06:17.538027","","","","","","",""
4.0,0.055664412677288055,0.0004859680110044023,"train",4900.0,"2021-11-19 13:06:21.041171","","","","","","",""
4.0,0.08801579475402832,0.0004890301277070699,"train",4920.0,"2021-11-19 13:06:24.588263","","","","","","",""
4.0,0.06162920594215393,0.0004921006264525525,"train",4940.0,"2021-11-19 13:06:28.595229","","","","","","",""
4.0,0.07136432081460953,0.0004951794605285824,"train",4960.0,"2021-11-19 13:06:32.140575","","","","","","",""
4.0,0.06388349831104279,0.0004982665830960853,"train",4980.0,"2021-11-19 13:06:35.705329","","","","","","",""
4.0,0.06915393471717834,0.0005013619471898913,"train",5000.0,"2021-11-19 13:06:39.685011","","","","","","",""
4.0,0.055319759994745255,0.0005044655057194504,"train",5020.0,"2021-11-19 13:06:43.266214","","","","","","",""
4.0,0.062330927699804306,0.0005075772114695486,"train",5040.0,"2021-11-19 13:06:46.706005","","","","","","",""
4.0,0.07617729902267456,0.0005106970171010257,"train",5060.0,"2021-11-19 13:06:50.566931","","","","","","",""
4.0,0.04989901930093765,0.0005138248751514966,"train",5080.0,"2021-11-19 13:06:54.088796","","","","","","",""
4.0,0.06975256651639938,0.0005169607380360731,"train",5100.0,"2021-11-19 13:06:57.572081","","","","","","",""
4.0,0.06650856137275696,0.000520104558048086,"train",5120.0,"2021-11-19 13:07:01.412433","","","","","","",""
4.0,0.07842651009559631,0.0005232562873598136,"train",5140.0,"2021-11-19 13:07:04.850502","","","","","","",""
4.0,0.06000034883618355,0.0005264158780232072,"train",5160.0,"2021-11-19 13:07:08.268738","","","","","","",""
4.0,0.07350502908229828,0.0005295832819706228,"train",5180.0,"2021-11-19 13:07:12.126442","","","","","","",""
4.0,0.082793228328228,0.0005327584510155488,"train",5200.0,"2021-11-19 13:07:15.714882","","","","","","",""
4.0,0.08153384178876877,0.000535941336853343,"train",5220.0,"2021-11-19 13:07:19.396417","","","","","","",""
4.0,0.0989208072423935,0.0005391318910619655,"train",5240.0,"2021-11-19 13:07:23.334260","","","","","","",""
4.0,0.06649323552846909,0.0005423300651027144,"train",5260.0,"2021-11-19 13:07:26.943013","","","","","","",""
4.0,0.05175929144024849,0.0005455358103209663,"train",5280.0,"2021-11-19 13:07:30.485310","","","","","","",""
4.0,0.05635429173707962,0.0005487490779469157,"train",5300.0,"2021-11-19 13:07:34.288651","","","","","","",""
4.0,0.061389632523059845,0.000551969819096316,"train",5320.0,"2021-11-19 13:07:37.858906","","","","","","",""
4.0,0.0508953295648098,0.0005551979847712252,"train",5340.0,"2021-11-19 13:07:41.342506","","","","","","",""
4.0,0.05451441556215286,0.0005584335258607489,"train",5360.0,"2021-11-19 13:07:44.983260","","","","","","",""
4.0,"","","train",5370.0,"2021-11-19 13:09:27.334548",0.5281961725969585,0.4638304857215842,0.9093334108123288,0.5037151365070572,0.3479843836166668,0.3546600070339181,0.239080601409031
4.0,"","","val",5370.0,"2021-11-19 13:09:56.387048",0.5205264988982953,0.445006111500993,0.9010406148798098,0.4901232650228925,0.33968366282684354,0.34470277328359306,0.23062966468664195
5.0,0.07549954950809479,0.0005616763931417894,"train",5380.0,"2021-11-19 13:10:02.624843","","","","","","",""
5.0,0.06556400656700134,0.0005649265372797939,"train",5400.0,"2021-11-19 13:10:06.087746","","","","","","",""
5.0,0.06801749765872955,0.0005681839088295046,"train",5420.0,"2021-11-19 13:10:10.086543","","","","","","",""
5.0,0.07598904520273209,0.0005714484582357109,"train",5440.0,"2021-11-19 13:10:13.591937","","","","","","",""
5.0,0.05609451234340668,0.0005747201358340048,"train",5460.0,"2021-11-19 13:10:17.148506","","","","","","",""
5.0,0.07131340354681015,0.0005779988918515344,"train",5480.0,"2021-11-19 13:10:21.026966","","","","","","",""
5.0,0.06528190523386002,0.0005812846764077623,"train",5500.0,"2021-11-19 13:10:24.621365","","","","","","",""
5.0,0.046829234808683395,0.0005845774395152243,"train",5520.0,"2021-11-19 13:10:28.294472","","","","","","",""
5.0,0.08269739151000977,0.0005878771310802895,"train",5540.0,"2021-11-19 13:10:32.165978","","","","","","",""
5.0,0.05432086065411568,0.0005911837009039229,"train",5560.0,"2021-11-19 13:10:35.757324","","","","","","",""
5.0,0.08572609722614288,0.0005944970986824485,"train",5580.0,"2021-11-19 13:10:39.365243","","","","","","",""
5.0,0.06462230533361435,0.000597817274008315,"train",5600.0,"2021-11-19 13:10:43.283999","","","","","","",""
5.0,0.07825726270675659,0.0006011441763708635,"train",5620.0,"2021-11-19 13:10:46.913247","","","","","","",""
5.0,0.06685300916433334,0.0006044777551570929,"train",5640.0,"2021-11-19 13:10:50.478471","","","","","","",""
5.0,0.046268805861473083,0.000607817959652434,"train",5660.0,"2021-11-19 13:10:54.271046","","","","","","",""
5.0,0.05419382080435753,0.0006111647390415189,"train",5680.0,"2021-11-19 13:10:57.791018","","","","","","",""
5.0,0.06530221551656723,0.0006145180424089525,"train",5700.0,"2021-11-19 13:11:01.239986","","","","","","",""
5.0,0.05751046910881996,0.0006178778187400902,"train",5720.0,"2021-11-19 13:11:05.029269","","","","","","",""
5.0,0.0529605932533741,0.0006212440169218129,"train",5740.0,"2021-11-19 13:11:08.472164","","","","","","",""
5.0,0.04419269040226936,0.0006246165857433027,"train",5760.0,"2021-11-19 13:11:11.958766","","","","","","",""
5.0,0.06898057460784912,0.0006279954738968251,"train",5780.0,"2021-11-19 13:11:15.820153","","","","","","",""
5.0,0.06719838082790375,0.0006313806299785075,"train",5800.0,"2021-11-19 13:11:19.394554","","","","","","",""
5.0,0.07594605535268784,0.0006347720024891209,"train",5820.0,"2021-11-19 13:11:23.035469","","","","","","",""
5.0,0.07562822103500366,0.0006381695398348657,"train",5840.0,"2021-11-19 13:11:26.996742","","","","","","",""
5.0,0.06048654019832611,0.0006415731903281542,"train",5860.0,"2021-11-19 13:11:30.622343","","","","","","",""
5.0,0.06897202879190445,0.0006449829021883979,"train",5880.0,"2021-11-19 13:11:34.202419","","","","","","",""
5.0,0.0552351139485836,0.0006483986235427956,"train",5900.0,"2021-11-19 13:11:38.193422","","","","","","",""
5.0,0.03824235498905182,0.0006518203024271213,"train",5920.0,"2021-11-19 13:11:41.780664","","","","","","",""
5.0,0.06752428412437439,0.0006552478867865169,"train",5940.0,"2021-11-19 13:11:45.356089","","","","","","",""
5.0,0.08109153807163239,0.0006586813244762815,"train",5960.0,"2021-11-19 13:11:49.214375","","","","","","",""
5.0,0.060259245336055756,0.0006621205632626672,"train",5980.0,"2021-11-19 13:11:52.717106","","","","","","",""
5.0,0.0675402581691742,0.0006655655508236717,"train",6000.0,"2021-11-19 13:11:56.353638","","","","","","",""
5.0,0.0763007327914238,0.0006690162347498356,"train",6020.0,"2021-11-19 13:12:00.237991","","","","","","",""
5.0,0.0850229486823082,0.0006724725625450389,"train",6040.0,"2021-11-19 13:12:03.887566","","","","","","",""
5.0,0.0859653651714325,0.0006759344816273003,"train",6060.0,"2021-11-19 13:12:07.442624","","","","","","",""
5.0,0.052515894174575806,0.0006794019393295771,"train",6080.0,"2021-11-19 13:12:11.405269","","","","","","",""
5.0,0.06898247450590134,0.0006828748829005654,"train",6100.0,"2021-11-19 13:12:14.904537","","","","","","",""
5.0,0.06291913986206055,0.0006863532595055041,"train",6120.0,"2021-11-19 13:12:18.355527","","","","","","",""
5.0,0.04657018184661865,0.0006898370162269777,"train",6140.0,"2021-11-19 13:12:22.139037","","","","","","",""
5.0,0.06595058739185333,0.0006933261000657217,"train",6160.0,"2021-11-19 13:12:25.571305","","","","","","",""
5.0,0.07707201689481735,0.000696820457941429,"train",6180.0,"2021-11-19 13:12:29.218671","","","","","","",""
5.0,0.10796108841896057,0.000700320036693557,"train",6200.0,"2021-11-19 13:12:33.157694","","","","","","",""
5.0,0.0693994089961052,0.0007038247830821358,"train",6220.0,"2021-11-19 13:12:36.769432","","","","","","",""
5.0,0.07107487320899963,0.0007073346437885815,"train",6240.0,"2021-11-19 13:12:40.301978","","","","","","",""
5.0,0.055706772953271866,0.000710849565416502,"train",6260.0,"2021-11-19 13:12:44.133903","","","","","","",""
5.0,0.10099715739488602,0.0007143694944925134,"train",6280.0,"2021-11-19 13:12:47.694341","","","","","","",""
5.0,0.05693669617176056,0.0007178943774670524,"train",6300.0,"2021-11-19 13:12:51.171384","","","","","","",""
5.0,0.08558057993650436,0.0007214241607151901,"train",6320.0,"2021-11-19 13:12:54.969697","","","","","","",""
5.0,0.0659225732088089,0.000724958790537449,"train",6340.0,"2021-11-19 13:12:58.547959","","","","","","",""
5.0,0.057169098407030106,0.0007284982131606195,"train",6360.0,"2021-11-19 13:13:02.069448","","","","","","",""
5.0,0.06131961941719055,0.0007320423747385781,"train",6380.0,"2021-11-19 13:13:05.912673","","","","","","",""
5.0,0.060840729624032974,0.0007355912213531054,"train",6400.0,"2021-11-19 13:13:09.455180","","","","","","",""
5.0,0.055234674364328384,0.000739144699014708,"train",6420.0,"2021-11-19 13:13:13.000011","","","","","","",""
5.0,0.06328562647104263,0.0007427027536634401,"train",6440.0,"2021-11-19 13:13:16.875863","","","","","","",""
5.0,"","","train",6444.0,"2021-11-19 13:14:58.532029",0.5443789565597031,0.49224310969078555,0.9178583872233297,0.5342550587446979,0.37226014216812575,0.38052882430265444,0.2546159627647446
5.0,"","","val",6444.0,"2021-11-19 13:15:28.202945",0.5363562565232518,0.46888319605893414,0.9088421831678549,0.5198475750310546,0.3624567321863166,0.36811581537662763,0.24480408003519444
6.0,0.05709452927112579,0.0007462653311697235,"train",6460.0,"2021-11-19 13:15:35.491027","","","","","","",""
6.0,0.05342346057295799,0.0007498323773351733,"train",6480.0,"2021-11-19 13:15:39.079597","","","","","","",""
6.0,0.04753302037715912,0.0007534038378934223,"train",6500.0,"2021-11-19 13:15:43.010477","","","","","","",""
6.0,0.07578015327453613,0.0007569796585109453,"train",6520.0,"2021-11-19 13:15:46.524486","","","","","","",""
6.0,0.09743987023830414,0.0007605597847878862,"train",6540.0,"2021-11-19 13:15:50.040677","","","","","","",""
6.0,0.06889001280069351,0.0007641441622588871,"train",6560.0,"2021-11-19 13:15:53.855698","","","","","","",""
6.0,0.057720378041267395,0.0007677327363939143,"train",6580.0,"2021-11-19 13:15:57.299586","","","","","","",""
6.0,0.07843110710382462,0.0007713254525990895,"train",6600.0,"2021-11-19 13:16:00.803809","","","","","","",""
6.0,0.05418450012803078,0.0007749222562175211,"train",6620.0,"2021-11-19 13:16:04.543892","","","","","","",""
6.0,0.03870198503136635,0.000778523092530133,"train",6640.0,"2021-11-19 13:16:08.045853","","","","","","",""
6.0,0.11248645931482315,0.0007821279067564996,"train",6660.0,"2021-11-19 13:16:11.515886","","","","","","",""
6.0,0.07827379554510117,0.0007857366440556786,"train",6680.0,"2021-11-19 13:16:15.306937","","","","","","",""
6.0,0.07202574610710144,0.0007893492495270442,"train",6700.0,"2021-11-19 13:16:18.914699","","","","","","",""
6.0,0.07932630181312561,0.0007929656682111239,"train",6720.0,"2021-11-19 13:16:22.537724","","","","","","",""
6.0,0.051348596811294556,0.0007965858450904332,"train",6740.0,"2021-11-19 13:16:26.585343","","","","","","",""
6.0,0.07676097005605698,0.000800209725090314,"train",6760.0,"2021-11-19 13:16:30.221696","","","","","","",""
6.0,0.056074630469083786,0.0008038372530797706,"train",6780.0,"2021-11-19 13:16:33.854502","","","","","","",""
6.0,0.054075077176094055,0.0008074683738723109,"train",6800.0,"2021-11-19 13:16:37.772994","","","","","","",""
6.0,0.06502804905176163,0.0008111030322267832,"train",6820.0,"2021-11-19 13:16:41.145399","","","","","","",""
6.0,0.07586845010519028,0.0008147411728482187,"train",6840.0,"2021-11-19 13:16:44.440898","","","","","","",""
6.0,0.0828486829996109,0.0008183827403886721,"train",6860.0,"2021-11-19 13:16:48.146345","","","","","","",""
6.0,0.06108485907316208,0.0008220276794480633,"train",6880.0,"2021-11-19 13:16:51.445830","","","","","","",""
6.0,0.06715390831232071,0.0008256759345750203,"train",6900.0,"2021-11-19 13:16:54.788496","","","","","","",""
6.0,0.05409543961286545,0.0008293274502677234,"train",6920.0,"2021-11-19 13:16:58.521580","","","","","","",""
6.0,0.0785234346985817,0.0008329821709747486,"train",6940.0,"2021-11-19 13:17:02.003253","","","","","","",""
6.0,0.043599698692560196,0.0008366400410959136,"train",6960.0,"2021-11-19 13:17:05.589924","","","","","","",""
6.0,0.06428331136703491,0.000840301004983123,"train",6980.0,"2021-11-19 13:17:09.508228","","","","","","",""
6.0,0.08585499227046967,0.0008439650069412147,"train",7000.0,"2021-11-19 13:17:12.997679","","","","","","",""
6.0,0.04299938678741455,0.0008476319912288095,"train",7020.0,"2021-11-19 13:17:16.530440","","","","","","",""
6.0,0.07378441095352173,0.0008513019020591544,"train",7040.0,"2021-11-19 13:17:20.339846","","","","","","",""
6.0,0.058634549379348755,0.0008549746836009771,"train",7060.0,"2021-11-19 13:17:23.862188","","","","","","",""
6.0,0.06848915666341782,0.0008586502799793306,"train",7080.0,"2021-11-19 13:17:27.299732","","","","","","",""
6.0,0.04632498696446419,0.0008623286352764453,"train",7100.0,"2021-11-19 13:17:31.084882","","","","","","",""
6.0,0.07972434908151627,0.0008660096935325802,"train",7120.0,"2021-11-19 13:17:34.638551","","","","","","",""
6.0,0.053182248026132584,0.0008696933987468731,"train",7140.0,"2021-11-19 13:17:38.239355","","","","","","",""
6.0,0.0511532761156559,0.0008733796948781924,"train",7160.0,"2021-11-19 13:17:42.044210","","","","","","",""
6.0,0.041459109634160995,0.0008770685258459915,"train",7180.0,"2021-11-19 13:17:45.485329","","","","","","",""
6.0,0.08706887066364288,0.0008807598355311595,"train",7200.0,"2021-11-19 13:17:48.953895","","","","","","",""
6.0,0.09514306485652924,0.0008844535677768764,"train",7220.0,"2021-11-19 13:17:52.845817","","","","","","",""
6.0,0.05333339795470238,0.0008881496663894681,"train",7240.0,"2021-11-19 13:17:56.385819","","","","","","",""
6.0,0.07371010631322861,0.0008918480751392592,"train",7260.0,"2021-11-19 13:17:59.870709","","","","","","",""
6.0,0.06065167114138603,0.00089554873776143,"train",7280.0,"2021-11-19 13:18:03.606561","","","","","","",""
6.0,0.0867346003651619,0.0008992515979568724,"train",7300.0,"2021-11-19 13:18:07.062387","","","","","","",""
6.0,0.09549526125192642,0.0009029565993930457,"train",7320.0,"2021-11-19 13:18:10.557381","","","","","","",""
6.0,0.057981204241514206,0.0009066636857048339,"train",7340.0,"2021-11-19 13:18:14.412384","","","","","","",""
6.0,0.05662104859948158,0.0009103728004954039,"train",7360.0,"2021-11-19 13:18:17.960105","","","","","","",""
6.0,0.06099720299243927,0.0009140838873370617,"train",7380.0,"2021-11-19 13:18:21.390946","","","","","","",""
6.0,0.05177640542387962,0.0009177968897721136,"train",7400.0,"2021-11-19 13:18:25.189019","","","","","","",""
6.0,0.05578143894672394,0.0009215117513137218,"train",7420.0,"2021-11-19 13:18:28.672805","","","","","","",""
6.0,0.07241848111152649,0.0009252284154467663,"train",7440.0,"2021-11-19 13:18:32.146417","","","","","","",""
6.0,0.05274176970124245,0.0009289468256287042,"train",7460.0,"2021-11-19 13:18:35.940933","","","","","","",""
6.0,0.04507474973797798,0.0009326669252904287,"train",7480.0,"2021-11-19 13:18:39.428209","","","","","","",""
6.0,0.06115897744894028,0.0009363886578371307,"train",7500.0,"2021-11-19 13:18:42.954927","","","","","","",""
6.0,"","","train",7518.0,"2021-11-19 13:20:27.653412",0.565960852797788,0.52232789090449,0.9282313470273896,0.5644139771230117,0.4242474124109958,0.43211364183646417,0.28796907583390235
6.0,"","","val",7518.0,"2021-11-19 13:20:57.069131",0.5532297344311724,0.4972922275816355,0.9174364460469036,0.5458396777140788,0.4103426393968665,0.4162780131714226,0.2748548275175759
7.0,0.07256969064474106,0.0009401119666491604,"train",7520.0,"2021-11-19 13:21:01.727166","","","","","","",""
7.0,0.06287290155887604,0.0009438367950828869,"train",7540.0,"2021-11-19 13:21:05.621580","","","","","","",""
7.0,0.0903964713215828,0.000947563086471561,"train",7560.0,"2021-11-19 13:21:09.321104","","","","","","",""
7.0,0.07807232439517975,0.0009512907841261783,"train",7580.0,"2021-11-19 13:21:13.536069","","","","","","",""
7.0,0.05841103196144104,0.0009550198313363391,"train",7600.0,"2021-11-19 13:21:17.239896","","","","","","",""
7.0,0.061346761882305145,0.0009587501713711128,"train",7620.0,"2021-11-19 13:21:20.899336","","","","","","",""
7.0,0.05491132289171219,0.0009624817474799023,"train",7640.0,"2021-11-19 13:21:24.802743","","","","","","",""
7.0,0.06266646087169647,0.0009662145028933038,"train",7660.0,"2021-11-19 13:21:28.400596","","","","","","",""
7.0,0.05284244567155838,0.0009699483808239733,"train",7680.0,"2021-11-19 13:21:32.090553","","","","","","",""
7.0,0.06328324973583221,0.0009736833244674895,"train",7700.0,"2021-11-19 13:21:36.165427","","","","","","",""
7.0,0.08797110617160797,0.0009774192770032192,"train",7720.0,"2021-11-19 13:21:39.761074","","","","","","",""
7.0,0.04971100389957428,0.0009811561815951785,"train",7740.0,"2021-11-19 13:21:43.426618","","","","","","",""
7.0,0.05314048007130623,0.0009848939813929015,"train",7760.0,"2021-11-19 13:21:47.339033","","","","","","",""
7.0,0.05074629932641983,0.0009886326195323026,"train",7780.0,"2021-11-19 13:21:50.827164","","","","","","",""
7.0,0.059406258165836334,0.0009923720391365428,"train",7800.0,"2021-11-19 13:21:54.382174","","","","","","",""
7.0,0.05623877793550491,0.000996112183316893,"train",7820.0,"2021-11-19 13:21:58.186098","","","","","","",""
7.0,0.06460406631231308,0.0009998529951736029,"train",7840.0,"2021-11-19 13:22:01.730746","","","","","","",""
7.0,0.08095031976699829,0.0010035944177967638,"train",7860.0,"2021-11-19 13:22:05.358762","","","","","","",""
7.0,0.04951746389269829,0.0010073363942671744,"train",7880.0,"2021-11-19 13:22:09.263538","","","","","","",""
7.0,0.0516246072947979,0.0010110788676572094,"train",7900.0,"2021-11-19 13:22:12.907685","","","","","","",""
7.0,0.05904719606041908,0.0010148217810316822,"train",7920.0,"2021-11-19 13:22:16.575589","","","","","","",""
7.0,0.0824020653963089,0.0010185650774487127,"train",7940.0,"2021-11-19 13:22:20.470048","","","","","","",""
7.0,0.04779861867427826,0.0010223086999605951,"train",7960.0,"2021-11-19 13:22:24.057468","","","","","","",""
7.0,0.07159102708101273,0.0010260525916146609,"train",7980.0,"2021-11-19 13:22:27.647833","","","","","","",""
7.0,0.05629870295524597,0.0010297966954541469,"train",8000.0,"2021-11-19 13:22:31.516413","","","","","","",""
7.0,0.04747216776013374,0.001033540954519064,"train",8020.0,"2021-11-19 13:22:35.101627","","","","","","",""
7.0,0.07802541553974152,0.0010372853118470592,"train",8040.0,"2021-11-19 13:22:38.686526","","","","","","",""
7.0,0.06815735995769501,0.0010410297104742857,"train",8060.0,"2021-11-19 13:22:42.581957","","","","","","",""
7.0,0.044276293367147446,0.0010447740934362692,"train",8080.0,"2021-11-19 13:22:46.198494","","","","","","",""
7.0,0.054158445447683334,0.0010485184037687715,"train",8100.0,"2021-11-19 13:22:49.794391","","","","","","",""
7.0,0.05017222464084625,0.0010522625845086615,"train",8120.0,"2021-11-19 13:22:53.668850","","","","","","",""
7.0,0.08780143409967422,0.0010560065786947796,"train",8140.0,"2021-11-19 13:22:57.236165","","","","","","",""
7.0,0.05381956696510315,0.0010597503293688013,"train",8160.0,"2021-11-19 13:23:00.810297","","","","","","",""
7.0,0.053804852068424225,0.001063493779576111,"train",8180.0,"2021-11-19 13:23:04.748767","","","","","","",""
7.0,0.052680887281894684,0.0010672368723666614,"train",8200.0,"2021-11-19 13:23:08.248144","","","","","","",""
7.0,0.06072766333818436,0.0010709795507958426,"train",8220.0,"2021-11-19 13:23:11.716466","","","","","","",""
7.0,0.07719472795724869,0.0010747217579253504,"train",8240.0,"2021-11-19 13:23:15.465130","","","","","","",""
7.0,0.06974221765995026,0.0010784634368240487,"train",8260.0,"2021-11-19 13:23:19.004832","","","","","","",""
7.0,0.049188144505023956,0.0010822045305688382,"train",8280.0,"2021-11-19 13:23:22.558255","","","","","","",""
7.0,0.0744500458240509,0.0010859449822455227,"train",8300.0,"2021-11-19 13:23:26.416129","","","","","","",""
7.0,0.05653519928455353,0.001089684734949672,"train",8320.0,"2021-11-19 13:23:30.089871","","","","","","",""
7.0,0.07058471441268921,0.00109342373178749,"train",8340.0,"2021-11-19 13:23:33.640274","","","","","","",""
7.0,0.05164721608161926,0.0010971619158766821,"train",8360.0,"2021-11-19 13:23:37.406512","","","","","","",""
7.0,0.05042461305856705,0.0011008992303473152,"train",8380.0,"2021-11-19 13:23:40.945358","","","","","","",""
7.0,0.05234965682029724,0.001104635618342687,"train",8400.0,"2021-11-19 13:23:44.556296","","","","","","",""
7.0,0.06643301248550415,0.001108371023020191,"train",8420.0,"2021-11-19 13:23:48.396220","","","","","","",""
7.0,0.055361922830343246,0.0011121053875521787,"train",8440.0,"2021-11-19 13:23:51.861543","","","","","","",""
7.0,0.04485670104622841,0.0011158386551268257,"train",8460.0,"2021-11-19 13:23:55.316717","","","","","","",""
7.0,0.04953889548778534,0.0011195707689489972,"train",8480.0,"2021-11-19 13:23:59.055341","","","","","","",""
7.0,0.04460384324193001,0.0011233016722411097,"train",8500.0,"2021-11-19 13:24:02.519749","","","","","","",""
7.0,0.07822147011756897,0.0011270313082439951,"train",8520.0,"2021-11-19 13:24:06.022741","","","","","","",""
7.0,0.06279100477695465,0.001130759620217767,"train",8540.0,"2021-11-19 13:24:09.838923","","","","","","",""
7.0,0.07247369736433029,0.0011344865514426794,"train",8560.0,"2021-11-19 13:24:13.149717","","","","","","",""
7.0,0.0724831223487854,0.0011382120452199938,"train",8580.0,"2021-11-19 13:24:16.685542","","","","","","",""
7.0,"","","train",8592.0,"2021-11-19 13:26:01.193229",0.5792185112420869,0.5528568254661758,0.9324967350473842,0.5761517187490787,0.425134868994526,0.444182650680017,0.29207311392194557
7.0,"","","val",8592.0,"2021-11-19 13:26:30.695026",0.5635509683404848,0.5197951158981661,0.9213265261124881,0.5533560980055471,0.40593038359281325,0.4226768677842267,0.2724434441505385
8.0,0.06034903600811958,0.001141936044872839,"train",8600.0,"2021-11-19 13:26:36.449249","","","","","","",""
8.0,0.07157450914382935,0.0011456584937470744,"train",8620.0,"2021-11-19 13:26:40.139368","","","","","","",""
8.0,0.05375893414020538,0.0011493793352121522,"train",8640.0,"2021-11-19 13:26:43.730959","","","","","","",""
8.0,0.06615964323282242,0.0011530985126619784,"train",8660.0,"2021-11-19 13:26:47.270870","","","","","","",""
8.0,0.06835781037807465,0.001156815969515773,"train",8680.0,"2021-11-19 13:26:51.227385","","","","","","",""
8.0,0.08001814037561417,0.001160531649218934,"train",8700.0,"2021-11-19 13:26:54.721551","","","","","","",""
8.0,0.0578223317861557,0.001164245495243894,"train",8720.0,"2021-11-19 13:26:58.216693","","","","","","",""
8.0,0.04847633093595505,0.0011679574510909817,"train",8740.0,"2021-11-19 13:27:02.087578","","","","","","",""
8.0,0.06894394010305405,0.0011716674602892828,"train",8760.0,"2021-11-19 13:27:05.497542","","","","","","",""
8.0,0.05505211651325226,0.0011753754663974968,"train",8780.0,"2021-11-19 13:27:09.010288","","","","","","",""
8.0,0.08843427151441574,0.0011790814130047968,"train",8800.0,"2021-11-19 13:27:12.798102","","","","","","",""
8.0,0.05611163005232811,0.001182785243731688,"train",8820.0,"2021-11-19 13:27:16.385556","","","","","","",""
8.0,0.05524173378944397,0.0011864869022308656,"train",8840.0,"2021-11-19 13:27:19.959737","","","","","","",""
8.0,0.06444016844034195,0.0011901863321880693,"train",8860.0,"2021-11-19 13:27:23.335165","","","","","","",""
8.0,0.05754294991493225,0.001193883477322945,"train",8880.0,"2021-11-19 13:27:27.180345","","","","","","",""
8.0,0.07100605219602585,0.0011975782813898961,"train",8900.0,"2021-11-19 13:27:30.713875","","","","","","",""
8.0,0.09146593511104584,0.0012012706881789417,"train",8920.0,"2021-11-19 13:27:34.263801","","","","","","",""
8.0,0.048827484250068665,0.001204960641516572,"train",8940.0,"2021-11-19 13:27:37.547122","","","","","","",""
8.0,0.053199246525764465,0.0012086480852666014,"train",8960.0,"2021-11-19 13:27:41.349687","","","","","","",""
8.0,0.061759598553180695,0.0012123329633310235,"train",8980.0,"2021-11-19 13:27:44.783714","","","","","","",""
8.0,0.0716722160577774,0.0012160152196508643,"train",9000.0,"2021-11-19 13:27:48.215102","","","","","","",""
8.0,0.053328987210989,0.0012196947982070355,"train",9020.0,"2021-11-19 13:27:51.992705","","","","","","",""
8.0,0.05333768576383591,0.0012233716430211856,"train",9040.0,"2021-11-19 13:27:55.477197","","","","","","",""
8.0,0.06306080520153046,0.001227045698156553,"train",9060.0,"2021-11-19 13:27:58.934094","","","","","","",""
8.0,0.053941354155540466,0.0012307169077188148,"train",9080.0,"2021-11-19 13:28:02.468470","","","","","","",""
8.0,0.03888484463095665,0.0012343852158569401,"train",9100.0,"2021-11-19 13:28:06.265468","","","","","","",""
8.0,0.04209640249609947,0.0012380505667640377,"train",9120.0,"2021-11-19 13:28:09.765411","","","","","","",""
8.0,0.05601351335644722,0.0012417129046782046,"train",9140.0,"2021-11-19 13:28:13.262020","","","","","","",""
8.0,0.04539942741394043,0.0012453721738833758,"train",9160.0,"2021-11-19 13:28:17.225089","","","","","","",""
8.0,0.062297970056533813,0.001249028318710172,"train",9180.0,"2021-11-19 13:28:20.814893","","","","","","",""
8.0,0.06690406799316406,0.0012526812835367447,"train",9200.0,"2021-11-19 13:28:24.321638","","","","","","",""
8.0,0.06890866905450821,0.0012563310127896242,"train",9220.0,"2021-11-19 13:28:27.769564","","","","","","",""
8.0,0.07238312065601349,0.0012599774509445645,"train",9240.0,"2021-11-19 13:28:31.547465","","","","","","",""
8.0,0.07778771221637726,0.0012636205425273874,"train",9260.0,"2021-11-19 13:28:35.063585","","","","","","",""
8.0,0.06150207296013832,0.0012672602321148268,"train",9280.0,"2021-11-19 13:28:38.516653","","","","","","",""
8.0,0.05431395396590233,0.0012708964643353732,"train",9300.0,"2021-11-19 13:28:41.982976","","","","","","",""
8.0,0.07595165073871613,0.001274529183870114,"train",9320.0,"2021-11-19 13:28:45.761251","","","","","","",""
8.0,0.03883763775229454,0.0012781583354535748,"train",9340.0,"2021-11-19 13:28:49.224744","","","","","","",""
8.0,0.08650311827659607,0.0012817838638745646,"train",9360.0,"2021-11-19 13:28:52.751138","","","","","","",""
8.0,0.06226444989442825,0.001285405713977009,"train",9380.0,"2021-11-19 13:28:56.549467","","","","","","",""
8.0,0.06482362747192383,0.0012890238306607947,"train",9400.0,"2021-11-19 13:29:00.001032","","","","","","",""
8.0,0.07030943036079407,0.001292638158882606,"train",9420.0,"2021-11-19 13:29:03.473514","","","","","","",""
8.0,0.09533955156803131,0.0012962486436567603,"train",9440.0,"2021-11-19 13:29:06.931026","","","","","","",""
8.0,0.05418480932712555,0.0012998552300560484,"train",9460.0,"2021-11-19 13:29:10.814142","","","","","","",""
8.0,0.05344889312982559,0.0013034578632125668,"train",9480.0,"2021-11-19 13:29:14.344541","","","","","","",""
8.0,0.05592894181609154,0.0013070564883185534,"train",9500.0,"2021-11-19 13:29:17.929588","","","","","","",""
8.0,0.0826776772737503,0.001310651050627223,"train",9520.0,"2021-11-19 13:29:21.738842","","","","","","",""
8.0,0.06151210889220238,0.001314241495453598,"train",9540.0,"2021-11-19 13:29:25.266594","","","","","","",""
8.0,0.05588264763355255,0.00131782776817534,"train",9560.0,"2021-11-19 13:29:28.789026","","","","","","",""
8.0,0.054620351642370224,0.0013214098142335837,"train",9580.0,"2021-11-19 13:29:32.325547","","","","","","",""
8.0,0.07199249416589737,0.001324987579133764,"train",9600.0,"2021-11-19 13:29:36.214072","","","","","","",""
8.0,0.07810631394386292,0.0013285610084464463,"train",9620.0,"2021-11-19 13:29:39.784591","","","","","","",""
8.0,0.07402206212282181,0.001332130047808155,"train",9640.0,"2021-11-19 13:29:43.279681","","","","","","",""
8.0,0.0445859357714653,0.001335694642922199,"train",9660.0,"2021-11-19 13:29:46.747878","","","","","","",""
8.0,"","","train",9666.0,"2021-11-19 13:31:28.008875",0.5911227534017318,0.5663281112553203,0.9400938380022789,0.5898962362529584,0.4544180789359485,0.46536654459816224,0.3119064663360407
8.0,"","","val",9666.0,"2021-11-19 13:31:56.466823",0.5674939116316827,0.5284250662882098,0.9298329084992353,0.5602889340094905,0.42730676246056354,0.4361980958579223,0.28625087308071423
9.0,0.05034952610731125,0.0013392547395594985,"train",9680.0,"2021-11-19 13:32:03.291380","","","","","","",""
9.0,0.05043918639421463,0.001342810283559412,"train",9700.0,"2021-11-19 13:32:06.971827","","","","","","",""
9.0,0.06855589896440506,0.0013463612208305564,"train",9720.0,"2021-11-19 13:32:10.748415","","","","","","",""
9.0,0.05181712657213211,0.0013499074973516321,"train",9740.0,"2021-11-19 13:32:14.816703","","","","","","",""
9.0,0.06727294623851776,0.0013534490591722464,"train",9760.0,"2021-11-19 13:32:18.205500","","","","","","",""
9.0,0.053262874484062195,0.0013569858524137305,"train",9780.0,"2021-11-19 13:32:21.522343","","","","","","",""
9.0,0.05924360826611519,0.001360517823269962,"train",9800.0,"2021-11-19 13:32:24.862009","","","","","","",""
9.0,0.0459645539522171,0.0013640449180081834,"train",9820.0,"2021-11-19 13:32:28.702210","","","","","","",""
9.0,0.046398647129535675,0.0013675670829698173,"train",9840.0,"2021-11-19 13:32:32.298018","","","","","","",""
9.0,0.04258127510547638,0.0013710842645712853,"train",9860.0,"2021-11-19 13:32:35.948800","","","","","","",""
9.0,0.0766322985291481,0.0013745964093048219,"train",9880.0,"2021-11-19 13:32:39.841347","","","","","","",""
9.0,0.03055706061422825,0.0013781034637392886,"train",9900.0,"2021-11-19 13:32:43.446453","","","","","","",""
9.0,0.0646989569067955,0.0013816053745209864,"train",9920.0,"2021-11-19 13:32:47.085592","","","","","","",""
9.0,0.049883391708135605,0.0013851020883744697,"train",9940.0,"2021-11-19 13:32:50.709234","","","","","","",""
9.0,0.060745883733034134,0.001388593552103353,"train",9960.0,"2021-11-19 13:32:54.615015","","","","","","",""
9.0,0.04892049729824066,0.0013920797125911233,"train",9980.0,"2021-11-19 13:32:58.312172","","","","","","",""
9.0,0.050930850207805634,0.001395560516801947,"train",10000.0,"2021-11-19 13:33:01.965500","","","","","","",""
9.0,0.061975110322237015,0.0013990359117814774,"train",10020.0,"2021-11-19 13:33:05.930261","","","","","","",""
9.0,0.05642352253198624,0.0014025058446576583,"train",10040.0,"2021-11-19 13:33:09.556861","","","","","","",""
9.0,0.04884275794029236,0.0014059702626415317,"train",10060.0,"2021-11-19 13:33:13.123165","","","","","","",""
9.0,0.06535911560058594,0.0014094291130280377,"train",10080.0,"2021-11-19 13:33:16.698830","","","","","","",""
9.0,0.044028010219335556,0.0014128823431968183,"train",10100.0,"2021-11-19 13:33:20.541763","","","","","","",""
9.0,0.05909763649106026,0.001416329900613017,"train",10120.0,"2021-11-19 13:33:24.075844","","","","","","",""
9.0,0.059808991849422455,0.0014197717328280782,"train",10140.0,"2021-11-19 13:33:27.633662","","","","","","",""
9.0,0.041912827640771866,0.0014232077874805457,"train",10160.0,"2021-11-19 13:33:31.126572","","","","","","",""
9.0,0.080680713057518,0.0014266380122968589,"train",10180.0,"2021-11-19 13:33:34.932203","","","","","","",""
9.0,0.04773347079753876,0.0014300623550921468,"train",10200.0,"2021-11-19 13:33:38.530570","","","","","","",""
9.0,0.08046543598175049,0.0014334807637710243,"train",10220.0,"2021-11-19 13:33:42.193199","","","","","","",""
9.0,0.06276396661996841,0.0014368931863283831,"train",10240.0,"2021-11-19 13:33:46.176423","","","","","","",""
9.0,0.042697515338659286,0.0014402995708501826,"train",10260.0,"2021-11-19 13:33:49.725627","","","","","","",""
9.0,0.08198046684265137,0.0014436998655142422,"train",10280.0,"2021-11-19 13:33:53.304717","","","","","","",""
9.0,0.05003540962934494,0.0014470940185910258,"train",10300.0,"2021-11-19 13:33:56.919833","","","","","","",""
9.0,0.04437544569373131,0.001450481978444431,"train",10320.0,"2021-11-19 13:34:00.813198","","","","","","",""
9.0,0.048700686544179916,0.0014538636935325763,"train",10340.0,"2021-11-19 13:34:04.413005","","","","","","",""
9.0,0.0855967178940773,0.0014572391124085817,"train",10360.0,"2021-11-19 13:34:08.059170","","","","","","",""
9.0,0.047883596271276474,0.0014606081837213525,"train",10380.0,"2021-11-19 13:34:11.875825","","","","","","",""
9.0,0.039202578365802765,0.0014639708562163639,"train",10400.0,"2021-11-19 13:34:15.438086","","","","","","",""
9.0,0.07354080677032471,0.001467327078736435,"train",10420.0,"2021-11-19 13:34:18.963755","","","","","","",""
9.0,0.0845157727599144,0.0014706768002225108,"train",10440.0,"2021-11-19 13:34:22.481591","","","","","","",""
9.0,0.05233142152428627,0.0014740199697144392,"train",10460.0,"2021-11-19 13:34:26.294816","","","","","","",""
9.0,0.07508005946874619,0.0014773565363517442,"train",10480.0,"2021-11-19 13:34:29.802386","","","","","","",""
9.0,0.04973122105002403,0.0014806864493744007,"train",10500.0,"2021-11-19 13:34:33.277263","","","","","","",""
9.0,0.042278219014406204,0.0014840096581236072,"train",10520.0,"2021-11-19 13:34:36.789503","","","","","","",""
9.0,0.06371817737817764,0.001487326112042556,"train",10540.0,"2021-11-19 13:34:40.635248","","","","","","",""
9.0,0.05986518785357475,0.0014906357606772013,"train",10560.0,"2021-11-19 13:34:44.089663","","","","","","",""
9.0,0.060014452785253525,0.0014939385536770291,"train",10580.0,"2021-11-19 13:34:47.533797","","","","","","",""
9.0,0.06551901251077652,0.0014972344407958218,"train",10600.0,"2021-11-19 13:34:51.332969","","","","","","",""
9.0,0.059243135154247284,0.0015005233718924213,"train",10620.0,"2021-11-19 13:34:54.811804","","","","","","",""
9.0,0.04689955338835716,0.0015038052969314946,"train",10640.0,"2021-11-19 13:34:58.295107","","","","","","",""
9.0,0.0643552839756012,0.0015070801659842939,"train",10660.0,"2021-11-19 13:35:01.774001","","","","","","",""
9.0,0.049026958644390106,0.001510347929229414,"train",10680.0,"2021-11-19 13:35:05.570217","","","","","","",""
9.0,0.05660301819443703,0.0015136085369535537,"train",10700.0,"2021-11-19 13:35:09.107341","","","","","","",""
9.0,0.03604544326663017,0.0015168619395522708,"train",10720.0,"2021-11-19 13:35:12.586555","","","","","","",""
9.0,0.047613754868507385,0.0015201080875307349,"train",10740.0,"2021-11-19 13:35:16.305246","","","","","","",""
9.0,"","","train",10740.0,"2021-11-19 13:36:56.450131",0.5952703194353489,0.5899669593538702,0.9449197349592912,0.5970568234285148,0.4790343463151382,0.49342703777142993,0.3251910004504698
9.0,"","","val",10740.0,"2021-11-19 13:37:24.617480",0.575495767134408,0.5558873875697137,0.9364667012704426,0.5688029118198037,0.45542764375302325,0.46758043626586826,0.30255950714572794
10.0,0.06263389438390732,0.0015233469315044834,"train",10760.0,"2021-11-19 13:37:32.440963","","","","","","",""
10.0,0.038685377687215805,0.0015265784222001709,"train",10780.0,"2021-11-19 13:37:35.906958","","","","","","",""
10.0,0.06662477552890778,0.0015298025104563185,"train",10800.0,"2021-11-19 13:37:39.330362","","","","","","",""
10.0,0.06016919016838074,0.001533019147224064,"train",10820.0,"2021-11-19 13:37:43.191596","","","","","","",""
10.0,0.06538810580968857,0.0015362282835679054,"train",10840.0,"2021-11-19 13:37:46.688894","","","","","","",""
10.0,0.04954013228416443,0.0015394298706664469,"train",10860.0,"2021-11-19 13:37:50.288040","","","","","","",""
10.0,0.0878632664680481,0.001542623859813141,"train",10880.0,"2021-11-19 13:37:54.201188","","","","","","",""
10.0,0.054011210799217224,0.00154581020241703,"train",10900.0,"2021-11-19 13:37:57.770455","","","","","","",""
10.0,0.06421464681625366,0.0015489888500034858,"train",10920.0,"2021-11-19 13:38:01.301554","","","","","","",""
10.0,0.04895402118563652,0.0015521597542149444,"train",10940.0,"2021-11-19 13:38:04.709838","","","","","","",""
10.0,0.059474337846040726,0.0015553228668116455,"train",10960.0,"2021-11-19 13:38:08.504436","","","","","","",""
10.0,0.09023451805114746,0.0015584781396723642,"train",10980.0,"2021-11-19 13:38:12.012069","","","","","","",""
10.0,0.07812526077032089,0.0015616255247951432,"train",11000.0,"2021-11-19 13:38:15.558086","","","","","","",""
10.0,0.08694241940975189,0.0015647649742980233,"train",11020.0,"2021-11-19 13:38:19.436358","","","","","","",""
10.0,0.05471969023346901,0.0015678964404197727,"train",11040.0,"2021-11-19 13:38:22.961075","","","","","","",""
10.0,0.03451218083500862,0.0015710198755206112,"train",11060.0,"2021-11-19 13:38:26.443765","","","","","","",""
10.0,0.043463341891765594,0.0015741352320829379,"train",11080.0,"2021-11-19 13:38:29.920862","","","","","","",""
10.0,0.061570215970277786,0.0015772424627120527,"train",11100.0,"2021-11-19 13:38:33.686007","","","","","","",""
10.0,0.06374798715114594,0.0015803415201368761,"train",11120.0,"2021-11-19 13:38:37.056182","","","","","","",""
10.0,0.06222938001155853,0.001583432357210671,"train",11140.0,"2021-11-19 13:38:40.681957","","","","","","",""
10.0,0.0490296334028244,0.001586514926911758,"train",11160.0,"2021-11-19 13:38:44.291855","","","","","","",""
10.0,0.07144302129745483,0.0015895891823442313,"train",11180.0,"2021-11-19 13:38:48.258480","","","","","","",""
10.0,0.04638903960585594,0.0015926550767386717,"train",11200.0,"2021-11-19 13:38:51.874312","","","","","","",""
10.0,0.07816429436206818,0.0015957125634528599,"train",11220.0,"2021-11-19 13:38:55.473403","","","","","","",""
10.0,0.06657437980175018,0.0015987615959724836,"train",11240.0,"2021-11-19 13:38:59.218405","","","","","","",""
10.0,0.0633193701505661,0.0016018021279118457,"train",11260.0,"2021-11-19 13:39:02.659573","","","","","","",""
10.0,0.07848671823740005,0.0016048341130145728,"train",11280.0,"2021-11-19 13:39:06.262967","","","","","","",""
10.0,0.050682179629802704,0.0016078575051543145,"train",11300.0,"2021-11-19 13:39:09.943795","","","","","","",""
10.0,0.046529825776815414,0.0016108722583354478,"train",11320.0,"2021-11-19 13:39:13.890633","","","","","","",""
10.0,0.054149989038705826,0.0016138783266937777,"train",11340.0,"2021-11-19 13:39:17.446123","","","","","","",""
10.0,0.07161851972341537,0.0016168756644972322,"train",11360.0,"2021-11-19 13:39:20.955132","","","","","","",""
10.0,0.05424048379063606,0.0016198642261465587,"train",11380.0,"2021-11-19 13:39:24.786542","","","","","","",""
10.0,0.059420034289360046,0.0016228439661760208,"train",11400.0,"2021-11-19 13:39:28.289063","","","","","","",""
10.0,0.04067918658256531,0.001625814839254086,"train",11420.0,"2021-11-19 13:39:31.842398","","","","","","",""
10.0,0.042587410658597946,0.0016287768001841164,"train",11440.0,"2021-11-19 13:39:35.359555","","","","","","",""
10.0,0.0748133510351181,0.001631729803905059,"train",11460.0,"2021-11-19 13:39:39.144365","","","","","","",""
10.0,0.04779655486345291,0.0016346738054921273,"train",11480.0,"2021-11-19 13:39:42.617006","","","","","","",""
10.0,0.040165893733501434,0.001637608760157486,"train",11500.0,"2021-11-19 13:39:46.193726","","","","","","",""
10.0,0.05251163989305496,0.0016405346232509356,"train",11520.0,"2021-11-19 13:39:49.729300","","","","","","",""
10.0,0.05575311928987503,0.0016434513502605861,"train",11540.0,"2021-11-19 13:39:53.587880","","","","","","",""
10.0,0.04860851541161537,0.0016463588968135383,"train",11560.0,"2021-11-19 13:39:57.091573","","","","","","",""
10.0,0.07192719727754593,0.0016492572186765577,"train",11580.0,"2021-11-19 13:40:00.535086","","","","","","",""
10.0,0.046557530760765076,0.001652146271756747,"train",11600.0,"2021-11-19 13:40:04.362107","","","","","","",""
10.0,0.06757267564535141,0.0016550260121022172,"train",11620.0,"2021-11-19 13:40:07.989698","","","","","","",""
10.0,0.036831628531217575,0.0016578963959027562,"train",11640.0,"2021-11-19 13:40:11.662038","","","","","","",""
10.0,0.05657357722520828,0.001660757379490496,"train",11660.0,"2021-11-19 13:40:15.200528","","","","","","",""
10.0,0.04429179057478905,0.0016636089193405761,"train",11680.0,"2021-11-19 13:40:19.053386","","","","","","",""
10.0,0.05823472887277603,0.0016664509720718049,"train",11700.0,"2021-11-19 13:40:22.816711","","","","","","",""
10.0,0.05961303785443306,0.0016692834944473224,"train",11720.0,"2021-11-19 13:40:26.258603","","","","","","",""
10.0,0.04971238598227501,0.0016721064433752554,"train",11740.0,"2021-11-19 13:40:30.098389","","","","","","",""
10.0,0.047494299709796906,0.0016749197759093734,"train",11760.0,"2021-11-19 13:40:33.686241","","","","","","",""
10.0,0.059159308671951294,0.0016777234492497436,"train",11780.0,"2021-11-19 13:40:37.204532","","","","","","",""
10.0,0.04578188806772232,0.0016805174207433808,"train",11800.0,"2021-11-19 13:40:40.696771","","","","","","",""
10.0,"","","train",11814.0,"2021-11-19 13:42:24.507543",0.6085716364694753,0.6095121133707175,0.9476984836567279,0.632336417517363,0.5063982323982391,0.5165029795296763,0.34692963430720525
10.0,"","","val",11814.0,"2021-11-19 13:42:52.648451",0.5831497158761452,0.5672341184246522,0.9358142437354103,0.5983675789902888,0.47519870243092893,0.4834530030246571,0.3150245043836653
11.0,0.050468988716602325,0.0016833016478848956,"train",11820.0,"2021-11-19 13:42:57.935974","","","","","","",""
11.0,0.051927220076322556,0.0016860760883171426,"train",11840.0,"2021-11-19 13:43:01.408279","","","","","","",""
11.0,0.0655960738658905,0.001688840699831864,"train",11860.0,"2021-11-19 13:43:04.899900","","","","","","",""
11.0,0.062457792460918427,0.0016915954403703313,"train",11880.0,"2021-11-19 13:43:08.453596","","","","","","",""
11.0,0.052172016352415085,0.0016943402680239862,"train",11900.0,"2021-11-19 13:43:12.503635","","","","","","",""
11.0,0.045413751155138016,0.0016970751410350774,"train",11920.0,"2021-11-19 13:43:16.088929","","","","","","",""
11.0,0.047292083501815796,0.001699800017797296,"train",11940.0,"2021-11-19 13:43:19.610256","","","","","","",""
11.0,0.08097381144762039,0.0017025148568564086,"train",11960.0,"2021-11-19 13:43:23.495423","","","","","","",""
11.0,0.06748194992542267,0.001705219616910888,"train",11980.0,"2021-11-19 13:43:27.116606","","","","","","",""
11.0,0.0499219074845314,0.001707914256812541,"train",12000.0,"2021-11-19 13:43:30.658973","","","","","","",""
11.0,0.04994986206293106,0.0017105987355671352,"train",12020.0,"2021-11-19 13:43:34.294557","","","","","","",""
11.0,0.045248765498399734,0.0017132730123350227,"train",12040.0,"2021-11-19 13:43:38.213542","","","","","","",""
11.0,0.0587969534099102,0.00171593704643176,"train",12060.0,"2021-11-19 13:43:41.773805","","","","","","",""
11.0,0.06273879110813141,0.0017185907973287285,"train",12080.0,"2021-11-19 13:43:45.373991","","","","","","",""
11.0,0.07599705457687378,0.0017212342246537506,"train",12100.0,"2021-11-19 13:43:49.290790","","","","","","",""
11.0,0.0503762885928154,0.0017238672881917032,"train",12120.0,"2021-11-19 13:43:52.864731","","","","","","",""
11.0,0.038441747426986694,0.001726489947885131,"train",12140.0,"2021-11-19 13:43:56.434423","","","","","","",""
11.0,0.04665718227624893,0.0017291021638348543,"train",12160.0,"2021-11-19 13:44:00.033377","","","","","","",""
11.0,0.08273392170667648,0.0017317038963005765,"train",12180.0,"2021-11-19 13:44:03.942057","","","","","","",""
11.0,0.049433328211307526,0.00173429510570149,"train",12200.0,"2021-11-19 13:44:07.500297","","","","","","",""
11.0,0.06707420200109482,0.0017368757526168759,"train",12220.0,"2021-11-19 13:44:11.085871","","","","","","",""
11.0,0.06443160772323608,0.0017394457977867057,"train",12240.0,"2021-11-19 13:44:14.542614","","","","","","",""
11.0,0.03386147692799568,0.0017420052021122378,"train",12260.0,"2021-11-19 13:44:18.466851","","","","","","",""
11.0,0.056810151785612106,0.0017445539266566128,"train",12280.0,"2021-11-19 13:44:21.925585","","","","","","",""
11.0,0.061062928289175034,0.001747091932645445,"train",12300.0,"2021-11-19 13:44:25.401285","","","","","","",""
11.0,0.04434487223625183,0.0017496191814674125,"train",12320.0,"2021-11-19 13:44:29.259302","","","","","","",""
11.0,0.07016558945178986,0.001752135634674846,"train",12340.0,"2021-11-19 13:44:32.803036","","","","","","",""
11.0,0.06206139177083969,0.0017546412539843118,"train",12360.0,"2021-11-19 13:44:36.332787","","","","","","",""
11.0,0.049155086278915405,0.001757136001277194,"train",12380.0,"2021-11-19 13:44:39.890730","","","","","","",""
11.0,0.07439461350440979,0.001759619838600278,"train",12400.0,"2021-11-19 13:44:43.798331","","","","","","",""
11.0,0.05798628181219101,0.0017620927281663229,"train",12420.0,"2021-11-19 13:44:47.372955","","","","","","",""
11.0,0.061175618320703506,0.0017645546323546398,"train",12440.0,"2021-11-19 13:44:50.935137","","","","","","",""
11.0,0.0373675636947155,0.0017670055137116636,"train",12460.0,"2021-11-19 13:44:54.885239","","","","","","",""
11.0,0.04474972188472748,0.0017694453349515209,"train",12480.0,"2021-11-19 13:44:58.374935","","","","","","",""
11.0,0.07940787822008133,0.0017718740589566,"train",12500.0,"2021-11-19 13:45:01.900616","","","","","","",""
11.0,0.03542695567011833,0.0017742916487781134,"train",12520.0,"2021-11-19 13:45:05.321876","","","","","","",""
11.0,0.053208526223897934,0.0017766980676366608,"train",12540.0,"2021-11-19 13:45:09.024471","","","","","","",""
11.0,0.05359505116939545,0.001779093278922789,"train",12560.0,"2021-11-19 13:45:12.497722","","","","","","",""
11.0,0.047397762537002563,0.001781477246197548,"train",12580.0,"2021-11-19 13:45:16.008976","","","","","","",""
11.0,0.051264792680740356,0.0017838499331930462,"train",12600.0,"2021-11-19 13:45:19.489312","","","","","","",""
11.0,0.06111890822649002,0.001786211303813001,"train",12620.0,"2021-11-19 13:45:23.332721","","","","","","",""
11.0,0.04575861245393753,0.0017885613221332894,"train",12640.0,"2021-11-19 13:45:26.839124","","","","","","",""
11.0,0.05356611683964729,0.0017908999524024931,"train",12660.0,"2021-11-19 13:45:30.363466","","","","","","",""
11.0,0.04909859597682953,0.0017932271590424438,"train",12680.0,"2021-11-19 13:45:34.244768","","","","","","",""
11.0,0.04967079311609268,0.0017955429066487635,"train",12700.0,"2021-11-19 13:45:37.825995","","","","","","",""
11.0,0.06965477764606476,0.0017978471599914025,"train",12720.0,"2021-11-19 13:45:41.422353","","","","","","",""
11.0,0.04739929735660553,0.0018001398840151778,"train",12740.0,"2021-11-19 13:45:45.004449","","","","","","",""
11.0,0.048103541135787964,0.0018024210438403031,"train",12760.0,"2021-11-19 13:45:48.799567","","","","","","",""
11.0,0.04578185826539993,0.0018046906047629228,"train",12780.0,"2021-11-19 13:45:52.263089","","","","","","",""
11.0,0.05540861561894417,0.0018069485322556372,"train",12800.0,"2021-11-19 13:45:55.741173","","","","","","",""
11.0,0.049899425357580185,0.001809194791968029,"train",12820.0,"2021-11-19 13:45:59.566478","","","","","","",""
11.0,0.07586535066366196,0.0018114293497271863,"train",12840.0,"2021-11-19 13:46:03.051389","","","","","","",""
11.0,0.04880553483963013,0.0018136521715382218,"train",12860.0,"2021-11-19 13:46:06.516995","","","","","","",""
11.0,0.06506618112325668,0.0018158632235847892,"train",12880.0,"2021-11-19 13:46:10.070636","","","","","","",""
11.0,"","","train",12888.0,"2021-11-19 13:47:57.829521",0.6184384777705013,0.6242126501330945,0.9498518817991211,0.6498810318573077,0.5222048651220396,0.5384830102613434,0.36169281225327077
11.0,"","","val",12888.0,"2021-11-19 13:48:26.068175",0.5917314159805173,0.5760602938208385,0.9347474610642821,0.6162562689639095,0.49297129205061385,0.5062341040430705,0.33111721010386425
12.0,0.05745207518339157,0.0018180624722295999,"train",12900.0,"2021-11-19 13:48:32.774670","","","","","","",""
12.0,0.0435299351811409,0.001820249884014933,"train",12920.0,"2021-11-19 13:48:36.465455","","","","","","",""
12.0,0.04840033873915672,0.001822425425663144,"train",12940.0,"2021-11-19 13:48:40.253342","","","","","","",""
12.0,0.05132680758833885,0.0018245890640771725,"train",12960.0,"2021-11-19 13:48:44.338964","","","","","","",""
12.0,0.07731018215417862,0.0018267407663410452,"train",12980.0,"2021-11-19 13:48:47.891223","","","","","","",""
12.0,0.05873112380504608,0.0018288804997203755,"train",13000.0,"2021-11-19 13:48:51.331006","","","","","","",""
12.0,0.07519343495368958,0.0018310082316628634,"train",13020.0,"2021-11-19 13:48:54.761751","","","","","","",""
12.0,0.04613494127988815,0.0018331239297987893,"train",13040.0,"2021-11-19 13:48:58.675882","","","","","","",""
12.0,0.033910121768713,0.0018352275619415066,"train",13060.0,"2021-11-19 13:49:02.340152","","","","","","",""
12.0,0.06185510382056236,0.0018373190960879326,"train",13080.0,"2021-11-19 13:49:06.057325","","","","","","",""
12.0,0.05054719001054764,0.0018393985004190336,"train",13100.0,"2021-11-19 13:49:09.987377","","","","","","",""
12.0,0.050472501665353775,0.00184146574330031,"train",13120.0,"2021-11-19 13:49:13.567232","","","","","","",""
12.0,0.06436628848314285,0.001843520793282278,"train",13140.0,"2021-11-19 13:49:17.056243","","","","","","",""
12.0,0.09368117153644562,0.0018455636191009464,"train",13160.0,"2021-11-19 13:49:20.475445","","","","","","",""
12.0,0.08218955248594284,0.001847594189678294,"train",13180.0,"2021-11-19 13:49:24.379286","","","","","","",""
12.0,0.07109445333480835,0.0018496124741227415,"train",13200.0,"2021-11-19 13:49:27.916846","","","","","","",""
12.0,0.05388370901346207,0.001851618441729622,"train",13220.0,"2021-11-19 13:49:31.423019","","","","","","",""
12.0,0.045492321252822876,0.0018536120619816467,"train",13240.0,"2021-11-19 13:49:34.967331","","","","","","",""
12.0,0.05886440724134445,0.0018555933045493712,"train",13260.0,"2021-11-19 13:49:38.757788","","","","","","",""
12.0,0.07466568052768707,0.0018575621392916554,"train",13280.0,"2021-11-19 13:49:42.163296","","","","","","",""
12.0,0.06420920044183731,0.0018595185362561225,"train",13300.0,"2021-11-19 13:49:45.679370","","","","","","",""
12.0,0.059331148862838745,0.0018614624656796155,"train",13320.0,"2021-11-19 13:49:49.604694","","","","","","",""
12.0,0.044551264494657516,0.0018633938979886484,"train",13340.0,"2021-11-19 13:49:53.291046","","","","","","",""
12.0,0.061279602348804474,0.0018653128037998568,"train",13360.0,"2021-11-19 13:49:56.682193","","","","","","",""
12.0,0.05411304533481598,0.0018672191539204459,"train",13380.0,"2021-11-19 13:50:00.101595","","","","","","",""
12.0,0.05208888649940491,0.0018691129193486335,"train",13400.0,"2021-11-19 13:50:04.069989","","","","","","",""
12.0,0.05351365730166435,0.0018709940712740908,"train",13420.0,"2021-11-19 13:50:07.702866","","","","","","",""
12.0,0.037724584341049194,0.0018728625810783823,"train",13440.0,"2021-11-19 13:50:11.342182","","","","","","",""
12.0,0.05669686198234558,0.0018747184203353996,"train",13460.0,"2021-11-19 13:50:15.321161","","","","","","",""
12.0,0.059213925153017044,0.0018765615608117947,"train",13480.0,"2021-11-19 13:50:18.919671","","","","","","",""
12.0,0.04797011613845825,0.0018783919744674096,"train",13500.0,"2021-11-19 13:50:22.498048","","","","","","",""
12.0,0.051400985568761826,0.0018802096334557027,"train",13520.0,"2021-11-19 13:50:26.012137","","","","","","",""
12.0,0.05909818038344383,0.0018820145101241712,"train",13540.0,"2021-11-19 13:50:29.972459","","","","","","",""
12.0,0.06194112077355385,0.0018838065770147745,"train",13560.0,"2021-11-19 13:50:33.555782","","","","","","",""
12.0,0.057403311133384705,0.0018855858068643496,"train",13580.0,"2021-11-19 13:50:37.143908","","","","","","",""
12.0,0.0544184111058712,0.001887352172605026,"train",13600.0,"2021-11-19 13:50:40.678455","","","","","","",""
12.0,0.05466882139444351,0.0018891056473646398,"train",13620.0,"2021-11-19 13:50:44.592431","","","","","","",""
12.0,0.03487573191523552,0.0018908462044671395,"train",13640.0,"2021-11-19 13:50:48.068291","","","","","","",""
12.0,0.05119810253381729,0.001892573817432993,"train",13660.0,"2021-11-19 13:50:51.613687","","","","","","",""
12.0,0.06095670536160469,0.0018942884599795914,"train",13680.0,"2021-11-19 13:50:55.571498","","","","","","",""
12.0,0.05040017515420914,0.001895990106021648,"train",13700.0,"2021-11-19 13:50:59.081722","","","","","","",""
12.0,0.0805545449256897,0.0018976787296715943,"train",13720.0,"2021-11-19 13:51:02.490067","","","","","","",""
12.0,0.06558727473020554,0.0018993543052399757,"train",13740.0,"2021-11-19 13:51:05.999124","","","","","","",""
12.0,0.03853620961308479,0.0019010168072358413,"train",13760.0,"2021-11-19 13:51:09.888506","","","","","","",""
12.0,0.06862064450979233,0.0019026662103671305,"train",13780.0,"2021-11-19 13:51:13.461054","","","","","","",""
12.0,0.06471028178930283,0.0019043024895410605,"train",13800.0,"2021-11-19 13:51:17.023379","","","","","","",""
12.0,0.0484752431511879,0.001905925619864506,"train",13820.0,"2021-11-19 13:51:20.937101","","","","","","",""
12.0,0.07602550089359283,0.001907535576644378,"train",13840.0,"2021-11-19 13:51:24.451477","","","","","","",""
12.0,0.09083988517522812,0.0019091323353880008,"train",13860.0,"2021-11-19 13:51:28.001025","","","","","","",""
12.0,0.05945125222206116,0.0019107158718034828,"train",13880.0,"2021-11-19 13:51:31.563723","","","","","","",""
12.0,0.05994632467627525,0.001912286161800088,"train",13900.0,"2021-11-19 13:51:35.457173","","","","","","",""
12.0,0.0763436108827591,0.0019138431814886008,"train",13920.0,"2021-11-19 13:51:39.027224","","","","","","",""
12.0,0.07593641430139542,0.0019153869071816896,"train",13940.0,"2021-11-19 13:51:42.772772","","","","","","",""
12.0,0.05457902327179909,0.0019169173153942693,"train",13960.0,"2021-11-19 13:51:46.467171","","","","","","",""
12.0,"","","train",13962.0,"2021-11-19 13:53:32.949141",0.6266462926580805,0.6472758283128139,0.9549744437148354,0.645554948010608,0.5391231830508054,0.5527227332261421,0.37842777177407344
12.0,"","","val",13962.0,"2021-11-19 13:54:02.545655",0.5973559086164908,0.5884185847590027,0.944077805498283,0.6068015334704315,0.5008658741000863,0.5114205968774285,0.33694540411678997
13.0,0.04893040657043457,0.0019184343828438557,"train",13980.0,"2021-11-19 13:54:09.974369","","","","","","",""
13.0,0.08620461821556091,0.0019199380864509208,"train",14000.0,"2021-11-19 13:54:13.447233","","","","","","",""
13.0,0.06720295548439026,0.0019214284033392457,"train",14020.0,"2021-11-19 13:54:16.878393","","","","","","",""
13.0,0.053402867168188095,0.0019229053108362649,"train",14040.0,"2021-11-19 13:54:20.690080","","","","","","",""
13.0,0.07878636568784714,0.0019243687864734145,"train",14060.0,"2021-11-19 13:54:24.051533","","","","","","",""
13.0,0.04511898383498192,0.0019258188079864732,"train",14080.0,"2021-11-19 13:54:27.366888","","","","","","",""
13.0,0.07191526889801025,0.0019272553533158999,"train",14100.0,"2021-11-19 13:54:30.662367","","","","","","",""
13.0,0.06522183865308762,0.0019286784006071697,"train",14120.0,"2021-11-19 13:54:34.531945","","","","","","",""
13.0,0.05464843288064003,0.0019300879282111083,"train",14140.0,"2021-11-19 13:54:38.066140","","","","","","",""
13.0,0.03846907243132591,0.0019314839146842185,"train",14160.0,"2021-11-19 13:54:41.506747","","","","","","",""
13.0,0.044520169496536255,0.0019328663387890076,"train",14180.0,"2021-11-19 13:54:45.255404","","","","","","",""
13.0,0.04856143891811371,0.0019342351794943119,"train",14200.0,"2021-11-19 13:54:48.743965","","","","","","",""
13.0,0.04266676306724548,0.0019355904159756138,"train",14220.0,"2021-11-19 13:54:52.227324","","","","","","",""
13.0,0.05855464190244675,0.0019369320276153613,"train",14240.0,"2021-11-19 13:54:55.704156","","","","","","",""
13.0,0.0460941456258297,0.00193825999400328,"train",14260.0,"2021-11-19 13:54:59.653118","","","","","","",""
13.0,0.05133102834224701,0.0019395742949366843,"train",14280.0,"2021-11-19 13:55:03.288157","","","","","","",""
13.0,0.04779868200421333,0.0019408749104207845,"train",14300.0,"2021-11-19 13:55:06.900683","","","","","","",""
13.0,0.07022974640130997,0.0019421618206689913,"train",14320.0,"2021-11-19 13:55:10.427594","","","","","","",""
13.0,0.046482015401124954,0.0019434350061032163,"train",14340.0,"2021-11-19 13:55:14.266054","","","","","","",""
13.0,0.033652108162641525,0.0019446944473541703,"train",14360.0,"2021-11-19 13:55:17.728081","","","","","","",""
13.0,0.05530286207795143,0.0019459401252616573,"train",14380.0,"2021-11-19 13:55:21.193195","","","","","","",""
13.0,0.085073322057724,0.001947172020874868,"train",14400.0,"2021-11-19 13:55:25.088512","","","","","","",""
13.0,0.05547088012099266,0.0019483901154526647,"train",14420.0,"2021-11-19 13:55:28.543475","","","","","","",""
13.0,0.06306985765695572,0.0019495943904638694,"train",14440.0,"2021-11-19 13:55:31.975486","","","","","","",""
13.0,0.06661905348300934,0.0019507848275875444,"train",14460.0,"2021-11-19 13:55:36.121878","","","","","","",""
13.0,0.05438956990838051,0.0019519614087132712,"train",14480.0,"2021-11-19 13:55:42.680216","","","","","","",""
13.0,0.05634689703583717,0.0019531241159414263,"train",14500.0,"2021-11-19 13:55:47.555397","","","","","","",""
13.0,0.05320029705762863,0.001954272931583453,"train",14520.0,"2021-11-19 13:55:51.172109","","","","","","",""
13.0,0.06197373941540718,0.0019554078381621306,"train",14540.0,"2021-11-19 13:55:55.108465","","","","","","",""
13.0,0.05884723737835884,0.0019565288184118417,"train",14560.0,"2021-11-19 13:55:59.300312","","","","","","",""
13.0,0.03661003336310387,0.0019576358552788314,"train",14580.0,"2021-11-19 13:56:03.123552","","","","","","",""
13.0,0.03499413654208183,0.0019587289319214713,"train",14600.0,"2021-11-19 13:56:06.455479","","","","","","",""
13.0,0.05410001054406166,0.0019598080317105113,"train",14620.0,"2021-11-19 13:56:10.102167","","","","","","",""
13.0,0.03950400650501251,0.001960873138229337,"train",14640.0,"2021-11-19 13:56:13.518097","","","","","","",""
13.0,0.07023066282272339,0.0019619242352742153,"train",14660.0,"2021-11-19 13:56:16.971105","","","","","","",""
13.0,0.058394905179739,0.001962961306854543,"train",14680.0,"2021-11-19 13:56:20.588956","","","","","","",""
13.0,0.07748650759458542,0.0019639843371930905,"train",14700.0,"2021-11-19 13:56:24.522088","","","","","","",""
13.0,0.04558834433555603,0.001964993310726241,"train",14720.0,"2021-11-19 13:56:28.120348","","","","","","",""
13.0,0.03513486683368683,0.0019659882121042262,"train",14740.0,"2021-11-19 13:56:31.736860","","","","","","",""
13.0,0.04858206585049629,0.001966969026191363,"train",14760.0,"2021-11-19 13:56:35.592914","","","","","","",""
13.0,0.06583942472934723,0.0019679357380662805,"train",14780.0,"2021-11-19 13:56:39.100237","","","","","","",""
13.0,0.04281499609351158,0.001968888333022148,"train",14800.0,"2021-11-19 13:56:42.489794","","","","","","",""
13.0,0.03773660957813263,0.0019698267965669,"train",14820.0,"2021-11-19 13:56:45.994541","","","","","","",""
13.0,0.04321310669183731,0.0019707511144234557,"train",14840.0,"2021-11-19 13:56:49.785174","","","","","","",""
13.0,0.0547313466668129,0.001971661272529935,"train",14860.0,"2021-11-19 13:56:53.298246","","","","","","",""
13.0,0.0661999061703682,0.001972557257039875,"train",14880.0,"2021-11-19 13:56:56.819244","","","","","","",""
13.0,0.04646562412381172,0.0019734390543224385,"train",14900.0,"2021-11-19 13:57:00.635972","","","","","","",""
13.0,0.058940447866916656,0.001974306650962622,"train",14920.0,"2021-11-19 13:57:04.223613","","","","","","",""
13.0,0.05005710944533348,0.0019751600337614608,"train",14940.0,"2021-11-19 13:57:07.757179","","","","","","",""
13.0,0.05305207148194313,0.0019759991897362284,"train",14960.0,"2021-11-19 13:57:11.291933","","","","","","",""
13.0,0.0660952553153038,0.0019768241061206343,"train",14980.0,"2021-11-19 13:57:15.086641","","","","","","",""
13.0,0.06930683553218842,0.0019776347703650186,"train",15000.0,"2021-11-19 13:57:18.588810","","","","","","",""
13.0,0.07965926080942154,0.001978431170136543,"train",15020.0,"2021-11-19 13:57:22.020056","","","","","","",""
13.0,"","","train",15036.0,"2021-11-19 13:59:05.945467",0.6350287419049698,0.6517143188223078,0.9568357965596411,0.645515358758861,0.5357630385876269,0.5528495795347077,0.3734684790733522
13.0,"","","val",15036.0,"2021-11-19 13:59:37.928184",0.6058796242606981,0.5907144264225562,0.9427080586167749,0.6064716863927951,0.49623206953884036,0.5129907613244497,0.33319406702340565
14.0,0.044925350695848465,0.0019792132933193784,"train",15040.0,"2021-11-19 13:59:46.467464","","","","","","",""
14.0,0.03742790222167969,0.001979981128014888,"train",15060.0,"2021-11-19 13:59:50.123802","","","","","","",""
14.0,0.0514526292681694,0.001980734662541811,"train",15080.0,"2021-11-19 13:59:53.638064","","","","","","",""
14.0,0.055497437715530396,0.0019814738854364374,"train",15100.0,"2021-11-19 13:59:57.170402","","","","","","",""
14.0,0.044537581503391266,0.0019821987854527832,"train",15120.0,"2021-11-19 14:00:01.030405","","","","","","",""
14.0,0.04410022124648094,0.0019829093515627634,"train",15140.0,"2021-11-19 14:00:04.524836","","","","","","",""
14.0,0.07883361726999283,0.001983605572956358,"train",15160.0,"2021-11-19 14:00:08.006428","","","","","","",""
14.0,0.06357932090759277,0.001984287439041775,"train",15180.0,"2021-11-19 14:00:11.431777","","","","","","",""
14.0,0.040163684636354446,0.001984954939445616,"train",15200.0,"2021-11-19 14:00:15.271833","","","","","","",""
14.0,0.06600543111562729,0.0019856080640130295,"train",15220.0,"2021-11-19 14:00:18.849650","","","","","","",""
14.0,0.06810378283262253,0.0019862468028078676,"train",15240.0,"2021-11-19 14:00:22.433410","","","","","","",""
14.0,0.07541195303201675,0.001986871146112837,"train",15260.0,"2021-11-19 14:00:26.238379","","","","","","",""
14.0,0.027571137994527817,0.0019874810844296466,"train",15280.0,"2021-11-19 14:00:29.746804","","","","","","",""
14.0,0.07618993520736694,0.0019880766084791517,"train",15300.0,"2021-11-19 14:00:33.288729","","","","","","",""
14.0,0.04099816828966141,0.0019886577092014953,"train",15320.0,"2021-11-19 14:00:36.804469","","","","","","",""
14.0,0.037362974137067795,0.001989224377756247,"train",15340.0,"2021-11-19 14:00:40.626772","","","","","","",""
14.0,0.0350092351436615,0.0019897766055225353,"train",15360.0,"2021-11-19 14:00:44.170487","","","","","","",""
14.0,0.040495410561561584,0.0019903143840991813,"train",15380.0,"2021-11-19 14:00:47.714220","","","","","","",""
14.0,0.03343043476343155,0.0019908377053048246,"train",15400.0,"2021-11-19 14:00:51.620864","","","","","","",""
14.0,0.06733347475528717,0.001991346561178048,"train",15420.0,"2021-11-19 14:00:55.152280","","","","","","",""
14.0,0.043893489986658096,0.0019918409439775003,"train",15440.0,"2021-11-19 14:00:58.756582","","","","","","",""
14.0,0.04036582261323929,0.0019923208461820117,"train",15460.0,"2021-11-19 14:01:02.297208","","","","","","",""
14.0,0.04119489714503288,0.001992786260490709,"train",15480.0,"2021-11-19 14:01:06.143020","","","","","","",""
14.0,0.040209878236055374,0.0019932371798231287,"train",15500.0,"2021-11-19 14:01:09.698909","","","","","","",""
14.0,0.0619630366563797,0.0019936735973193212,"train",15520.0,"2021-11-19 14:01:13.327967","","","","","","",""
14.0,0.05471981316804886,0.001994095506339958,"train",15540.0,"2021-11-19 14:01:16.986171","","","","","","",""
14.0,0.03999071195721626,0.001994502900466431,"train",15560.0,"2021-11-19 14:01:20.929740","","","","","","",""
14.0,0.06678493320941925,0.0019948957735009517,"train",15580.0,"2021-11-19 14:01:24.530026","","","","","","",""
14.0,0.03846041113138199,0.0019952741194666436,"train",15600.0,"2021-11-19 14:01:28.169077","","","","","","",""
14.0,0.05155147984623909,0.0019956379326076354,"train",15620.0,"2021-11-19 14:01:32.085484","","","","","","",""
14.0,0.03149275854229927,0.001995987207389146,"train",15640.0,"2021-11-19 14:01:35.642285","","","","","","",""
14.0,0.06388342380523682,0.0019963219384975706,"train",15660.0,"2021-11-19 14:01:39.166894","","","","","","",""
14.0,0.05814530700445175,0.001996642120840561,"train",15680.0,"2021-11-19 14:01:42.683636","","","","","","",""
14.0,0.06375342607498169,0.001996947749547103,"train",15700.0,"2021-11-19 14:01:46.577617","","","","","","",""
14.0,0.04372277855873108,0.0019972388199675905,"train",15720.0,"2021-11-19 14:01:50.209235","","","","","","",""
14.0,0.054411567747592926,0.001997515327673896,"train",15740.0,"2021-11-19 14:01:53.826022","","","","","","",""
14.0,0.08669647574424744,0.0019977772684594388,"train",15760.0,"2021-11-19 14:01:57.752828","","","","","","",""
14.0,0.033757418394088745,0.0019980246383392475,"train",15780.0,"2021-11-19 14:02:01.310084","","","","","","",""
14.0,0.026668621227145195,0.0019982574335500225,"train",15800.0,"2021-11-19 14:02:04.811843","","","","","","",""
14.0,0.04995899274945259,0.001998475650550192,"train",15820.0,"2021-11-19 14:02:08.287976","","","","","","",""
14.0,0.044430095702409744,0.0019986792860199657,"train",15840.0,"2021-11-19 14:02:12.119240","","","","","","",""
14.0,0.042749177664518356,0.001998868336861386,"train",15860.0,"2021-11-19 14:02:15.637142","","","","","","",""
14.0,0.05074237287044525,0.001999042800198376,"train",15880.0,"2021-11-19 14:02:19.105932","","","","","","",""
14.0,0.04221776872873306,0.00199920267337678,"train",15900.0,"2021-11-19 14:02:22.546971","","","","","","",""
14.0,0.05640436336398125,0.0019993479539644077,"train",15920.0,"2021-11-19 14:02:26.322526","","","","","","",""
14.0,0.06592601537704468,0.0019994786397510697,"train",15940.0,"2021-11-19 14:02:29.815128","","","","","","",""
14.0,0.0399896465241909,0.0019995947287486096,"train",15960.0,"2021-11-19 14:02:33.315718","","","","","","",""
14.0,0.06422045826911926,0.0019996962191909367,"train",15980.0,"2021-11-19 14:02:36.953706","","","","","","",""
14.0,0.05584888160228729,0.0019997831095340513,"train",16000.0,"2021-11-19 14:02:40.293164","","","","","","",""
14.0,0.0697086825966835,0.001999855398456069,"train",16020.0,"2021-11-19 14:02:43.665059","","","","","","",""
14.0,0.04750173166394234,0.00199991308485724,"train",16040.0,"2021-11-19 14:02:46.952547","","","","","","",""
14.0,0.05689653381705284,0.001999956167859967,"train",16060.0,"2021-11-19 14:02:50.562008","","","","","","",""
14.0,0.08306854963302612,0.0019999846468088172,"train",16080.0,"2021-11-19 14:02:54.128374","","","","","","",""
14.0,0.043630946427583694,0.0019999985212705335,"train",16100.0,"2021-11-19 14:02:57.747776","","","","","","",""
14.0,"","","train",16110.0,"2021-11-19 14:04:40.058287",0.6431783453394455,0.6719488921715031,0.9601525480640932,0.6539965207432956,0.5433549593180955,0.5698279096276873,0.3868054579908092
14.0,"","","val",16110.0,"2021-11-19 14:05:09.869521",0.6057636553403688,0.5973856665182179,0.9449479606686896,0.609984126336402,0.4928428605796833,0.5181417557683858,0.33308305060926746
15.0,0.04096158966422081,0.0019999995774202316,"train",16120.0,"2021-11-19 14:05:16.266293","","","","","","",""
15.0,0.04366203770041466,0.0019999966438102564,"train",16140.0,"2021-11-19 14:05:19.931710","","","","","","",""
15.0,0.043543655425310135,0.0019999909162942875,"train",16160.0,"2021-11-19 14:05:23.661453","","","","","","",""
15.0,0.051600851118564606,0.001999982394888327,"train",16180.0,"2021-11-19 14:05:27.228721","","","","","","",""
15.0,0.06205742433667183,0.0019999710796161823,"train",16200.0,"2021-11-19 14:05:31.097383","","","","","","",""
15.0,0.044571809470653534,0.0019999569705094686,"train",16220.0,"2021-11-19 14:05:34.643101","","","","","","",""
15.0,0.034511905163526535,0.001999940067607605,"train",16240.0,"2021-11-19 14:05:38.171076","","","","","","",""
15.0,0.06909117847681046,0.001999920370957817,"train",16260.0,"2021-11-19 14:05:41.700295","","","","","","",""
15.0,0.0757436454296112,0.0019998978806151355,"train",16280.0,"2021-11-19 14:05:45.571085","","","","","","",""
15.0,0.047785062342882156,0.0019998725966423976,"train",16300.0,"2021-11-19 14:05:49.099497","","","","","","",""
15.0,0.05646710842847824,0.001999844519110244,"train",16320.0,"2021-11-19 14:05:52.638209","","","","","","",""
15.0,0.08034258335828781,0.001999813648097122,"train",16340.0,"2021-11-19 14:05:56.497117","","","","","","",""
15.0,0.07341179996728897,0.001999779983689282,"train",16360.0,"2021-11-19 14:06:00.099644","","","","","","",""
15.0,0.04577136039733887,0.0019997435259807806,"train",16380.0,"2021-11-19 14:06:03.701983","","","","","","",""
15.0,0.0792107954621315,0.001999704275073478,"train",16400.0,"2021-11-19 14:06:07.313978","","","","","","",""
15.0,0.036466654390096664,0.0019996622310770383,"train",16420.0,"2021-11-19 14:06:11.274047","","","","","","",""
15.0,0.040859155356884,0.0019996173941089286,"train",16440.0,"2021-11-19 14:06:14.903905","","","","","","",""
15.0,0.0330301932990551,0.0019995697642944212,"train",16460.0,"2021-11-19 14:06:18.504397","","","","","","",""
15.0,0.041215136647224426,0.0019995193417665894,"train",16480.0,"2021-11-19 14:06:22.413384","","","","","","",""
15.0,0.044920410960912704,0.0019994661266663108,"train",16500.0,"2021-11-19 14:06:25.998756","","","","","","",""
15.0,0.03685718774795532,0.001999410119142264,"train",16520.0,"2021-11-19 14:06:29.556709","","","","","","",""
15.0,0.07336845248937607,0.0019993513193509297,"train",16540.0,"2021-11-19 14:06:33.199374","","","","","","",""
15.0,0.03799929842352867,0.0019992897274565906,"train",16560.0,"2021-11-19 14:06:37.076589","","","","","","",""
15.0,0.06971435993909836,0.0019992253436313303,"train",16580.0,"2021-11-19 14:06:40.570106","","","","","","",""
15.0,0.058726176619529724,0.0019991581680550313,"train",16600.0,"2021-11-19 14:06:44.073345","","","","","","",""
15.0,0.054071929305791855,0.0019990882009153785,"train",16620.0,"2021-11-19 14:06:47.553205","","","","","","",""
15.0,0.07616902887821198,0.001999015442407854,"train",16640.0,"2021-11-19 14:06:51.375387","","","","","","",""
15.0,0.03964252769947052,0.0019989398927357403,"train",16660.0,"2021-11-19 14:06:54.860149","","","","","","",""
15.0,0.03404992073774338,0.0019988615521101174,"train",16680.0,"2021-11-19 14:06:58.412191","","","","","","",""
15.0,0.03469077870249748,0.0019987804207498637,"train",16700.0,"2021-11-19 14:07:02.179283","","","","","","",""
15.0,0.037025194615125656,0.0019986964988816533,"train",16720.0,"2021-11-19 14:07:05.633322","","","","","","",""
15.0,0.07179910689592361,0.0019986097867399585,"train",16740.0,"2021-11-19 14:07:09.107012","","","","","","",""
15.0,0.04654137045145035,0.0019985202845670463,"train",16760.0,"2021-11-19 14:07:12.583606","","","","","","",""
15.0,0.04071757569909096,0.0019984279926129798,"train",16780.0,"2021-11-19 14:07:16.495119","","","","","","",""
15.0,0.05041470006108284,0.001998332911135615,"train",16800.0,"2021-11-19 14:07:19.983123","","","","","","",""
15.0,0.045325685292482376,0.0019982350404006036,"train",16820.0,"2021-11-19 14:07:23.449071","","","","","","",""
15.0,0.038309842348098755,0.0019981343806813883,"train",16840.0,"2021-11-19 14:07:27.245686","","","","","","",""
15.0,0.037590302526950836,0.001998030932259205,"train",16860.0,"2021-11-19 14:07:30.726733","","","","","","",""
15.0,0.07307186722755432,0.0019979246954230823,"train",16880.0,"2021-11-19 14:07:34.211104","","","","","","",""
15.0,0.03917255625128746,0.0019978156704698363,"train",16900.0,"2021-11-19 14:07:37.748939","","","","","","",""
15.0,0.05358028784394264,0.001997703857704076,"train",16920.0,"2021-11-19 14:07:41.657243","","","","","","",""
15.0,0.0397162102162838,0.0019975892574381976,"train",16940.0,"2021-11-19 14:07:45.274712","","","","","","",""
15.0,0.05436629801988602,0.001997471869992386,"train",16960.0,"2021-11-19 14:07:48.886098","","","","","","",""
15.0,0.028583949431777,0.0019973516956946127,"train",16980.0,"2021-11-19 14:07:52.367919","","","","","","",""
15.0,0.058050092309713364,0.0019972287348806366,"train",17000.0,"2021-11-19 14:07:56.092585","","","","","","",""
15.0,0.03730978071689606,0.0019971029878940003,"train",17020.0,"2021-11-19 14:07:59.680524","","","","","","",""
15.0,0.045322317630052567,0.0019969744550860317,"train",17040.0,"2021-11-19 14:08:03.223717","","","","","","",""
15.0,0.031521838158369064,0.0019968431368158433,"train",17060.0,"2021-11-19 14:08:07.217540","","","","","","",""
15.0,0.050685375928878784,0.001996709033450327,"train",17080.0,"2021-11-19 14:08:10.798095","","","","","","",""
15.0,0.0585438497364521,0.0019965721453641585,"train",17100.0,"2021-11-19 14:08:14.363934","","","","","","",""
15.0,0.04610462486743927,0.0019964324729397935,"train",17120.0,"2021-11-19 14:08:17.919773","","","","","","",""
15.0,0.08053194731473923,0.0019962900165674657,"train",17140.0,"2021-11-19 14:08:21.772260","","","","","","",""
15.0,0.05866076052188873,0.0019961447766451887,"train",17160.0,"2021-11-19 14:08:25.343099","","","","","","",""
15.0,0.049470219761133194,0.001995996753578751,"train",17180.0,"2021-11-19 14:08:28.859226","","","","","","",""
15.0,"","","train",17184.0,"2021-11-19 14:10:13.660581",0.6384777705013461,0.6759472466296784,0.9619271101184389,0.6827379388554992,0.5735308926016272,0.5913795461762545,0.40379266138108716
15.0,"","","val",17184.0,"2021-11-19 14:10:43.858974",0.5953264525107271,0.5999112215463149,0.9472639584141441,0.6326793159502451,0.5192762533515424,0.5326612755588008,0.3447130345732257
16.0,0.050262123346328735,0.001995845947781719,"train",17200.0,"2021-11-19 14:10:51.354131","","","","","","",""
16.0,0.06882345676422119,0.001995692359675433,"train",17220.0,"2021-11-19 14:10:54.905283","","","","","","",""
16.0,0.0580589696764946,0.0019955359896890066,"train",17240.0,"2021-11-19 14:10:58.463073","","","","","","",""
16.0,0.06433655321598053,0.0019953768382593258,"train",17260.0,"2021-11-19 14:11:02.103643","","","","","","",""
16.0,0.07854790985584259,0.0019952149058310486,"train",17280.0,"2021-11-19 14:11:06.076491","","","","","","",""
16.0,0.051837023347616196,0.001995050192856602,"train",17300.0,"2021-11-19 14:11:09.715774","","","","","","",""
16.0,0.07030919194221497,0.001994882699796182,"train",17320.0,"2021-11-19 14:11:13.370640","","","","","","",""
16.0,0.0714484453201294,0.001994712427117752,"train",17340.0,"2021-11-19 14:11:17.012504","","","","","","",""
16.0,0.04521710425615311,0.0019945393752970413,"train",17360.0,"2021-11-19 14:11:20.930690","","","","","","",""
16.0,0.035886358469724655,0.001994363544817544,"train",17380.0,"2021-11-19 14:11:24.455018","","","","","","",""
16.0,0.04155295342206955,0.001994184936170517,"train",17400.0,"2021-11-19 14:11:28.028114","","","","","","",""
16.0,0.04904216155409813,0.0019940035498549804,"train",17420.0,"2021-11-19 14:11:32.005341","","","","","","",""
16.0,0.02731192298233509,0.0019938193863777145,"train",17440.0,"2021-11-19 14:11:35.642479","","","","","","",""
16.0,0.05088777095079422,0.001993632446253258,"train",17460.0,"2021-11-19 14:11:39.221070","","","","","","",""
16.0,0.041616540402173996,0.0019934427300039074,"train",17480.0,"2021-11-19 14:11:42.786987","","","","","","",""
16.0,0.030633853748440742,0.001993250238159717,"train",17500.0,"2021-11-19 14:11:46.600306","","","","","","",""
16.0,0.058254025876522064,0.0019930549712584944,"train",17520.0,"2021-11-19 14:11:50.136720","","","","","","",""
16.0,0.045652687549591064,0.001992856929845801,"train",17540.0,"2021-11-19 14:11:53.812845","","","","","","",""
16.0,0.04671855643391609,0.0019926561144749497,"train",17560.0,"2021-11-19 14:11:57.778616","","","","","","",""
16.0,0.053069815039634705,0.001992452525707004,"train",17580.0,"2021-11-19 14:12:01.447408","","","","","","",""
16.0,0.041096776723861694,0.0019922461641107767,"train",17600.0,"2021-11-19 14:12:05.135488","","","","","","",""
16.0,0.07075133174657822,0.001992037030262826,"train",17620.0,"2021-11-19 14:12:08.734692","","","","","","",""
16.0,0.03632450848817825,0.0019918251247474567,"train",17640.0,"2021-11-19 14:12:12.529332","","","","","","",""
16.0,0.07307169586420059,0.001991610448156718,"train",17660.0,"2021-11-19 14:12:16.096361","","","","","","",""
16.0,0.0532468743622303,0.0019913930010903996,"train",17680.0,"2021-11-19 14:12:19.607480","","","","","","",""
16.0,0.04736560210585594,0.001991172784156033,"train",17700.0,"2021-11-19 14:12:23.073633","","","","","","",""
16.0,0.062055353075265884,0.0019909497979688877,"train",17720.0,"2021-11-19 14:12:26.946745","","","","","","",""
16.0,0.035368047654628754,0.0019907240431519713,"train",17740.0,"2021-11-19 14:12:30.423246","","","","","","",""
16.0,0.04527115449309349,0.001990495520336026,"train",17760.0,"2021-11-19 14:12:33.919724","","","","","","",""
16.0,0.03454458341002464,0.0019902642301595284,"train",17780.0,"2021-11-19 14:12:37.759032","","","","","","",""
16.0,0.046272870153188705,0.001990030173268685,"train",17800.0,"2021-11-19 14:12:41.325756","","","","","","",""
16.0,0.06416793167591095,0.0019897933503174345,"train",17820.0,"2021-11-19 14:12:44.900880","","","","","","",""
16.0,0.02968146838247776,0.0019895537619674425,"train",17840.0,"2021-11-19 14:12:48.486346","","","","","","",""
16.0,0.06380963325500488,0.001989311408888101,"train",17860.0,"2021-11-19 14:12:52.374023","","","","","","",""
16.0,0.04148504137992859,0.001989066291756527,"train",17880.0,"2021-11-19 14:12:55.946483","","","","","","",""
16.0,0.046054162085056305,0.00198881841125756,"train",17900.0,"2021-11-19 14:12:59.490451","","","","","","",""
16.0,0.06646205484867096,0.0019885677680837595,"train",17920.0,"2021-11-19 14:13:03.317609","","","","","","",""
16.0,0.04527689889073372,0.001988314362935404,"train",17940.0,"2021-11-19 14:13:06.815367","","","","","","",""
16.0,0.07622368633747101,0.0019880581965204896,"train",17960.0,"2021-11-19 14:13:10.252050","","","","","","",""
16.0,0.04145089536905289,0.0019877992695547255,"train",17980.0,"2021-11-19 14:13:13.708793","","","","","","",""
16.0,0.058196745812892914,0.0019875375827615354,"train",18000.0,"2021-11-19 14:13:17.593621","","","","","","",""
16.0,0.05149741470813751,0.0019872731368720527,"train",18020.0,"2021-11-19 14:13:21.069454","","","","","","",""
16.0,0.04415377601981163,0.00198700593262512,"train",18040.0,"2021-11-19 14:13:24.615304","","","","","","",""
16.0,0.027835501357913017,0.001986735970767286,"train",18060.0,"2021-11-19 14:13:28.155831","","","","","","",""
16.0,0.031109604984521866,0.001986463252052804,"train",18080.0,"2021-11-19 14:13:32.070559","","","","","","",""
16.0,0.050000790506601334,0.0019861877772436305,"train",18100.0,"2021-11-19 14:13:35.687350","","","","","","",""
16.0,0.04515319690108299,0.001985909547109422,"train",18120.0,"2021-11-19 14:13:39.271204","","","","","","",""
16.0,0.048777610063552856,0.001985628562427533,"train",18140.0,"2021-11-19 14:13:43.208001","","","","","","",""
16.0,0.046731170266866684,0.001985344823983014,"train",18160.0,"2021-11-19 14:13:46.821664","","","","","","",""
16.0,0.04182647541165352,0.001985058332568609,"train",18180.0,"2021-11-19 14:13:50.418626","","","","","","",""
16.0,0.058468353003263474,0.001984769088984755,"train",18200.0,"2021-11-19 14:13:53.965994","","","","","","",""
16.0,0.03744649887084961,0.001984477094039576,"train",18220.0,"2021-11-19 14:13:57.830510","","","","","","",""
16.0,0.05013229325413704,0.001984182348548885,"train",18240.0,"2021-11-19 14:14:01.416880","","","","","","",""
16.0,"","","train",18258.0,"2021-11-19 14:15:45.798908",0.6544131557884013,0.6945909597704312,0.9646496959626852,0.6835590015084622,0.5776217202258219,0.6012163920887635,0.41314474794814493
16.0,"","","val",18258.0,"2021-11-19 14:16:14.284621",0.6081410182071205,0.6033967333542433,0.9483556359240244,0.6272018284086259,0.5181674705591176,0.5379544163035803,0.3465687064218823
17.0,0.05063809081912041,0.00198388485333618,"train",18260.0,"2021-11-19 14:16:18.942894","","","","","","",""
17.0,0.061784759163856506,0.0019835846092326396,"train",18280.0,"2021-11-19 14:16:22.975879","","","","","","",""
17.0,0.052198220044374466,0.0019832816170771246,"train",18300.0,"2021-11-19 14:16:26.548245","","","","","","",""
17.0,0.0413493849337101,0.001982975877716172,"train",18320.0,"2021-11-19 14:16:30.049207","","","","","","",""
17.0,0.03761560469865799,0.0019826673920039957,"train",18340.0,"2021-11-19 14:16:33.571016","","","","","","",""
17.0,0.0641142800450325,0.0019823561608024822,"train",18360.0,"2021-11-19 14:16:37.424405","","","","","","",""
17.0,0.05115608125925064,0.0019820421849811886,"train",18380.0,"2021-11-19 14:16:41.004368","","","","","","",""
17.0,0.0357096791267395,0.0019817254654173402,"train",18400.0,"2021-11-19 14:16:44.600326","","","","","","",""
17.0,0.06530899554491043,0.0019814060029958278,"train",18420.0,"2021-11-19 14:16:48.132571","","","","","","",""
17.0,0.06948637962341309,0.001981083798609206,"train",18440.0,"2021-11-19 14:16:52.043838","","","","","","",""
17.0,0.06723825633525848,0.0019807588531576908,"train",18460.0,"2021-11-19 14:16:55.586875","","","","","","",""
17.0,0.053201474249362946,0.0019804311675491555,"train",18480.0,"2021-11-19 14:16:59.098280","","","","","","",""
17.0,0.03393719717860222,0.00198010074269913,"train",18500.0,"2021-11-19 14:17:02.957338","","","","","","",""
17.0,0.06375386565923691,0.0019797675795307965,"train",18520.0,"2021-11-19 14:17:06.327505","","","","","","",""
17.0,0.04163825511932373,0.0019794316789749885,"train",18540.0,"2021-11-19 14:17:09.883798","","","","","","",""
17.0,0.03409809246659279,0.0019790930419701877,"train",18560.0,"2021-11-19 14:17:13.402406","","","","","","",""
17.0,0.05713529512286186,0.0019787516694625214,"train",18580.0,"2021-11-19 14:17:17.287127","","","","","","",""
17.0,0.06883207708597183,0.0019784075624057584,"train",18600.0,"2021-11-19 14:17:20.887207","","","","","","",""
17.0,0.06729922443628311,0.0019780607217613094,"train",18620.0,"2021-11-19 14:17:24.404107","","","","","","",""
17.0,0.04135231301188469,0.001977711148498221,"train",18640.0,"2021-11-19 14:17:28.208838","","","","","","",""
17.0,0.057892534881830215,0.0019773588435931756,"train",18660.0,"2021-11-19 14:17:31.724034","","","","","","",""
17.0,0.04145762696862221,0.0019770038080304873,"train",18680.0,"2021-11-19 14:17:35.241689","","","","","","",""
17.0,0.05095907673239708,0.001976646042802099,"train",18700.0,"2021-11-19 14:17:38.945242","","","","","","",""
17.0,0.030632566660642624,0.0019762855489075808,"train",18720.0,"2021-11-19 14:17:42.766364","","","","","","",""
17.0,0.04748779162764549,0.001975922327354126,"train",18740.0,"2021-11-19 14:17:46.322455","","","","","","",""
17.0,0.03979795053601265,0.001975556379156549,"train",18760.0,"2021-11-19 14:17:49.802907","","","","","","",""
17.0,0.04319199547171593,0.0019751877053372823,"train",18780.0,"2021-11-19 14:17:53.330507","","","","","","",""
17.0,0.06506805121898651,0.001974816306926373,"train",18800.0,"2021-11-19 14:17:57.143119","","","","","","",""
17.0,0.07144546508789062,0.001974442184961482,"train",18820.0,"2021-11-19 14:18:00.499471","","","","","","",""
17.0,0.05368197336792946,0.0019740653404878776,"train",18840.0,"2021-11-19 14:18:03.849480","","","","","","",""
17.0,0.038652438670396805,0.0019736857745584362,"train",18860.0,"2021-11-19 14:18:07.675998","","","","","","",""
17.0,0.03945546969771385,0.0019733034882336367,"train",18880.0,"2021-11-19 14:18:11.227841","","","","","","",""
17.0,0.03487392142415047,0.0019729184825815586,"train",18900.0,"2021-11-19 14:18:14.752562","","","","","","",""
17.0,0.05342357978224754,0.0019725307586778806,"train",18920.0,"2021-11-19 14:18:18.209284","","","","","","",""
17.0,0.07118109613656998,0.001972140317605874,"train",18940.0,"2021-11-19 14:18:22.023902","","","","","","",""
17.0,0.0361105315387249,0.0019717471604564028,"train",18960.0,"2021-11-19 14:18:25.623221","","","","","","",""
17.0,0.07185816764831543,0.0019713512883279185,"train",18980.0,"2021-11-19 14:18:29.263266","","","","","","",""
17.0,0.03687378764152527,0.00197095270232646,"train",19000.0,"2021-11-19 14:18:33.222512","","","","","","",""
17.0,0.07263509929180145,0.001970551403565646,"train",19020.0,"2021-11-19 14:18:36.798563","","","","","","",""
17.0,0.05120072141289711,0.0019701473931666765,"train",19040.0,"2021-11-19 14:18:40.432756","","","","","","",""
17.0,0.06095368042588234,0.001969740672258327,"train",19060.0,"2021-11-19 14:18:44.069640","","","","","","",""
17.0,0.038333505392074585,0.0019693312419769454,"train",19080.0,"2021-11-19 14:18:48.029428","","","","","","",""
17.0,0.04139847308397293,0.0019689191034664498,"train",19100.0,"2021-11-19 14:18:51.652821","","","","","","",""
17.0,0.039213694632053375,0.0019685042578783257,"train",19120.0,"2021-11-19 14:18:55.239032","","","","","","",""
17.0,0.05701841786503792,0.00196808670637162,"train",19140.0,"2021-11-19 14:18:58.829765","","","","","","",""
17.0,0.05181492865085602,0.001967666450112942,"train",19160.0,"2021-11-19 14:19:02.713616","","","","","","",""
17.0,0.03791384771466255,0.001967243490276456,"train",19180.0,"2021-11-19 14:19:06.248732","","","","","","",""
17.0,0.031076716259121895,0.0019668178280438818,"train",19200.0,"2021-11-19 14:19:09.722059","","","","","","",""
17.0,0.04950331151485443,0.0019663894646044875,"train",19220.0,"2021-11-19 14:19:13.536194","","","","","","",""
17.0,0.03967738896608353,0.001965958401155089,"train",19240.0,"2021-11-19 14:19:17.001411","","","","","","",""
17.0,0.037164438515901566,0.0019655246389000463,"train",19260.0,"2021-11-19 14:19:20.475476","","","","","","",""
17.0,0.06731761991977692,0.0019650881790512597,"train",19280.0,"2021-11-19 14:19:23.732347","","","","","","",""
17.0,0.04209403321146965,0.001964649022828165,"train",19300.0,"2021-11-19 14:19:27.519712","","","","","","",""
17.0,0.038557019084692,0.0019642071714577325,"train",19320.0,"2021-11-19 14:19:31.025560","","","","","","",""
17.0,"","","train",19332.0,"2021-11-19 14:21:14.171515",0.6704504111183875,0.7032927417194826,0.9670092227717452,0.7023450323221492,0.5911053514994294,0.6179709372085759,0.4278683118357124
17.0,"","","val",19332.0,"2021-11-19 14:21:42.557070",0.6203757393018671,0.614259411093866,0.9486842797221995,0.6431365969476437,0.5280547681896358,0.5486364390731173,0.3562466193029128
18.0,0.028113771229982376,0.0019637626261744634,"train",19340.0,"2021-11-19 14:21:48.205833","","","","","","",""
18.0,0.04228471964597702,0.001963315388220384,"train",19360.0,"2021-11-19 14:21:52.210804","","","","","","",""
18.0,0.02778100222349167,0.0019628654588450443,"train",19380.0,"2021-11-19 14:21:55.724938","","","","","","",""
18.0,0.03768543526530266,0.001962412839305514,"train",19400.0,"2021-11-19 14:21:59.262151","","","","","","",""
18.0,0.044047221541404724,0.0019619575308663785,"train",19420.0,"2021-11-19 14:22:02.732548","","","","","","",""
18.0,0.07332152873277664,0.001961499534799737,"train",19440.0,"2021-11-19 14:22:06.538044","","","","","","",""
18.0,0.04048764705657959,0.001961038852385196,"train",19460.0,"2021-11-19 14:22:10.123869","","","","","","",""
18.0,0.07172300666570663,0.0019605754849098683,"train",19480.0,"2021-11-19 14:22:13.733029","","","","","","",""
18.0,0.03319934383034706,0.0019601094336683693,"train",19500.0,"2021-11-19 14:22:17.692585","","","","","","",""
18.0,0.032722435891628265,0.0019596406999628116,"train",19520.0,"2021-11-19 14:22:21.389316","","","","","","",""
18.0,0.057157620787620544,0.0019591692851028022,"train",19540.0,"2021-11-19 14:22:24.966365","","","","","","",""
18.0,0.06413585692644119,0.001958695190405441,"train",19560.0,"2021-11-19 14:22:28.557258","","","","","","",""
18.0,0.04648779332637787,0.001958218417195312,"train",19580.0,"2021-11-19 14:22:32.395088","","","","","","",""
18.0,0.033650606870651245,0.001957738966804486,"train",19600.0,"2021-11-19 14:22:35.952080","","","","","","",""
18.0,0.06143739074468613,0.001957256840572511,"train",19620.0,"2021-11-19 14:22:39.498259","","","","","","",""
18.0,0.06472621113061905,0.0019567720398464133,"train",19640.0,"2021-11-19 14:22:42.991615","","","","","","",""
18.0,0.027678724378347397,0.00195628456598069,"train",19660.0,"2021-11-19 14:22:46.841917","","","","","","",""
18.0,0.04327218607068062,0.001955794420337307,"train",19680.0,"2021-11-19 14:22:50.320359","","","","","","",""
18.0,0.059492312371730804,0.0019553016042856957,"train",19700.0,"2021-11-19 14:22:53.775642","","","","","","",""
18.0,0.06099584698677063,0.001954806119202748,"train",19720.0,"2021-11-19 14:22:57.499456","","","","","","",""
18.0,0.03892434760928154,0.001954307966472812,"train",19740.0,"2021-11-19 14:23:01.023374","","","","","","",""
18.0,0.042887501418590546,0.0019538071474876914,"train",19760.0,"2021-11-19 14:23:04.623436","","","","","","",""
18.0,0.034272827208042145,0.001953303663646636,"train",19780.0,"2021-11-19 14:23:08.247290","","","","","","",""
18.0,0.056080110371112823,0.0019527975163563436,"train",19800.0,"2021-11-19 14:23:12.233420","","","","","","",""
18.0,0.03849853202700615,0.0019522887070309524,"train",19820.0,"2021-11-19 14:23:15.795668","","","","","","",""
18.0,0.05212927237153053,0.0019517772370920379,"train",19840.0,"2021-11-19 14:23:19.259824","","","","","","",""
18.0,0.05478256568312645,0.0019512631079686104,"train",19860.0,"2021-11-19 14:23:23.070834","","","","","","",""
18.0,0.06680774688720703,0.001950746321097108,"train",19880.0,"2021-11-19 14:23:26.616451","","","","","","",""
18.0,0.04393664747476578,0.0019502268779213957,"train",19900.0,"2021-11-19 14:23:30.138068","","","","","","",""
18.0,0.08793425559997559,0.0019497047798927598,"train",19920.0,"2021-11-19 14:23:33.725562","","","","","","",""
18.0,0.03582223877310753,0.001949180028469903,"train",19940.0,"2021-11-19 14:23:37.555037","","","","","","",""
18.0,0.03543766960501671,0.0019486526251189435,"train",19960.0,"2021-11-19 14:23:41.173225","","","","","","",""
18.0,0.033669255673885345,0.0019481225713134064,"train",19980.0,"2021-11-19 14:23:44.831546","","","","","","",""
18.0,0.038626041263341904,0.0019475898685342235,"train",20000.0,"2021-11-19 14:23:48.504892","","","","","","",""
18.0,0.0792124792933464,0.0019470545182697272,"train",20020.0,"2021-11-19 14:23:52.584975","","","","","","",""
18.0,0.03319335728883743,0.001946516522015647,"train",20040.0,"2021-11-19 14:23:56.255691","","","","","","",""
18.0,0.05813272297382355,0.0019459758812751047,"train",20060.0,"2021-11-19 14:23:59.863442","","","","","","",""
18.0,0.08523917198181152,0.0019454325975586106,"train",20080.0,"2021-11-19 14:24:03.776801","","","","","","",""
18.0,0.04188684746623039,0.0019448866723840602,"train",20100.0,"2021-11-19 14:24:07.292386","","","","","","",""
18.0,0.04600963369011879,0.001944338107276728,"train",20120.0,"2021-11-19 14:24:10.775343","","","","","","",""
18.0,0.06477286666631699,0.0019437869037692644,"train",20140.0,"2021-11-19 14:24:14.383732","","","","","","",""
18.0,0.040900010615587234,0.0019432330634016912,"train",20160.0,"2021-11-19 14:24:18.319803","","","","","","",""
18.0,0.0390375554561615,0.0019426765877213986,"train",20180.0,"2021-11-19 14:24:21.928962","","","","","","",""
18.0,0.0363326221704483,0.0019421174782831383,"train",20200.0,"2021-11-19 14:24:25.534572","","","","","","",""
18.0,0.06046577915549278,0.0019415557366490208,"train",20220.0,"2021-11-19 14:24:29.491325","","","","","","",""
