"epoch","loss","lr","part","step","time","accuracy","auprc","auroc","challenge_metric","f_beta_measure","f_measure","g_beta_measure"
0.0,0.1702139973640442,8.000730236035311e-05,"train",20.0,"2021-11-19 17:32:41.338603","","","","","","",""
0.0,0.13587269186973572,8.002920933031948e-05,"train",40.0,"2021-11-19 17:32:44.590554","","","","","","",""
0.0,0.15057681500911713,8.006572057662293e-05,"train",60.0,"2021-11-19 17:32:47.825149","","","","","","",""
0.0,0.12144766002893448,8.011683554380914e-05,"train",80.0,"2021-11-19 17:32:51.072589","","","","","","",""
0.0,0.11125796288251877,8.018255345425274e-05,"train",100.0,"2021-11-19 17:32:54.846597","","","","","","",""
0.0,0.11889467388391495,8.026287330817079e-05,"train",120.0,"2021-11-19 17:32:58.112752","","","","","","",""
0.0,0.11872683465480804,8.03577938836373e-05,"train",140.0,"2021-11-19 17:33:01.357086","","","","","","",""
0.0,0.12035170197486877,8.04673137366021e-05,"train",160.0,"2021-11-19 17:33:04.619970","","","","","","",""
0.0,0.10019935667514801,8.059143120091187e-05,"train",180.0,"2021-11-19 17:33:08.465294","","","","","","",""
0.0,0.09691359847784042,8.073014438833613e-05,"train",200.0,"2021-11-19 17:33:11.862900","","","","","","",""
0.0,0.11768260598182678,8.088345118859724e-05,"train",220.0,"2021-11-19 17:33:15.129613","","","","","","",""
0.0,0.1204686090350151,8.10513492693996e-05,"train",240.0,"2021-11-19 17:33:18.351391","","","","","","",""
0.0,0.09102458506822586,8.123383607646804e-05,"train",260.0,"2021-11-19 17:33:22.038985","","","","","","",""
0.0,0.1323675513267517,8.143090883358495e-05,"train",280.0,"2021-11-19 17:33:25.200290","","","","","","",""
0.0,0.10395568609237671,8.164256454263295e-05,"train",300.0,"2021-11-19 17:33:28.404832","","","","","","",""
0.0,0.10471472144126892,8.186879998364088e-05,"train",320.0,"2021-11-19 17:33:31.610344","","","","","","",""
0.0,0.09761165827512741,8.210961171483213e-05,"train",340.0,"2021-11-19 17:33:35.287726","","","","","","",""
0.0,0.10054508596658707,8.236499607267717e-05,"train",360.0,"2021-11-19 17:33:38.467316","","","","","","",""
0.0,0.10351201891899109,8.26349491719505e-05,"train",380.0,"2021-11-19 17:33:41.651808","","","","","","",""
0.0,0.10441412031650543,8.291946690578713e-05,"train",400.0,"2021-11-19 17:33:44.796444","","","","","","",""
0.0,0.11621348559856415,8.321854494574774e-05,"train",420.0,"2021-11-19 17:33:48.418604","","","","","","",""
0.0,0.1019943356513977,8.353217874188293e-05,"train",440.0,"2021-11-19 17:33:51.606895","","","","","","",""
0.0,0.09825402498245239,8.38603635228035e-05,"train",460.0,"2021-11-19 17:33:54.809111","","","","","","",""
0.0,0.09563945233821869,8.420309429575212e-05,"train",480.0,"2021-11-19 17:33:58.009394","","","","","","",""
0.0,0.10368408262729645,8.456036584667914e-05,"train",500.0,"2021-11-19 17:34:01.602319","","","","","","",""
0.0,0.10040273517370224,8.493217274032315e-05,"train",520.0,"2021-11-19 17:34:04.756383","","","","","","",""
0.0,0.11522368341684341,8.531850932029235e-05,"train",540.0,"2021-11-19 17:34:07.932871","","","","","","",""
0.0,0.08584202826023102,8.571936970915212e-05,"train",560.0,"2021-11-19 17:34:11.163092","","","","","","",""
0.0,0.1077284887433052,8.613474780851246e-05,"train",580.0,"2021-11-19 17:34:14.820543","","","","","","",""
0.0,0.08729994297027588,8.656463729912224e-05,"train",600.0,"2021-11-19 17:34:18.038021","","","","","","",""
0.0,0.09313465654850006,8.700903164096468e-05,"train",620.0,"2021-11-19 17:34:21.266064","","","","","","",""
0.0,0.09600204974412918,8.746792407335769e-05,"train",640.0,"2021-11-19 17:34:24.425503","","","","","","",""
0.0,0.09652673453092575,8.794130761505497e-05,"train",660.0,"2021-11-19 17:34:28.063730","","","","","","",""
0.0,0.09784767031669617,8.842917506435462e-05,"train",680.0,"2021-11-19 17:34:31.176766","","","","","","",""
0.0,0.0971246287226677,8.893151899920645e-05,"train",700.0,"2021-11-19 17:34:34.339049","","","","","","",""
0.0,0.10563049465417862,8.944833177732632e-05,"train",720.0,"2021-11-19 17:34:37.521914","","","","","","",""
0.0,0.09288869798183441,8.997960553631186e-05,"train",740.0,"2021-11-19 17:34:41.225416","","","","","","",""
0.0,0.09930978715419769,9.052533219376224e-05,"train",760.0,"2021-11-19 17:34:44.452227","","","","","","",""
0.0,0.10860540717840195,9.108550344740104e-05,"train",780.0,"2021-11-19 17:34:47.721871","","","","","","",""
0.0,0.09996651858091354,9.166011077520208e-05,"train",800.0,"2021-11-19 17:34:50.971691","","","","","","",""
0.0,0.0876101553440094,9.224914543552059e-05,"train",820.0,"2021-11-19 17:34:54.663395","","","","","","",""
0.0,0.11378723382949829,9.285259846722417e-05,"train",840.0,"2021-11-19 17:34:57.887669","","","","","","",""
0.0,0.10329164564609528,9.34704606898307e-05,"train",860.0,"2021-11-19 17:35:01.057571","","","","","","",""
0.0,0.08919968456029892,9.410272270364735e-05,"train",880.0,"2021-11-19 17:35:04.193677","","","","","","",""
0.0,0.09406731277704239,9.474937488991348e-05,"train",900.0,"2021-11-19 17:35:07.837712","","","","","","",""
0.0,0.08739175647497177,9.541040741094719e-05,"train",920.0,"2021-11-19 17:35:11.010701","","","","","","",""
0.0,0.10779724270105362,9.608581021029522e-05,"train",940.0,"2021-11-19 17:35:14.190623","","","","","","",""
0.0,0.0818895772099495,9.677557301288509e-05,"train",960.0,"2021-11-19 17:35:17.361043","","","","","","",""
0.0,0.07846389710903168,9.747968532518238e-05,"train",980.0,"2021-11-19 17:35:20.987577","","","","","","",""
0.0,0.08216823637485504,9.819813643535029e-05,"train",1000.0,"2021-11-19 17:35:24.169427","","","","","","",""
0.0,0.10584099590778351,9.893091541341185e-05,"train",1020.0,"2021-11-19 17:35:27.380821","","","","","","",""
0.0,0.08749093115329742,9.967801111141644e-05,"train",1040.0,"2021-11-19 17:35:30.668228","","","","","","",""
0.0,0.09263168275356293,0.00010043941216361023,"train",1060.0,"2021-11-19 17:35:34.397135","","","","","","",""
0.0,"","","train",1074.0,"2021-11-19 17:37:26.215566",0.4252928763734265,0.314227626433977,0.8454534583735464,0.38857361863219075,0.23296910932632675,0.23367779051274915,0.14606548055233798
0.0,"","","val",1074.0,"2021-11-19 17:37:57.668759",0.42404035718427463,0.3122159507321197,0.8390848871486395,0.3866863432397808,0.23345928317049477,0.23245095512451702,0.14470082433137457
1.0,0.07848823070526123,0.00010121510698660771,"train",1080.0,"2021-11-19 17:38:02.835434","","","","","","",""
1.0,0.08461141586303711,0.00010200508377956928,"train",1100.0,"2021-11-19 17:38:06.199279","","","","","","",""
1.0,0.08337345719337463,0.00010280933052437993,"train",1120.0,"2021-11-19 17:38:09.582612","","","","","","",""
1.0,0.10508660227060318,0.00010362783498583223,"train",1140.0,"2021-11-19 17:38:13.473286","","","","","","",""
1.0,0.1048172116279602,0.0001044605847118124,"train",1160.0,"2021-11-19 17:38:16.843137","","","","","","",""
1.0,0.09051880240440369,0.0001053075670334907,"train",1180.0,"2021-11-19 17:38:20.151221","","","","","","",""
1.0,0.07819826900959015,0.00010616876906551181,"train",1200.0,"2021-11-19 17:38:23.440071","","","","","","",""
1.0,0.08962829411029816,0.0001070441777061941,"train",1220.0,"2021-11-19 17:38:26.810281","","","","","","",""
1.0,0.07706111669540405,0.00010793377963772563,"train",1240.0,"2021-11-19 17:38:30.612810","","","","","","",""
1.0,0.10516311973333359,0.0001088375613263698,"train",1260.0,"2021-11-19 17:38:33.868105","","","","","","",""
1.0,0.09405618906021118,0.00010975550902266908,"train",1280.0,"2021-11-19 17:38:37.053648","","","","","","",""
1.0,0.08182905614376068,0.00011068760876165474,"train",1300.0,"2021-11-19 17:38:40.229079","","","","","","",""
1.0,0.09005171060562134,0.0001116338463630598,"train",1320.0,"2021-11-19 17:38:43.432694","","","","","","",""
1.0,0.10384685546159744,0.00011259420743153455,"train",1340.0,"2021-11-19 17:38:46.990627","","","","","","",""
1.0,0.08701279014348984,0.00011356867735686535,"train",1360.0,"2021-11-19 17:38:50.189618","","","","","","",""
1.0,0.07390226423740387,0.00011455724131419621,"train",1380.0,"2021-11-19 17:38:53.419765","","","","","","",""
1.0,0.09747752547264099,0.00011555988426425654,"train",1400.0,"2021-11-19 17:38:56.775688","","","","","","",""
1.0,0.0874362587928772,0.00011657659095358746,"train",1420.0,"2021-11-19 17:39:00.514109","","","","","","",""
1.0,0.08722490072250366,0.00011760734591477516,"train",1440.0,"2021-11-19 17:39:03.787735","","","","","","",""
1.0,0.1071387231349945,0.00011865213346668618,"train",1460.0,"2021-11-19 17:39:07.047891","","","","","","",""
1.0,0.09232655167579651,0.00011971093771470502,"train",1480.0,"2021-11-19 17:39:10.272798","","","","","","",""
1.0,0.07243533432483673,0.0001207837425509777,"train",1500.0,"2021-11-19 17:39:13.601018","","","","","","",""
1.0,0.08252854645252228,0.00012187053165465503,"train",1520.0,"2021-11-19 17:39:17.401205","","","","","","",""
1.0,0.08782396465539932,0.000122971288492142,"train",1540.0,"2021-11-19 17:39:20.671871","","","","","","",""
1.0,0.08476125448942184,0.00012408599631734863,"train",1560.0,"2021-11-19 17:39:23.852794","","","","","","",""
1.0,0.09330452978610992,0.00012521463817194542,"train",1580.0,"2021-11-19 17:39:27.070540","","","","","","",""
1.0,0.07224947959184647,0.00012635719688562077,"train",1600.0,"2021-11-19 17:39:30.299849","","","","","","",""
1.0,0.10486344248056412,0.00012751365507634267,"train",1620.0,"2021-11-19 17:39:34.136285","","","","","","",""
1.0,0.0956890806555748,0.0001286839951506226,"train",1640.0,"2021-11-19 17:39:37.403129","","","","","","",""
1.0,0.08879338949918747,0.00012986819930378333,"train",1660.0,"2021-11-19 17:39:40.634480","","","","","","",""
1.0,0.0913928672671318,0.00013106624952023064,"train",1680.0,"2021-11-19 17:39:43.849348","","","","","","",""
1.0,0.08657024800777435,0.00013227812757372545,"train",1700.0,"2021-11-19 17:39:47.072290","","","","","","",""
1.0,0.08495259284973145,0.00013350381502766394,"train",1720.0,"2021-11-19 17:39:50.778570","","","","","","",""
1.0,0.09565753489732742,0.00013474329323535494,"train",1740.0,"2021-11-19 17:39:54.001939","","","","","","",""
1.0,0.07291590422391891,0.0001359965433403059,"train",1760.0,"2021-11-19 17:39:57.280150","","","","","","",""
1.0,0.07924280315637589,0.00013726354627650872,"train",1780.0,"2021-11-19 17:40:00.567580","","","","","","",""
1.0,0.08625278621912003,0.00013854428276873052,"train",1800.0,"2021-11-19 17:40:03.804224","","","","","","",""
1.0,0.07894718647003174,0.00013983873333280506,"train",1820.0,"2021-11-19 17:40:07.493749","","","","","","",""
1.0,0.06418247520923615,0.00014114687827593156,"train",1840.0,"2021-11-19 17:40:10.717223","","","","","","",""
1.0,0.0723508819937706,0.00014246869769697352,"train",1860.0,"2021-11-19 17:40:13.950306","","","","","","",""
1.0,0.0917813777923584,0.00014380417148676054,"train",1880.0,"2021-11-19 17:40:17.139461","","","","","","",""
1.0,0.08292233943939209,0.00014515327932839404,"train",1900.0,"2021-11-19 17:40:20.895440","","","","","","",""
1.0,0.06856489181518555,0.0001465160006975598,"train",1920.0,"2021-11-19 17:40:24.161937","","","","","","",""
1.0,0.08487798273563385,0.00014789231486283454,"train",1940.0,"2021-11-19 17:40:27.409052","","","","","","",""
1.0,0.08777812123298645,0.00014928220088600633,"train",1960.0,"2021-11-19 17:40:30.586443","","","","","","",""
1.0,0.08382108062505722,0.00015068563762239045,"train",1980.0,"2021-11-19 17:40:33.694286","","","","","","",""
1.0,0.07531026750802994,0.00015210260372115238,"train",2000.0,"2021-11-19 17:40:37.342202","","","","","","",""
1.0,0.06338734179735184,0.00015353307762563115,"train",2020.0,"2021-11-19 17:40:40.593063","","","","","","",""
1.0,0.06845039129257202,0.00015497703757366872,"train",2040.0,"2021-11-19 17:40:43.829217","","","","","","",""
1.0,0.08693240582942963,0.00015643446159794,"train",2060.0,"2021-11-19 17:40:47.110549","","","","","","",""
1.0,0.07564093917608261,0.0001579053275262887,"train",2080.0,"2021-11-19 17:40:50.310134","","","","","","",""
1.0,0.07689157128334045,0.00015938961298206183,"train",2100.0,"2021-11-19 17:40:54.009133","","","","","","",""
1.0,0.07153842598199844,0.00016088729538445297,"train",2120.0,"2021-11-19 17:40:57.223084","","","","","","",""
1.0,0.06537186354398727,0.000162398351948844,"train",2140.0,"2021-11-19 17:41:00.532425","","","","","","",""
1.0,"","","train",2148.0,"2021-11-19 17:42:46.014494",0.47768318416648475,0.40152987494583914,0.8986142207277225,0.44862197911303126,0.3095522022570927,0.30814674706869816,0.20301131711375014
1.0,"","","val",2148.0,"2021-11-19 17:43:17.140708",0.47367505508523716,0.39217370776997035,0.8911498072789125,0.43988151311466855,0.30552083199950036,0.3013797142021865,0.198847382786359
2.0,0.09740230441093445,0.00016392275968715297,"train",2160.0,"2021-11-19 17:43:23.198911","","","","","","",""
2.0,0.1108151450753212,0.00016546049540818223,"train",2180.0,"2021-11-19 17:43:27.020183","","","","","","",""
2.0,0.0691557303071022,0.00016701153571797313,"train",2200.0,"2021-11-19 17:43:30.261213","","","","","","",""
2.0,0.05489732697606087,0.00016857585702016015,"train",2220.0,"2021-11-19 17:43:33.594646","","","","","","",""
2.0,0.06402411311864853,0.00017015343551633126,"train",2240.0,"2021-11-19 17:43:36.882512","","","","","","",""
2.0,0.08108371496200562,0.0001717442472063892,"train",2260.0,"2021-11-19 17:43:40.674051","","","","","","",""
2.0,0.0716397687792778,0.00017334826788891681,"train",2280.0,"2021-11-19 17:43:43.962177","","","","","","",""
2.0,0.0778016671538353,0.00017496547316154555,"train",2300.0,"2021-11-19 17:43:47.286533","","","","","","",""
2.0,0.07563295215368271,0.00017659583842132573,"train",2320.0,"2021-11-19 17:43:50.534682","","","","","","",""
2.0,0.059619832783937454,0.00017823933886510217,"train",2340.0,"2021-11-19 17:43:54.279102","","","","","","",""
2.0,0.09271804243326187,0.00017989594948989015,"train",2360.0,"2021-11-19 17:43:57.594569","","","","","","",""
2.0,0.06357844173908234,0.00018156564509325753,"train",2380.0,"2021-11-19 17:44:00.870780","","","","","","",""
2.0,0.0737253949046135,0.0001832484002737059,"train",2400.0,"2021-11-19 17:44:04.157014","","","","","","",""
2.0,0.04792675003409386,0.00018494418943105877,"train",2420.0,"2021-11-19 17:44:07.856879","","","","","","",""
2.0,0.0736045241355896,0.00018665298676685078,"train",2440.0,"2021-11-19 17:44:11.124435","","","","","","",""
2.0,0.07371168583631516,0.0001883747662847191,"train",2460.0,"2021-11-19 17:44:14.375732","","","","","","",""
2.0,0.07776779681444168,0.00019010950179080112,"train",2480.0,"2021-11-19 17:44:17.667227","","","","","","",""
2.0,0.07056477665901184,0.00019185716689412995,"train",2500.0,"2021-11-19 17:44:21.419118","","","","","","",""
2.0,0.06998677551746368,0.00019361773500703797,"train",2520.0,"2021-11-19 17:44:24.709100","","","","","","",""
2.0,0.06608066707849503,0.00019539117934556168,"train",2540.0,"2021-11-19 17:44:28.272386","","","","","","",""
2.0,0.07900097966194153,0.00019717747292984696,"train",2560.0,"2021-11-19 17:44:31.698814","","","","","","",""
2.0,0.07667519897222519,0.0001989765885845624,"train",2580.0,"2021-11-19 17:44:35.496118","","","","","","",""
2.0,0.06146613508462906,0.00020078849893931014,"train",2600.0,"2021-11-19 17:44:38.866384","","","","","","",""
2.0,0.06746059656143188,0.0002026131764290434,"train",2620.0,"2021-11-19 17:44:42.124370","","","","","","",""
2.0,0.06420423090457916,0.00020445059329448614,"train",2640.0,"2021-11-19 17:44:45.170946","","","","","","",""
2.0,0.06055714935064316,0.00020630072158255497,"train",2660.0,"2021-11-19 17:44:48.852240","","","","","","",""
2.0,0.07909221202135086,0.00020816353314678467,"train",2680.0,"2021-11-19 17:44:52.166469","","","","","","",""
2.0,0.06895766407251358,0.00021003899964775505,"train",2700.0,"2021-11-19 17:44:55.424936","","","","","","",""
2.0,0.0679498165845871,0.00021192709255352473,"train",2720.0,"2021-11-19 17:44:58.723672","","","","","","",""
2.0,0.07442466169595718,0.00021382778314006255,"train",2740.0,"2021-11-19 17:45:02.465135","","","","","","",""
2.0,0.09831903129816055,0.00021574104249168615,"train",2760.0,"2021-11-19 17:45:05.810740","","","","","","",""
2.0,0.07115111500024796,0.00021766684150150133,"train",2780.0,"2021-11-19 17:45:09.105244","","","","","","",""
2.0,0.10046929866075516,0.00021960515087184485,"train",2800.0,"2021-11-19 17:45:12.343286","","","","","","",""
2.0,0.07704921066761017,0.00022155594111472978,"train",2820.0,"2021-11-19 17:45:16.022581","","","","","","",""
2.0,0.08829318732023239,0.0002235191825522959,"train",2840.0,"2021-11-19 17:45:19.242643","","","","","","",""
2.0,0.07442016154527664,0.00022549484531725838,"train",2860.0,"2021-11-19 17:45:22.500829","","","","","","",""
2.0,0.06217574328184128,0.00022748289935336434,"train",2880.0,"2021-11-19 17:45:25.752089","","","","","","",""
2.0,0.07278704643249512,0.00022948331441584964,"train",2900.0,"2021-11-19 17:45:29.479491","","","","","","",""
2.0,0.06800436973571777,0.00023149606007189785,"train",2920.0,"2021-11-19 17:45:32.741111","","","","","","",""
2.0,0.06858953833580017,0.00023352110570110476,"train",2940.0,"2021-11-19 17:45:35.996779","","","","","","",""
2.0,0.06811147928237915,0.00023555842049594305,"train",2960.0,"2021-11-19 17:45:39.287123","","","","","","",""
2.0,0.06521441787481308,0.00023760797346223305,"train",2980.0,"2021-11-19 17:45:43.104792","","","","","","",""
2.0,0.07415658235549927,0.00023966973341961028,"train",3000.0,"2021-11-19 17:45:46.438546","","","","","","",""
2.0,0.06887362897396088,0.0002417436690020044,"train",3020.0,"2021-11-19 17:45:49.700498","","","","","","",""
2.0,0.0849083811044693,0.00024382974865811325,"train",3040.0,"2021-11-19 17:45:52.961687","","","","","","",""
2.0,0.06282747536897659,0.000245927940651884,"train",3060.0,"2021-11-19 17:45:56.688939","","","","","","",""
2.0,0.07888125628232956,0.0002480382130629953,"train",3080.0,"2021-11-19 17:45:59.946531","","","","","","",""
2.0,0.06324812024831772,0.0002501605337873443,"train",3100.0,"2021-11-19 17:46:03.230358","","","","","","",""
2.0,0.07204762101173401,0.0002522948705375337,"train",3120.0,"2021-11-19 17:46:06.541497","","","","","","",""
2.0,0.08696887642145157,0.00025444119084336303,"train",3140.0,"2021-11-19 17:46:10.259427","","","","","","",""
2.0,0.0752834901213646,0.00025659946205232364,"train",3160.0,"2021-11-19 17:46:13.488936","","","","","","",""
2.0,0.08048633486032486,0.0002587696513300941,"train",3180.0,"2021-11-19 17:46:16.731001","","","","","","",""
2.0,0.07254631817340851,0.0002609517256610412,"train",3200.0,"2021-11-19 17:46:19.953092","","","","","","",""
2.0,0.08144222944974899,0.00026314565184872084,"train",3220.0,"2021-11-19 17:46:23.634194","","","","","","",""
2.0,"","","train",3222.0,"2021-11-19 17:48:07.003435",0.506672487811977,0.45867202781698246,0.9191437013256872,0.49166057571605004,0.33570128860934767,0.3416553066934719,0.22668926847664933
2.0,"","","val",3222.0,"2021-11-19 17:48:37.526444",0.5035950365302099,0.44130997554579765,0.9112130988987699,0.4833999240230188,0.33083697077027635,0.33328263197062513,0.22089051447495225
3.0,0.0733725056052208,0.0002653513965163838,"train",3240.0,"2021-11-19 17:48:44.798774","","","","","","",""
3.0,0.09472090750932693,0.0002675689261074836,"train",3260.0,"2021-11-19 17:48:48.077948","","","","","","",""
3.0,0.061445679515600204,0.00026979820688618605,"train",3280.0,"2021-11-19 17:48:51.373476","","","","","","",""
3.0,0.07036399096250534,0.00027203920493788433,"train",3300.0,"2021-11-19 17:48:54.677330","","","","","","",""
3.0,0.062350668013095856,0.00027429188616971277,"train",3320.0,"2021-11-19 17:48:57.961574","","","","","","",""
3.0,0.0701872706413269,0.0002765562163110668,"train",3340.0,"2021-11-19 17:49:01.754793","","","","","","",""
3.0,0.09599064290523529,0.00027883216091412503,"train",3360.0,"2021-11-19 17:49:05.058106","","","","","","",""
3.0,0.07272384315729141,0.0002811196853543707,"train",3380.0,"2021-11-19 17:49:08.329391","","","","","","",""
3.0,0.058156006038188934,0.00028341875483112134,"train",3400.0,"2021-11-19 17:49:11.599551","","","","","","",""
3.0,0.05242901295423508,0.00028572933436805644,"train",3420.0,"2021-11-19 17:49:14.925978","","","","","","",""
3.0,0.09058951586484909,0.0002880513888137504,"train",3440.0,"2021-11-19 17:49:18.239311","","","","","","",""
3.0,0.06748411059379578,0.0002903848828422063,"train",3460.0,"2021-11-19 17:49:21.980298","","","","","","",""
3.0,0.06880688667297363,0.00029272978095339465,"train",3480.0,"2021-11-19 17:49:25.292061","","","","","","",""
3.0,0.07870087772607803,0.00029508604747379243,"train",3500.0,"2021-11-19 17:49:28.534515","","","","","","",""
3.0,0.08318809419870377,0.00029745364655692653,"train",3520.0,"2021-11-19 17:49:31.791957","","","","","","",""
3.0,0.05001368001103401,0.0002998325421839181,"train",3540.0,"2021-11-19 17:49:35.089471","","","","","","",""
3.0,0.07284843921661377,0.0003022226981640318,"train",3560.0,"2021-11-19 17:49:38.403573","","","","","","",""
3.0,0.07474981248378754,0.00030462407813522494,"train",3580.0,"2021-11-19 17:49:42.274906","","","","","","",""
3.0,0.07739252597093582,0.0003070366455647027,"train",3600.0,"2021-11-19 17:49:45.737843","","","","","","",""
3.0,0.062371622771024704,0.000309460363749471,"train",3620.0,"2021-11-19 17:49:49.153110","","","","","","",""
3.0,0.06927704066038132,0.0003118951958168978,"train",3640.0,"2021-11-19 17:49:52.474816","","","","","","",""
3.0,0.06622204929590225,0.0003143411047252722,"train",3660.0,"2021-11-19 17:49:55.725742","","","","","","",""
3.0,0.06105254590511322,0.0003167980532643691,"train",3680.0,"2021-11-19 17:49:58.888579","","","","","","",""
3.0,0.07810690999031067,0.0003192660040560141,"train",3700.0,"2021-11-19 17:50:02.566007","","","","","","",""
3.0,0.07025602459907532,0.0003217449195546528,"train",3720.0,"2021-11-19 17:50:05.682715","","","","","","",""
3.0,0.06730575859546661,0.00032423476204792244,"train",3740.0,"2021-11-19 17:50:08.820134","","","","","","",""
3.0,0.06973600387573242,0.0003267354936572248,"train",3760.0,"2021-11-19 17:50:12.025324","","","","","","",""
3.0,0.06928599625825882,0.0003292470763383026,"train",3780.0,"2021-11-19 17:50:15.261476","","","","","","",""
3.0,0.05874175205826759,0.0003317694718818192,"train",3800.0,"2021-11-19 17:50:18.542174","","","","","","",""
3.0,0.085645891726017,0.00033430264191393853,"train",3820.0,"2021-11-19 17:50:22.259598","","","","","","",""
3.0,0.05923144891858101,0.0003368465478969097,"train",3840.0,"2021-11-19 17:50:25.512411","","","","","","",""
3.0,0.07516676187515259,0.0003394011511296533,"train",3860.0,"2021-11-19 17:50:28.762779","","","","","","",""
3.0,0.06551150977611542,0.0003419664127483496,"train",3880.0,"2021-11-19 17:50:31.971290","","","","","","",""
3.0,0.09434826672077179,0.00034454229372703074,"train",3900.0,"2021-11-19 17:50:35.159506","","","","","","",""
3.0,0.0822874903678894,0.00034712875487817314,"train",3920.0,"2021-11-19 17:50:38.325201","","","","","","",""
3.0,0.09259457886219025,0.00034972575685329526,"train",3940.0,"2021-11-19 17:50:41.962477","","","","","","",""
3.0,0.06072186306118965,0.0003523332601435541,"train",3960.0,"2021-11-19 17:50:45.204415","","","","","","",""
3.0,0.04897087812423706,0.00035495122508034916,"train",3980.0,"2021-11-19 17:50:48.398629","","","","","","",""
3.0,0.05938605219125748,0.0003575796118359231,"train",4000.0,"2021-11-19 17:50:51.573156","","","","","","",""
3.0,0.05968108028173447,0.00036021838042396906,"train",4020.0,"2021-11-19 17:50:54.787054","","","","","","",""
3.0,0.07103246450424194,0.0003628674907002389,"train",4040.0,"2021-11-19 17:50:58.518952","","","","","","",""
3.0,0.06685464084148407,0.00036552690236315395,"train",4060.0,"2021-11-19 17:51:01.515521","","","","","","",""
3.0,0.07678885757923126,0.00036819657495441773,"train",4080.0,"2021-11-19 17:51:04.769977","","","","","","",""
3.0,0.05074121430516243,0.0003708764678596317,"train",4100.0,"2021-11-19 17:51:08.038271","","","","","","",""
3.0,0.07275627553462982,0.00037356654030891293,"train",4120.0,"2021-11-19 17:51:11.232903","","","","","","",""
3.0,0.07908755540847778,0.0003762667513775148,"train",4140.0,"2021-11-19 17:51:14.430038","","","","","","",""
3.0,0.05163180083036423,0.0003789770599864498,"train",4160.0,"2021-11-19 17:51:18.140272","","","","","","",""
3.0,0.07915526628494263,0.000381697424903113,"train",4180.0,"2021-11-19 17:51:21.411637","","","","","","",""
3.0,0.053772035986185074,0.0003844278047419108,"train",4200.0,"2021-11-19 17:51:24.636078","","","","","","",""
3.0,0.05151143670082092,0.0003871681579648903,"train",4220.0,"2021-11-19 17:51:27.858967","","","","","","",""
3.0,0.0662459135055542,0.0003899184428823709,"train",4240.0,"2021-11-19 17:51:31.099463","","","","","","",""
3.0,0.06846177577972412,0.0003926786176535783,"train",4260.0,"2021-11-19 17:51:34.336311","","","","","","",""
3.0,0.08572307974100113,0.0003954486402872818,"train",4280.0,"2021-11-19 17:51:38.041201","","","","","","",""
3.0,"","","train",4296.0,"2021-11-19 17:53:30.128220",0.5403769191588444,0.5076150840483646,0.9328530232477884,0.5196777715322978,0.3667724420014463,0.3770926781509941,0.248561115601192
3.0,"","","val",4296.0,"2021-11-19 17:54:00.421737",0.5298619969848081,0.4889662489248889,0.9258690670649207,0.5043600677779806,0.3561287544883227,0.36393218419585394,0.23500329506373419
4.0,0.06484755873680115,0.0003982284686424324,"train",4300.0,"2021-11-19 17:54:05.233070","","","","","","",""
4.0,0.061654385179281235,0.0004010180604288045,"train",4320.0,"2021-11-19 17:54:08.629008","","","","","","",""
4.0,0.06006696820259094,0.00040381737320763873,"train",4340.0,"2021-11-19 17:54:11.921607","","","","","","",""
4.0,0.08465633541345596,0.0004066263643922878,"train",4360.0,"2021-11-19 17:54:15.246432","","","","","","",""
4.0,0.04378935322165489,0.0004094449912488646,"train",4380.0,"2021-11-19 17:54:19.117237","","","","","","",""
4.0,0.05062214285135269,0.0004122732108968923,"train",4400.0,"2021-11-19 17:54:22.400229","","","","","","",""
4.0,0.0732554942369461,0.0004151109803099558,"train",4420.0,"2021-11-19 17:54:25.631200","","","","","","",""
4.0,0.0477236807346344,0.00041795825631635764,"train",4440.0,"2021-11-19 17:54:28.824327","","","","","","",""
4.0,0.07452114671468735,0.0004208149955997739,"train",4460.0,"2021-11-19 17:54:32.044915","","","","","","",""
4.0,0.05337617173790932,0.0004236811546999141,"train",4480.0,"2021-11-19 17:54:35.719558","","","","","","",""
4.0,0.052501749247312546,0.0004265566900131805,"train",4500.0,"2021-11-19 17:54:38.947070","","","","","","",""
4.0,0.04556172341108322,0.0004294415577933337,"train",4520.0,"2021-11-19 17:54:42.155141","","","","","","",""
4.0,0.060156192630529404,0.00043233571415215717,"train",4540.0,"2021-11-19 17:54:45.359385","","","","","","",""
4.0,0.08040450513362885,0.0004352391150601242,"train",4560.0,"2021-11-19 17:54:48.599263","","","","","","",""
4.0,0.05477991700172424,0.0004381517163470684,"train",4580.0,"2021-11-19 17:54:52.328701","","","","","","",""
4.0,0.05148686096072197,0.00044107347370285683,"train",4600.0,"2021-11-19 17:54:55.602171","","","","","","",""
4.0,0.06481439620256424,0.00044400434267806194,"train",4620.0,"2021-11-19 17:54:58.857281","","","","","","",""
4.0,0.04834480583667755,0.00044694427868463907,"train",4640.0,"2021-11-19 17:55:02.123052","","","","","","",""
4.0,0.06050855666399002,0.00044989323699660467,"train",4660.0,"2021-11-19 17:55:05.358480","","","","","","",""
4.0,0.0666728988289833,0.0004528511727507165,"train",4680.0,"2021-11-19 17:55:09.083621","","","","","","",""
4.0,0.06566799432039261,0.00045581804094715645,"train",4700.0,"2021-11-19 17:55:12.325280","","","","","","",""
4.0,0.06768743693828583,0.00045879379645021425,"train",4720.0,"2021-11-19 17:55:15.547648","","","","","","",""
4.0,0.0969925969839096,0.0004617783939889759,"train",4740.0,"2021-11-19 17:55:18.771708","","","","","","",""
4.0,0.08773475885391235,0.0004647717881580103,"train",4760.0,"2021-11-19 17:55:22.435842","","","","","","",""
4.0,0.10675444453954697,0.0004677739334180617,"train",4780.0,"2021-11-19 17:55:25.603224","","","","","","",""
4.0,0.05254271626472473,0.00047078478409674144,"train",4800.0,"2021-11-19 17:55:28.766805","","","","","","",""
4.0,0.08971573412418365,0.00047380429438922305,"train",4820.0,"2021-11-19 17:55:31.935521","","","","","","",""
4.0,0.043312542140483856,0.00047683241835893946,"train",4840.0,"2021-11-19 17:55:35.662438","","","","","","",""
4.0,0.0571625791490078,0.0004798691099382815,"train",4860.0,"2021-11-19 17:55:38.835943","","","","","","",""
4.0,0.05377814546227455,0.0004829143229292986,"train",4880.0,"2021-11-19 17:55:41.988400","","","","","","",""
4.0,0.07401156425476074,0.0004859680110044023,"train",4900.0,"2021-11-19 17:55:45.146550","","","","","","",""
4.0,0.0813625231385231,0.0004890301277070699,"train",4920.0,"2021-11-19 17:55:48.787058","","","","","","",""
4.0,0.04535336047410965,0.0004921006264525525,"train",4940.0,"2021-11-19 17:55:52.019939","","","","","","",""
4.0,0.07418807595968246,0.0004951794605285824,"train",4960.0,"2021-11-19 17:55:55.233667","","","","","","",""
4.0,0.050212495028972626,0.0004982665830960853,"train",4980.0,"2021-11-19 17:55:58.430547","","","","","","",""
4.0,0.05579105764627457,0.0005013619471898913,"train",5000.0,"2021-11-19 17:56:02.092139","","","","","","",""
4.0,0.055734630674123764,0.0005044655057194504,"train",5020.0,"2021-11-19 17:56:05.318596","","","","","","",""
4.0,0.048207301646471024,0.0005075772114695486,"train",5040.0,"2021-11-19 17:56:08.599536","","","","","","",""
4.0,0.04502398520708084,0.0005106970171010257,"train",5060.0,"2021-11-19 17:56:11.829159","","","","","","",""
4.0,0.0584828145802021,0.0005138248751514966,"train",5080.0,"2021-11-19 17:56:15.454376","","","","","","",""
4.0,0.06718117743730545,0.0005169607380360731,"train",5100.0,"2021-11-19 17:56:18.665080","","","","","","",""
4.0,0.05009886249899864,0.000520104558048086,"train",5120.0,"2021-11-19 17:56:21.883798","","","","","","",""
4.0,0.05198376253247261,0.0005232562873598136,"train",5140.0,"2021-11-19 17:56:25.106416","","","","","","",""
4.0,0.06136785447597504,0.0005264158780232072,"train",5160.0,"2021-11-19 17:56:28.769765","","","","","","",""
4.0,0.09253198653459549,0.0005295832819706228,"train",5180.0,"2021-11-19 17:56:31.923054","","","","","","",""
4.0,0.06021638214588165,0.0005327584510155488,"train",5200.0,"2021-11-19 17:56:35.071246","","","","","","",""
4.0,0.07946830987930298,0.000535941336853343,"train",5220.0,"2021-11-19 17:56:38.311050","","","","","","",""
4.0,0.06755418330430984,0.0005391318910619655,"train",5240.0,"2021-11-19 17:56:42.125993","","","","","","",""
4.0,0.0513942614197731,0.0005423300651027144,"train",5260.0,"2021-11-19 17:56:45.484713","","","","","","",""
4.0,0.059344496577978134,0.0005455358103209663,"train",5280.0,"2021-11-19 17:56:48.733081","","","","","","",""
4.0,0.09782382845878601,0.0005487490779469157,"train",5300.0,"2021-11-19 17:56:51.922917","","","","","","",""
4.0,0.04939338564872742,0.000551969819096316,"train",5320.0,"2021-11-19 17:56:55.579178","","","","","","",""
4.0,0.051419176161289215,0.0005551979847712252,"train",5340.0,"2021-11-19 17:56:58.763483","","","","","","",""
4.0,0.049484118819236755,0.0005584335258607489,"train",5360.0,"2021-11-19 17:57:01.917073","","","","","","",""
4.0,"","","train",5370.0,"2021-11-19 17:58:48.661961",0.5638215818962381,0.55001052731223,0.941515944027626,0.5636057865023667,0.4118623949416913,0.4297167767908583,0.2807425904820589
4.0,"","","val",5370.0,"2021-11-19 17:59:18.517350",0.5511422938652442,0.5266154227657853,0.9346468869470509,0.5442056665142003,0.3972954625275952,0.41115749705951077,0.26722991908214805
5.0,0.0656437873840332,0.0005616763931417894,"train",5380.0,"2021-11-19 17:59:24.448979","","","","","","",""
5.0,0.056685466319322586,0.0005649265372797939,"train",5400.0,"2021-11-19 17:59:28.230672","","","","","","",""
5.0,0.08456294983625412,0.0005681839088295046,"train",5420.0,"2021-11-19 17:59:31.493571","","","","","","",""
5.0,0.06963596493005753,0.0005714484582357109,"train",5440.0,"2021-11-19 17:59:34.756421","","","","","","",""
5.0,0.05318469926714897,0.0005747201358340048,"train",5460.0,"2021-11-19 17:59:37.977090","","","","","","",""
5.0,0.06829721480607986,0.0005779988918515344,"train",5480.0,"2021-11-19 17:59:41.640672","","","","","","",""
5.0,0.04820322245359421,0.0005812846764077623,"train",5500.0,"2021-11-19 17:59:44.843836","","","","","","",""
5.0,0.07614786922931671,0.0005845774395152243,"train",5520.0,"2021-11-19 17:59:48.101438","","","","","","",""
5.0,0.08569169044494629,0.0005878771310802895,"train",5540.0,"2021-11-19 17:59:51.384525","","","","","","",""
5.0,0.05815538391470909,0.0005911837009039229,"train",5560.0,"2021-11-19 17:59:55.163710","","","","","","",""
5.0,0.07681021839380264,0.0005944970986824485,"train",5580.0,"2021-11-19 17:59:58.586100","","","","","","",""
5.0,0.058905232697725296,0.000597817274008315,"train",5600.0,"2021-11-19 18:00:01.908560","","","","","","",""
5.0,0.04562102258205414,0.0006011441763708635,"train",5620.0,"2021-11-19 18:00:05.300672","","","","","","",""
5.0,0.07675264030694962,0.0006044777551570929,"train",5640.0,"2021-11-19 18:00:09.050309","","","","","","",""
5.0,0.05089566484093666,0.000607817959652434,"train",5660.0,"2021-11-19 18:00:12.284738","","","","","","",""
5.0,0.08573402464389801,0.0006111647390415189,"train",5680.0,"2021-11-19 18:00:15.524314","","","","","","",""
5.0,0.07234054058790207,0.0006145180424089525,"train",5700.0,"2021-11-19 18:00:18.754536","","","","","","",""
5.0,0.04541497305035591,0.0006178778187400902,"train",5720.0,"2021-11-19 18:00:22.490739","","","","","","",""
5.0,0.05413175746798515,0.0006212440169218129,"train",5740.0,"2021-11-19 18:00:25.707747","","","","","","",""
5.0,0.06521875411272049,0.0006246165857433027,"train",5760.0,"2021-11-19 18:00:28.997000","","","","","","",""
5.0,0.05266418680548668,0.0006279954738968251,"train",5780.0,"2021-11-19 18:00:32.271987","","","","","","",""
5.0,0.07283570617437363,0.0006313806299785075,"train",5800.0,"2021-11-19 18:00:35.898340","","","","","","",""
5.0,0.05906473100185394,0.0006347720024891209,"train",5820.0,"2021-11-19 18:00:39.059939","","","","","","",""
5.0,0.04351748153567314,0.0006381695398348657,"train",5840.0,"2021-11-19 18:00:42.236549","","","","","","",""
5.0,0.05099925771355629,0.0006415731903281542,"train",5860.0,"2021-11-19 18:00:45.404171","","","","","","",""
5.0,0.044906288385391235,0.0006449829021883979,"train",5880.0,"2021-11-19 18:00:49.097847","","","","","","",""
5.0,0.061373140662908554,0.0006483986235427956,"train",5900.0,"2021-11-19 18:00:52.277207","","","","","","",""
5.0,0.0687754899263382,0.0006518203024271213,"train",5920.0,"2021-11-19 18:00:55.450252","","","","","","",""
5.0,0.05204525962471962,0.0006552478867865169,"train",5940.0,"2021-11-19 18:00:58.605858","","","","","","",""
5.0,0.044785961508750916,0.0006586813244762815,"train",5960.0,"2021-11-19 18:01:02.238574","","","","","","",""
5.0,0.04829954355955124,0.0006621205632626672,"train",5980.0,"2021-11-19 18:01:05.413610","","","","","","",""
5.0,0.06260959804058075,0.0006655655508236717,"train",6000.0,"2021-11-19 18:01:08.698304","","","","","","",""
5.0,0.048106204718351364,0.0006690162347498356,"train",6020.0,"2021-11-19 18:01:11.926080","","","","","","",""
5.0,0.06606046110391617,0.0006724725625450389,"train",6040.0,"2021-11-19 18:01:15.690437","","","","","","",""
5.0,0.0633506029844284,0.0006759344816273003,"train",6060.0,"2021-11-19 18:01:18.887988","","","","","","",""
5.0,0.0494583323597908,0.0006794019393295771,"train",6080.0,"2021-11-19 18:01:22.043288","","","","","","",""
5.0,0.06757224351167679,0.0006828748829005654,"train",6100.0,"2021-11-19 18:01:25.218783","","","","","","",""
5.0,0.048800744116306305,0.0006863532595055041,"train",6120.0,"2021-11-19 18:01:28.812960","","","","","","",""
5.0,0.08815395832061768,0.0006898370162269777,"train",6140.0,"2021-11-19 18:01:31.994172","","","","","","",""
5.0,0.06528084725141525,0.0006933261000657217,"train",6160.0,"2021-11-19 18:01:35.209235","","","","","","",""
5.0,0.07516277581453323,0.000696820457941429,"train",6180.0,"2021-11-19 18:01:38.392770","","","","","","",""
5.0,0.04951021820306778,0.000700320036693557,"train",6200.0,"2021-11-19 18:01:42.013553","","","","","","",""
5.0,0.07202260941267014,0.0007038247830821358,"train",6220.0,"2021-11-19 18:01:45.140987","","","","","","",""
5.0,0.06425756216049194,0.0007073346437885815,"train",6240.0,"2021-11-19 18:01:48.303467","","","","","","",""
5.0,0.08430185914039612,0.000710849565416502,"train",6260.0,"2021-11-19 18:01:51.508686","","","","","","",""
5.0,0.07857950776815414,0.0007143694944925134,"train",6280.0,"2021-11-19 18:01:55.146966","","","","","","",""
5.0,0.06303036212921143,0.0007178943774670524,"train",6300.0,"2021-11-19 18:01:58.368645","","","","","","",""
5.0,0.04432424530386925,0.0007214241607151901,"train",6320.0,"2021-11-19 18:02:01.629511","","","","","","",""
5.0,0.05464791879057884,0.000724958790537449,"train",6340.0,"2021-11-19 18:02:04.811549","","","","","","",""
5.0,0.07256601005792618,0.0007284982131606195,"train",6360.0,"2021-11-19 18:02:08.415544","","","","","","",""
5.0,0.05037663131952286,0.0007320423747385781,"train",6380.0,"2021-11-19 18:02:11.366068","","","","","","",""
5.0,0.0788717269897461,0.0007355912213531054,"train",6400.0,"2021-11-19 18:02:14.285070","","","","","","",""
5.0,0.06109047308564186,0.000739144699014708,"train",6420.0,"2021-11-19 18:02:17.217980","","","","","","",""
5.0,0.0707247406244278,0.0007427027536634401,"train",6440.0,"2021-11-19 18:02:20.829375","","","","","","",""
5.0,"","","train",6444.0,"2021-11-19 18:04:06.871698",0.5785490795313978,0.5764556323646645,0.9484497290959364,0.5618738248371971,0.4361246601232229,0.4585670212494507,0.2967701091638123
5.0,"","","val",6444.0,"2021-11-19 18:04:38.817657",0.5609416676330743,0.5428275666885563,0.9412537104685168,0.5393465835522852,0.4122139525106427,0.43220220920999736,0.2768987676262965
6.0,0.0483851283788681,0.0007462653311697235,"train",6460.0,"2021-11-19 18:04:45.684165","","","","","","",""
6.0,0.05728563293814659,0.0007498323773351733,"train",6480.0,"2021-11-19 18:04:48.948888","","","","","","",""
6.0,0.06547057628631592,0.0007534038378934223,"train",6500.0,"2021-11-19 18:04:52.198949","","","","","","",""
6.0,0.05411665514111519,0.0007569796585109453,"train",6520.0,"2021-11-19 18:04:55.452758","","","","","","",""
6.0,0.06863526254892349,0.0007605597847878862,"train",6540.0,"2021-11-19 18:04:59.270109","","","","","","",""
6.0,0.04807281494140625,0.0007641441622588871,"train",6560.0,"2021-11-19 18:05:02.452396","","","","","","",""
6.0,0.04893970489501953,0.0007677327363939143,"train",6580.0,"2021-11-19 18:05:05.654213","","","","","","",""
6.0,0.07537196576595306,0.0007713254525990895,"train",6600.0,"2021-11-19 18:05:08.827317","","","","","","",""
6.0,0.0451008565723896,0.0007749222562175211,"train",6620.0,"2021-11-19 18:05:11.996992","","","","","","",""
6.0,0.052869971841573715,0.000778523092530133,"train",6640.0,"2021-11-19 18:05:15.191908","","","","","","",""
6.0,0.0692838728427887,0.0007821279067564996,"train",6660.0,"2021-11-19 18:05:18.867455","","","","","","",""
6.0,0.04773080348968506,0.0007857366440556786,"train",6680.0,"2021-11-19 18:05:22.108162","","","","","","",""
6.0,0.06616997718811035,0.0007893492495270442,"train",6700.0,"2021-11-19 18:05:25.345625","","","","","","",""
6.0,0.0405094288289547,0.0007929656682111239,"train",6720.0,"2021-11-19 18:05:28.600490","","","","","","",""
6.0,0.06395655870437622,0.0007965858450904332,"train",6740.0,"2021-11-19 18:05:31.852899","","","","","","",""
6.0,0.055010195821523666,0.000800209725090314,"train",6760.0,"2021-11-19 18:05:35.081204","","","","","","",""
6.0,0.06257438659667969,0.0008038372530797706,"train",6780.0,"2021-11-19 18:05:38.823252","","","","","","",""
6.0,0.04428301751613617,0.0008074683738723109,"train",6800.0,"2021-11-19 18:05:41.977116","","","","","","",""
6.0,0.06597699224948883,0.0008111030322267832,"train",6820.0,"2021-11-19 18:05:45.155086","","","","","","",""
6.0,0.060248002409935,0.0008147411728482187,"train",6840.0,"2021-11-19 18:05:48.293666","","","","","","",""
6.0,0.08204865455627441,0.0008183827403886721,"train",6860.0,"2021-11-19 18:05:51.445394","","","","","","",""
6.0,0.05238118767738342,0.0008220276794480633,"train",6880.0,"2021-11-19 18:05:54.586862","","","","","","",""
6.0,0.053927190601825714,0.0008256759345750203,"train",6900.0,"2021-11-19 18:05:58.222460","","","","","","",""
6.0,0.0896635353565216,0.0008293274502677234,"train",6920.0,"2021-11-19 18:06:01.421644","","","","","","",""
6.0,0.06156411021947861,0.0008329821709747486,"train",6940.0,"2021-11-19 18:06:04.610712","","","","","","",""
6.0,0.05431075021624565,0.0008366400410959136,"train",6960.0,"2021-11-19 18:06:07.807943","","","","","","",""
6.0,0.0446682944893837,0.000840301004983123,"train",6980.0,"2021-11-19 18:06:11.023459","","","","","","",""
6.0,0.05393460392951965,0.0008439650069412147,"train",7000.0,"2021-11-19 18:06:14.760778","","","","","","",""
6.0,0.057271722704172134,0.0008476319912288095,"train",7020.0,"2021-11-19 18:06:17.953189","","","","","","",""
6.0,0.06527168303728104,0.0008513019020591544,"train",7040.0,"2021-11-19 18:06:21.163437","","","","","","",""
6.0,0.08061619102954865,0.0008549746836009771,"train",7060.0,"2021-11-19 18:06:24.466295","","","","","","",""
6.0,0.0595688559114933,0.0008586502799793306,"train",7080.0,"2021-11-19 18:06:27.731838","","","","","","",""
6.0,0.046341974288225174,0.0008623286352764453,"train",7100.0,"2021-11-19 18:06:31.021241","","","","","","",""
6.0,0.05298943817615509,0.0008660096935325802,"train",7120.0,"2021-11-19 18:06:34.831795","","","","","","",""
6.0,0.05798244848847389,0.0008696933987468731,"train",7140.0,"2021-11-19 18:06:38.047315","","","","","","",""
6.0,0.05734720453619957,0.0008733796948781924,"train",7160.0,"2021-11-19 18:06:41.259365","","","","","","",""
6.0,0.08011279255151749,0.0008770685258459915,"train",7180.0,"2021-11-19 18:06:44.504710","","","","","","",""
6.0,0.07544567435979843,0.0008807598355311595,"train",7200.0,"2021-11-19 18:06:47.692554","","","","","","",""
6.0,0.06037421151995659,0.0008844535677768764,"train",7220.0,"2021-11-19 18:06:50.848136","","","","","","",""
6.0,0.06910324096679688,0.0008881496663894681,"train",7240.0,"2021-11-19 18:06:54.501455","","","","","","",""
6.0,0.04147257283329964,0.0008918480751392592,"train",7260.0,"2021-11-19 18:06:57.702031","","","","","","",""
6.0,0.053351275622844696,0.00089554873776143,"train",7280.0,"2021-11-19 18:07:00.863259","","","","","","",""
6.0,0.07822150737047195,0.0008992515979568724,"train",7300.0,"2021-11-19 18:07:04.108085","","","","","","",""
6.0,0.05024529993534088,0.0009029565993930457,"train",7320.0,"2021-11-19 18:07:07.239266","","","","","","",""
6.0,0.08254349231719971,0.0009066636857048339,"train",7340.0,"2021-11-19 18:07:10.371200","","","","","","",""
6.0,0.08779381960630417,0.0009103728004954039,"train",7360.0,"2021-11-19 18:07:13.941038","","","","","","",""
6.0,0.0612330362200737,0.0009140838873370617,"train",7380.0,"2021-11-19 18:07:17.061954","","","","","","",""
6.0,0.06903541088104248,0.0009177968897721136,"train",7400.0,"2021-11-19 18:07:20.276530","","","","","","",""
6.0,0.08064670115709305,0.0009215117513137218,"train",7420.0,"2021-11-19 18:07:23.491292","","","","","","",""
6.0,0.0551963746547699,0.0009252284154467663,"train",7440.0,"2021-11-19 18:07:26.651131","","","","","","",""
6.0,0.04990312084555626,0.0009289468256287042,"train",7460.0,"2021-11-19 18:07:29.816955","","","","","","",""
6.0,0.04373616725206375,0.0009326669252904287,"train",7480.0,"2021-11-19 18:07:33.474226","","","","","","",""
6.0,0.059447839856147766,0.0009363886578371307,"train",7500.0,"2021-11-19 18:07:36.603927","","","","","","",""
6.0,"","","train",7518.0,"2021-11-19 18:09:31.594483",0.5888670595939751,0.6042524635533837,0.9532289587920076,0.5899821594803654,0.478669836085768,0.5010322994325599,0.3227544614490873
6.0,"","","val",7518.0,"2021-11-19 18:10:03.197968",0.565116548764931,0.5571782211058394,0.9439409718972467,0.5606053663491968,0.4432739926503952,0.46504587701859573,0.2910441958796045
7.0,0.055792976170778275,0.0009401119666491604,"train",7520.0,"2021-11-19 18:10:07.660674","","","","","","",""
7.0,0.06661321967840195,0.0009438367950828869,"train",7540.0,"2021-11-19 18:10:10.924084","","","","","","",""
7.0,0.04170827940106392,0.000947563086471561,"train",7560.0,"2021-11-19 18:10:14.197314","","","","","","",""
7.0,0.07085248082876205,0.0009512907841261783,"train",7580.0,"2021-11-19 18:10:18.141238","","","","","","",""
7.0,0.06815360486507416,0.0009550198313363391,"train",7600.0,"2021-11-19 18:10:21.439920","","","","","","",""
7.0,0.06763654947280884,0.0009587501713711128,"train",7620.0,"2021-11-19 18:10:24.657132","","","","","","",""
7.0,0.06538796424865723,0.0009624817474799023,"train",7640.0,"2021-11-19 18:10:27.891949","","","","","","",""
7.0,0.04673239216208458,0.0009662145028933038,"train",7660.0,"2021-11-19 18:10:31.079885","","","","","","",""
7.0,0.07348553091287613,0.0009699483808239733,"train",7680.0,"2021-11-19 18:10:34.746778","","","","","","",""
7.0,0.04626848176121712,0.0009736833244674895,"train",7700.0,"2021-11-19 18:10:37.997578","","","","","","",""
7.0,0.03899000957608223,0.0009774192770032192,"train",7720.0,"2021-11-19 18:10:41.265756","","","","","","",""
7.0,0.05001763254404068,0.0009811561815951785,"train",7740.0,"2021-11-19 18:10:44.474663","","","","","","",""
7.0,0.07692038267850876,0.0009848939813929015,"train",7760.0,"2021-11-19 18:10:47.624872","","","","","","",""
7.0,0.056772418320178986,0.0009886326195323026,"train",7780.0,"2021-11-19 18:10:51.321143","","","","","","",""
7.0,0.09736662358045578,0.0009923720391365428,"train",7800.0,"2021-11-19 18:10:54.489860","","","","","","",""
7.0,0.05344739183783531,0.000996112183316893,"train",7820.0,"2021-11-19 18:10:57.712691","","","","","","",""
7.0,0.04846225678920746,0.0009998529951736029,"train",7840.0,"2021-11-19 18:11:00.892249","","","","","","",""
7.0,0.055827509611845016,0.0010035944177967638,"train",7860.0,"2021-11-19 18:11:04.064123","","","","","","",""
7.0,0.059078484773635864,0.0010073363942671744,"train",7880.0,"2021-11-19 18:11:07.660072","","","","","","",""
7.0,0.08032198995351791,0.0010110788676572094,"train",7900.0,"2021-11-19 18:11:10.821603","","","","","","",""
7.0,0.04976721107959747,0.0010148217810316822,"train",7920.0,"2021-11-19 18:11:13.981912","","","","","","",""
7.0,0.041914086788892746,0.0010185650774487127,"train",7940.0,"2021-11-19 18:11:17.094668","","","","","","",""
7.0,0.05924588069319725,0.0010223086999605951,"train",7960.0,"2021-11-19 18:11:20.664451","","","","","","",""
7.0,0.05283885821700096,0.0010260525916146609,"train",7980.0,"2021-11-19 18:11:23.755919","","","","","","",""
7.0,0.0591491162776947,0.0010297966954541469,"train",8000.0,"2021-11-19 18:11:26.869740","","","","","","",""
7.0,0.0482509508728981,0.001033540954519064,"train",8020.0,"2021-11-19 18:11:29.984266","","","","","","",""
7.0,0.07817135751247406,0.0010372853118470592,"train",8040.0,"2021-11-19 18:11:33.094858","","","","","","",""
7.0,0.06740492582321167,0.0010410297104742857,"train",8060.0,"2021-11-19 18:11:36.693130","","","","","","",""
7.0,0.0455525703728199,0.0010447740934362692,"train",8080.0,"2021-11-19 18:11:39.807687","","","","","","",""
7.0,0.07220837473869324,0.0010485184037687715,"train",8100.0,"2021-11-19 18:11:42.951209","","","","","","",""
7.0,0.061089806258678436,0.0010522625845086615,"train",8120.0,"2021-11-19 18:11:46.053441","","","","","","",""
7.0,0.06637506932020187,0.0010560065786947796,"train",8140.0,"2021-11-19 18:11:49.248346","","","","","","",""
7.0,0.07613354176282883,0.0010597503293688013,"train",8160.0,"2021-11-19 18:11:52.795846","","","","","","",""
7.0,0.05868489667773247,0.001063493779576111,"train",8180.0,"2021-11-19 18:11:55.891730","","","","","","",""
7.0,0.05540105700492859,0.0010672368723666614,"train",8200.0,"2021-11-19 18:11:59.062283","","","","","","",""
7.0,0.07140102982521057,0.0010709795507958426,"train",8220.0,"2021-11-19 18:12:02.253501","","","","","","",""
7.0,0.051977187395095825,0.0010747217579253504,"train",8240.0,"2021-11-19 18:12:05.433190","","","","","","",""
7.0,0.050259269773960114,0.0010784634368240487,"train",8260.0,"2021-11-19 18:12:09.083844","","","","","","",""
7.0,0.07287289202213287,0.0010822045305688382,"train",8280.0,"2021-11-19 18:12:12.275862","","","","","","",""
7.0,0.06032446026802063,0.0010859449822455227,"train",8300.0,"2021-11-19 18:12:15.462269","","","","","","",""
7.0,0.04993268474936485,0.001089684734949672,"train",8320.0,"2021-11-19 18:12:18.669247","","","","","","",""
7.0,0.05667325481772423,0.00109342373178749,"train",8340.0,"2021-11-19 18:12:21.907475","","","","","","",""
7.0,0.04462556540966034,0.0010971619158766821,"train",8360.0,"2021-11-19 18:12:25.653810","","","","","","",""
7.0,0.0564974844455719,0.0011008992303473152,"train",8380.0,"2021-11-19 18:12:28.874149","","","","","","",""
7.0,0.04915943741798401,0.001104635618342687,"train",8400.0,"2021-11-19 18:12:32.093151","","","","","","",""
7.0,0.08579709380865097,0.001108371023020191,"train",8420.0,"2021-11-19 18:12:35.304311","","","","","","",""
7.0,0.0508866161108017,0.0011121053875521787,"train",8440.0,"2021-11-19 18:12:38.996892","","","","","","",""
7.0,0.05301462113857269,0.0011158386551268257,"train",8460.0,"2021-11-19 18:12:42.231223","","","","","","",""
7.0,0.05084605515003204,0.0011195707689489972,"train",8480.0,"2021-11-19 18:12:45.455643","","","","","","",""
7.0,0.06267116963863373,0.0011233016722411097,"train",8500.0,"2021-11-19 18:12:48.631812","","","","","","",""
7.0,0.0801369696855545,0.0011270313082439951,"train",8520.0,"2021-11-19 18:12:51.799826","","","","","","",""
7.0,0.0673118606209755,0.001130759620217767,"train",8540.0,"2021-11-19 18:12:55.444067","","","","","","",""
7.0,0.08535353094339371,0.0011344865514426794,"train",8560.0,"2021-11-19 18:12:58.618279","","","","","","",""
7.0,0.058857981115579605,0.0011382120452199938,"train",8580.0,"2021-11-19 18:13:01.774738","","","","","","",""
7.0,"","","train",8592.0,"2021-11-19 18:14:55.209839",0.5913701520774213,0.6233679443699617,0.9563145623917264,0.57822343071651,0.4697807325674403,0.49014794825538127,0.3212599357210101
7.0,"","","val",8592.0,"2021-11-19 18:15:27.591124",0.5719007306041981,0.5722493802229806,0.9444900186119205,0.5515158691611151,0.43976710175966716,0.4558263152135304,0.294888920584808
8.0,0.04644148424267769,0.001141936044872839,"train",8600.0,"2021-11-19 18:15:33.168964","","","","","","",""
8.0,0.04791050776839256,0.0011456584937470744,"train",8620.0,"2021-11-19 18:15:36.443697","","","","","","",""
8.0,0.06259137392044067,0.0011493793352121522,"train",8640.0,"2021-11-19 18:15:40.284204","","","","","","",""
8.0,0.06257335096597672,0.0011530985126619784,"train",8660.0,"2021-11-19 18:15:43.491986","","","","","","",""
8.0,0.04357227683067322,0.001156815969515773,"train",8680.0,"2021-11-19 18:15:46.702342","","","","","","",""
8.0,0.06916103512048721,0.001160531649218934,"train",8700.0,"2021-11-19 18:15:49.874497","","","","","","",""
8.0,0.04482697695493698,0.001164245495243894,"train",8720.0,"2021-11-19 18:15:53.639935","","","","","","",""
8.0,0.05049114674329758,0.0011679574510909817,"train",8740.0,"2021-11-19 18:15:56.983487","","","","","","",""
8.0,0.043027814477682114,0.0011716674602892828,"train",8760.0,"2021-11-19 18:16:00.389994","","","","","","",""
8.0,0.0667327269911766,0.0011753754663974968,"train",8780.0,"2021-11-19 18:16:03.737319","","","","","","",""
8.0,0.04972457140684128,0.0011790814130047968,"train",8800.0,"2021-11-19 18:16:07.484164","","","","","","",""
8.0,0.046976782381534576,0.001182785243731688,"train",8820.0,"2021-11-19 18:16:10.703521","","","","","","",""
8.0,0.07246843725442886,0.0011864869022308656,"train",8840.0,"2021-11-19 18:16:13.916064","","","","","","",""
8.0,0.06309431791305542,0.0011901863321880693,"train",8860.0,"2021-11-19 18:16:17.172181","","","","","","",""
8.0,0.0746174231171608,0.001193883477322945,"train",8880.0,"2021-11-19 18:16:20.885146","","","","","","",""
8.0,0.0758487731218338,0.0011975782813898961,"train",8900.0,"2021-11-19 18:16:24.186720","","","","","","",""
8.0,0.06043969839811325,0.0012012706881789417,"train",8920.0,"2021-11-19 18:16:27.470662","","","","","","",""
8.0,0.04681606590747833,0.001204960641516572,"train",8940.0,"2021-11-19 18:16:30.725438","","","","","","",""
8.0,0.04908718168735504,0.0012086480852666014,"train",8960.0,"2021-11-19 18:16:34.388445","","","","","","",""
8.0,0.04205147549510002,0.0012123329633310235,"train",8980.0,"2021-11-19 18:16:37.650783","","","","","","",""
8.0,0.04545591026544571,0.0012160152196508643,"train",9000.0,"2021-11-19 18:16:40.905265","","","","","","",""
8.0,0.040407080203294754,0.0012196947982070355,"train",9020.0,"2021-11-19 18:16:44.139894","","","","","","",""
8.0,0.06204404681921005,0.0012233716430211856,"train",9040.0,"2021-11-19 18:16:47.903544","","","","","","",""
8.0,0.060384515672922134,0.001227045698156553,"train",9060.0,"2021-11-19 18:16:51.172513","","","","","","",""
8.0,0.051601842045784,0.0012307169077188148,"train",9080.0,"2021-11-19 18:16:54.486000","","","","","","",""
8.0,0.042354654520750046,0.0012343852158569401,"train",9100.0,"2021-11-19 18:16:57.757968","","","","","","",""
8.0,0.05819496512413025,0.0012380505667640377,"train",9120.0,"2021-11-19 18:17:01.483947","","","","","","",""
8.0,0.0743301659822464,0.0012417129046782046,"train",9140.0,"2021-11-19 18:17:04.587555","","","","","","",""
8.0,0.08292875438928604,0.0012453721738833758,"train",9160.0,"2021-11-19 18:17:07.692440","","","","","","",""
8.0,0.0460580512881279,0.001249028318710172,"train",9180.0,"2021-11-19 18:17:10.864644","","","","","","",""
8.0,0.03657253831624985,0.0012526812835367447,"train",9200.0,"2021-11-19 18:17:14.516581","","","","","","",""
8.0,0.05098733305931091,0.0012563310127896242,"train",9220.0,"2021-11-19 18:17:17.693598","","","","","","",""
8.0,0.047241635620594025,0.0012599774509445645,"train",9240.0,"2021-11-19 18:17:20.965589","","","","","","",""
8.0,0.053881462663412094,0.0012636205425273874,"train",9260.0,"2021-11-19 18:17:24.309809","","","","","","",""
8.0,0.04952821135520935,0.0012672602321148268,"train",9280.0,"2021-11-19 18:17:28.037800","","","","","","",""
8.0,0.049471765756607056,0.0012708964643353732,"train",9300.0,"2021-11-19 18:17:31.336521","","","","","","",""
8.0,0.07886315882205963,0.001274529183870114,"train",9320.0,"2021-11-19 18:17:34.581393","","","","","","",""
8.0,0.058440934866666794,0.0012781583354535748,"train",9340.0,"2021-11-19 18:17:37.827729","","","","","","",""
8.0,0.05462732911109924,0.0012817838638745646,"train",9360.0,"2021-11-19 18:17:41.519184","","","","","","",""
8.0,0.10030672699213028,0.001285405713977009,"train",9380.0,"2021-11-19 18:17:44.762001","","","","","","",""
8.0,0.06689184904098511,0.0012890238306607947,"train",9400.0,"2021-11-19 18:17:48.017037","","","","","","",""
8.0,0.05570867285132408,0.001292638158882606,"train",9420.0,"2021-11-19 18:17:51.330551","","","","","","",""
8.0,0.05728533864021301,0.0012962486436567603,"train",9440.0,"2021-11-19 18:17:55.026947","","","","","","",""
8.0,0.06128140911459923,0.0012998552300560484,"train",9460.0,"2021-11-19 18:17:58.289060","","","","","","",""
8.0,0.06510474532842636,0.0013034578632125668,"train",9480.0,"2021-11-19 18:18:01.540850","","","","","","",""
8.0,0.04702642560005188,0.0013070564883185534,"train",9500.0,"2021-11-19 18:18:04.785789","","","","","","",""
8.0,0.03621029853820801,0.001310651050627223,"train",9520.0,"2021-11-19 18:18:08.499735","","","","","","",""
8.0,0.08197867125272751,0.001314241495453598,"train",9540.0,"2021-11-19 18:18:11.791554","","","","","","",""
8.0,0.04505334794521332,0.00131782776817534,"train",9560.0,"2021-11-19 18:18:14.993700","","","","","","",""
8.0,0.0408632755279541,0.0013214098142335837,"train",9580.0,"2021-11-19 18:18:18.207932","","","","","","",""
8.0,0.07194254547357559,0.001324987579133764,"train",9600.0,"2021-11-19 18:18:21.889649","","","","","","",""
8.0,0.06779098510742188,0.0013285610084464463,"train",9620.0,"2021-11-19 18:18:25.105870","","","","","","",""
8.0,0.062461864203214645,0.001332130047808155,"train",9640.0,"2021-11-19 18:18:28.320755","","","","","","",""
8.0,0.054750390350818634,0.001335694642922199,"train",9660.0,"2021-11-19 18:18:31.537736","","","","","","",""
8.0,"","","train",9666.0,"2021-11-19 18:20:18.484337",0.6000291057265517,0.633473842874101,0.9581465174580261,0.5865212875612518,0.48607207958168186,0.4994801483283988,0.33162577973086244
8.0,"","","val",9666.0,"2021-11-19 18:20:52.485007",0.5782790212223125,0.5796566059559854,0.9445462768569794,0.5609396517848987,0.4605793213457279,0.47312262156899354,0.30511713361678516
9.0,0.0539194718003273,0.0013392547395594985,"train",9680.0,"2021-11-19 18:20:59.087326","","","","","","",""
9.0,0.05284442380070686,0.001342810283559412,"train",9700.0,"2021-11-19 18:21:02.543990","","","","","","",""
9.0,0.09404443204402924,0.0013463612208305564,"train",9720.0,"2021-11-19 18:21:05.962407","","","","","","",""
9.0,0.0612163282930851,0.0013499074973516321,"train",9740.0,"2021-11-19 18:21:09.425663","","","","","","",""
9.0,0.04418303072452545,0.0013534490591722464,"train",9760.0,"2021-11-19 18:21:12.849827","","","","","","",""
9.0,0.043739449232816696,0.0013569858524137305,"train",9780.0,"2021-11-19 18:21:16.759514","","","","","","",""
9.0,0.09480797499418259,0.001360517823269962,"train",9800.0,"2021-11-19 18:21:20.139288","","","","","","",""
9.0,0.055573079735040665,0.0013640449180081834,"train",9820.0,"2021-11-19 18:21:23.450162","","","","","","",""
9.0,0.07648445665836334,0.0013675670829698173,"train",9840.0,"2021-11-19 18:21:26.684352","","","","","","",""
9.0,0.05854210630059242,0.0013710842645712853,"train",9860.0,"2021-11-19 18:21:29.905564","","","","","","",""
9.0,0.057231251150369644,0.0013745964093048219,"train",9880.0,"2021-11-19 18:21:33.120804","","","","","","",""
9.0,0.03571376949548721,0.0013781034637392886,"train",9900.0,"2021-11-19 18:21:36.815001","","","","","","",""
9.0,0.04125560447573662,0.0013816053745209864,"train",9920.0,"2021-11-19 18:21:40.060557","","","","","","",""
9.0,0.06549753248691559,0.0013851020883744697,"train",9940.0,"2021-11-19 18:21:43.298600","","","","","","",""
9.0,0.07565094530582428,0.001388593552103353,"train",9960.0,"2021-11-19 18:21:46.537920","","","","","","",""
9.0,0.03733319789171219,0.0013920797125911233,"train",9980.0,"2021-11-19 18:21:49.839436","","","","","","",""
9.0,0.06637468189001083,0.001395560516801947,"train",10000.0,"2021-11-19 18:21:53.145431","","","","","","",""
9.0,0.045331746339797974,0.0013990359117814774,"train",10020.0,"2021-11-19 18:21:56.907073","","","","","","",""
9.0,0.06206253170967102,0.0014025058446576583,"train",10040.0,"2021-11-19 18:22:00.083979","","","","","","",""
9.0,0.0601622611284256,0.0014059702626415317,"train",10060.0,"2021-11-19 18:22:03.239178","","","","","","",""
9.0,0.05569472908973694,0.0014094291130280377,"train",10080.0,"2021-11-19 18:22:06.423317","","","","","","",""
9.0,0.04745108634233475,0.0014128823431968183,"train",10100.0,"2021-11-19 18:22:09.649241","","","","","","",""
9.0,0.04567011073231697,0.001416329900613017,"train",10120.0,"2021-11-19 18:22:12.860200","","","","","","",""
9.0,0.06408600509166718,0.0014197717328280782,"train",10140.0,"2021-11-19 18:22:16.601575","","","","","","",""
9.0,0.06065569818019867,0.0014232077874805457,"train",10160.0,"2021-11-19 18:22:19.830881","","","","","","",""
9.0,0.06380386650562286,0.0014266380122968589,"train",10180.0,"2021-11-19 18:22:23.072254","","","","","","",""
9.0,0.031791627407073975,0.0014300623550921468,"train",10200.0,"2021-11-19 18:22:26.330006","","","","","","",""
9.0,0.06757667660713196,0.0014334807637710243,"train",10220.0,"2021-11-19 18:22:29.589941","","","","","","",""
9.0,0.05778529867529869,0.0014368931863283831,"train",10240.0,"2021-11-19 18:22:32.775741","","","","","","",""
9.0,0.07615199685096741,0.0014402995708501826,"train",10260.0,"2021-11-19 18:22:36.390798","","","","","","",""
9.0,0.07092097401618958,0.0014436998655142422,"train",10280.0,"2021-11-19 18:22:39.549859","","","","","","",""
9.0,0.08020316809415817,0.0014470940185910258,"train",10300.0,"2021-11-19 18:22:42.833272","","","","","","",""
9.0,0.048701025545597076,0.001450481978444431,"train",10320.0,"2021-11-19 18:22:46.006773","","","","","","",""
9.0,0.03433912247419357,0.0014538636935325763,"train",10340.0,"2021-11-19 18:22:49.062275","","","","","","",""
9.0,0.06303510814905167,0.0014572391124085817,"train",10360.0,"2021-11-19 18:22:52.163100","","","","","","",""
9.0,0.07465709745883942,0.0014606081837213525,"train",10380.0,"2021-11-19 18:22:55.744424","","","","","","",""
9.0,0.06834664940834045,0.0014639708562163639,"train",10400.0,"2021-11-19 18:22:58.871844","","","","","","",""
9.0,0.05430404096841812,0.001467327078736435,"train",10420.0,"2021-11-19 18:23:01.994011","","","","","","",""
9.0,0.06815288960933685,0.0014706768002225108,"train",10440.0,"2021-11-19 18:23:05.066692","","","","","","",""
9.0,0.05958298593759537,0.0014740199697144392,"train",10460.0,"2021-11-19 18:23:08.131485","","","","","","",""
9.0,0.04447512701153755,0.0014773565363517442,"train",10480.0,"2021-11-19 18:23:11.220830","","","","","","",""
9.0,0.0673406794667244,0.0014806864493744007,"train",10500.0,"2021-11-19 18:23:14.946586","","","","","","",""
9.0,0.05326838046312332,0.0014840096581236072,"train",10520.0,"2021-11-19 18:23:18.194787","","","","","","",""
9.0,0.04092535749077797,0.001487326112042556,"train",10540.0,"2021-11-19 18:23:21.451640","","","","","","",""
9.0,0.04013346880674362,0.0014906357606772013,"train",10560.0,"2021-11-19 18:23:24.717322","","","","","","",""
9.0,0.05601013824343681,0.0014939385536770291,"train",10580.0,"2021-11-19 18:23:27.973242","","","","","","",""
9.0,0.07806605845689774,0.0014972344407958218,"train",10600.0,"2021-11-19 18:23:31.154040","","","","","","",""
9.0,0.05236455425620079,0.0015005233718924213,"train",10620.0,"2021-11-19 18:23:34.890758","","","","","","",""
9.0,0.06352263689041138,0.0015038052969314946,"train",10640.0,"2021-11-19 18:23:38.083635","","","","","","",""
9.0,0.07380913943052292,0.0015070801659842939,"train",10660.0,"2021-11-19 18:23:41.272736","","","","","","",""
9.0,0.05361636355519295,0.001510347929229414,"train",10680.0,"2021-11-19 18:23:44.475977","","","","","","",""
9.0,0.03905419260263443,0.0015136085369535537,"train",10700.0,"2021-11-19 18:23:47.602007","","","","","","",""
9.0,0.052400097250938416,0.0015168619395522708,"train",10720.0,"2021-11-19 18:23:51.254202","","","","","","",""
9.0,0.07841850817203522,0.0015201080875307349,"train",10740.0,"2021-11-19 18:23:54.646496","","","","","","",""
9.0,"","","train",10740.0,"2021-11-19 18:25:55.258673",0.6069999272356836,0.6509210416561803,0.9602706594748812,0.627325456783362,0.51387535247749,0.5397316997471647,0.35209735041583995
9.0,"","","val",10740.0,"2021-11-19 18:26:34.309911",0.5784529746028064,0.5809379351299097,0.9460247994393842,0.5889703723542137,0.4713744519549437,0.4910423024893593,0.3123559029632046
10.0,0.03955485299229622,0.0015233469315044834,"train",10760.0,"2021-11-19 18:26:42.131983","","","","","","",""
10.0,0.04463648796081543,0.0015265784222001709,"train",10780.0,"2021-11-19 18:26:45.272165","","","","","","",""
10.0,0.03479817509651184,0.0015298025104563185,"train",10800.0,"2021-11-19 18:26:48.514183","","","","","","",""
10.0,0.047364771366119385,0.001533019147224064,"train",10820.0,"2021-11-19 18:26:52.301695","","","","","","",""
10.0,0.06921938061714172,0.0015362282835679054,"train",10840.0,"2021-11-19 18:26:55.507992","","","","","","",""
10.0,0.04323241487145424,0.0015394298706664469,"train",10860.0,"2021-11-19 18:26:58.652775","","","","","","",""
10.0,0.0569707453250885,0.001542623859813141,"train",10880.0,"2021-11-19 18:27:01.957727","","","","","","",""
10.0,0.04455641657114029,0.00154581020241703,"train",10900.0,"2021-11-19 18:27:05.260155","","","","","","",""
10.0,0.04205181077122688,0.0015489888500034858,"train",10920.0,"2021-11-19 18:27:09.000623","","","","","","",""
10.0,0.040870338678359985,0.0015521597542149444,"train",10940.0,"2021-11-19 18:27:12.275910","","","","","","",""
10.0,0.05228268727660179,0.0015553228668116455,"train",10960.0,"2021-11-19 18:27:15.534215","","","","","","",""
10.0,0.04581724852323532,0.0015584781396723642,"train",10980.0,"2021-11-19 18:27:18.991924","","","","","","",""
10.0,0.06976993381977081,0.0015616255247951432,"train",11000.0,"2021-11-19 18:27:22.348674","","","","","","",""
10.0,0.04965115338563919,0.0015647649742980233,"train",11020.0,"2021-11-19 18:27:26.105218","","","","","","",""
10.0,0.051029376685619354,0.0015678964404197727,"train",11040.0,"2021-11-19 18:27:29.404365","","","","","","",""
10.0,0.05729161575436592,0.0015710198755206112,"train",11060.0,"2021-11-19 18:27:32.722840","","","","","","",""
10.0,0.04542936012148857,0.0015741352320829379,"train",11080.0,"2021-11-19 18:27:36.041671","","","","","","",""
10.0,0.05537230521440506,0.0015772424627120527,"train",11100.0,"2021-11-19 18:27:39.783273","","","","","","",""
10.0,0.06295664608478546,0.0015803415201368761,"train",11120.0,"2021-11-19 18:27:43.045517","","","","","","",""
10.0,0.07025515288114548,0.001583432357210671,"train",11140.0,"2021-11-19 18:27:46.302365","","","","","","",""
10.0,0.06589067727327347,0.001586514926911758,"train",11160.0,"2021-11-19 18:27:49.595289","","","","","","",""
10.0,0.04990608990192413,0.0015895891823442313,"train",11180.0,"2021-11-19 18:27:53.433671","","","","","","",""
10.0,0.08032666146755219,0.0015926550767386717,"train",11200.0,"2021-11-19 18:27:56.783281","","","","","","",""
10.0,0.07926715910434723,0.0015957125634528599,"train",11220.0,"2021-11-19 18:28:00.089236","","","","","","",""
10.0,0.089351125061512,0.0015987615959724836,"train",11240.0,"2021-11-19 18:28:03.341062","","","","","","",""
10.0,0.05385006591677666,0.0016018021279118457,"train",11260.0,"2021-11-19 18:28:07.046488","","","","","","",""
10.0,0.058783188462257385,0.0016048341130145728,"train",11280.0,"2021-11-19 18:28:10.278632","","","","","","",""
10.0,0.06951214373111725,0.0016078575051543145,"train",11300.0,"2021-11-19 18:28:13.493099","","","","","","",""
10.0,0.04271192103624344,0.0016108722583354478,"train",11320.0,"2021-11-19 18:28:16.720567","","","","","","",""
10.0,0.0443088673055172,0.0016138783266937777,"train",11340.0,"2021-11-19 18:28:20.370431","","","","","","",""
10.0,0.04500683769583702,0.0016168756644972322,"train",11360.0,"2021-11-19 18:28:23.576988","","","","","","",""
10.0,0.05117442086338997,0.0016198642261465587,"train",11380.0,"2021-11-19 18:28:26.817548","","","","","","",""
10.0,0.03663843870162964,0.0016228439661760208,"train",11400.0,"2021-11-19 18:28:30.070335","","","","","","",""
10.0,0.05282187834382057,0.001625814839254086,"train",11420.0,"2021-11-19 18:28:33.795881","","","","","","",""
10.0,0.031245218589901924,0.0016287768001841164,"train",11440.0,"2021-11-19 18:28:37.070243","","","","","","",""
10.0,0.03709325194358826,0.001631729803905059,"train",11460.0,"2021-11-19 18:28:40.322321","","","","","","",""
10.0,0.0750877782702446,0.0016346738054921273,"train",11480.0,"2021-11-19 18:28:43.544985","","","","","","",""
10.0,0.06311428546905518,0.001637608760157486,"train",11500.0,"2021-11-19 18:28:47.221640","","","","","","",""
10.0,0.07325805723667145,0.0016405346232509356,"train",11520.0,"2021-11-19 18:28:50.433325","","","","","","",""
10.0,0.06708215922117233,0.0016434513502605861,"train",11540.0,"2021-11-19 18:28:53.694563","","","","","","",""
10.0,0.06859325617551804,0.0016463588968135383,"train",11560.0,"2021-11-19 18:28:56.962497","","","","","","",""
10.0,0.05907806381583214,0.0016492572186765577,"train",11580.0,"2021-11-19 18:29:00.718783","","","","","","",""
10.0,0.06792040169239044,0.001652146271756747,"train",11600.0,"2021-11-19 18:29:03.886119","","","","","","",""
10.0,0.04734344780445099,0.0016550260121022172,"train",11620.0,"2021-11-19 18:29:07.130971","","","","","","",""
10.0,0.0692947506904602,0.0016578963959027562,"train",11640.0,"2021-11-19 18:29:10.381619","","","","","","",""
10.0,0.06689535826444626,0.001660757379490496,"train",11660.0,"2021-11-19 18:29:14.037192","","","","","","",""
10.0,0.047079965472221375,0.0016636089193405761,"train",11680.0,"2021-11-19 18:29:17.208956","","","","","","",""
10.0,0.06512992084026337,0.0016664509720718049,"train",11700.0,"2021-11-19 18:29:20.405670","","","","","","",""
10.0,0.03685982897877693,0.0016692834944473224,"train",11720.0,"2021-11-19 18:29:23.551934","","","","","","",""
10.0,0.06020946800708771,0.0016721064433752554,"train",11740.0,"2021-11-19 18:29:27.147309","","","","","","",""
10.0,0.054785314947366714,0.0016749197759093734,"train",11760.0,"2021-11-19 18:29:30.306258","","","","","","",""
10.0,0.06761090457439423,0.0016777234492497436,"train",11780.0,"2021-11-19 18:29:33.591315","","","","","","",""
10.0,0.07179915904998779,0.0016805174207433808,"train",11800.0,"2021-11-19 18:29:36.798166","","","","","","",""
10.0,"","","train",11814.0,"2021-11-19 18:31:24.412504",0.5978607290984501,0.6707708531214472,0.964391706518395,0.5737004184873611,0.4756693128953512,0.5021711187618935,0.33262075579001615
10.0,"","","val",11814.0,"2021-11-19 18:31:56.710115",0.5686536008349762,0.5937428501977949,0.9496534819237432,0.5356168257401301,0.43146465159263514,0.45297092374488035,0.2900523531415798
11.0,0.05773821473121643,0.0016833016478848956,"train",11820.0,"2021-11-19 18:32:01.947853","","","","","","",""
11.0,0.04200301691889763,0.0016860760883171426,"train",11840.0,"2021-11-19 18:32:05.230515","","","","","","",""
11.0,0.038840312510728836,0.001688840699831864,"train",11860.0,"2021-11-19 18:32:08.402589","","","","","","",""
11.0,0.0767286941409111,0.0016915954403703313,"train",11880.0,"2021-11-19 18:32:11.533380","","","","","","",""
11.0,0.03640612214803696,0.0016943402680239862,"train",11900.0,"2021-11-19 18:32:14.706254","","","","","","",""
11.0,0.07558091729879379,0.0016970751410350774,"train",11920.0,"2021-11-19 18:32:18.071396","","","","","","",""
11.0,0.04150243103504181,0.001699800017797296,"train",11940.0,"2021-11-19 18:32:21.958655","","","","","","",""
11.0,0.059622325003147125,0.0017025148568564086,"train",11960.0,"2021-11-19 18:32:25.218384","","","","","","",""
11.0,0.046856589615345,0.001705219616910888,"train",11980.0,"2021-11-19 18:32:28.422008","","","","","","",""
11.0,0.041956182569265366,0.001707914256812541,"train",12000.0,"2021-11-19 18:32:31.678893","","","","","","",""
11.0,0.049111828207969666,0.0017105987355671352,"train",12020.0,"2021-11-19 18:32:34.888271","","","","","","",""
11.0,0.047273188829422,0.0017132730123350227,"train",12040.0,"2021-11-19 18:32:38.113427","","","","","","",""
11.0,0.06196525692939758,0.00171593704643176,"train",12060.0,"2021-11-19 18:32:41.853086","","","","","","",""
11.0,0.04422222450375557,0.0017185907973287285,"train",12080.0,"2021-11-19 18:32:45.093305","","","","","","",""
11.0,0.05720215663313866,0.0017212342246537506,"train",12100.0,"2021-11-19 18:32:48.330229","","","","","","",""
11.0,0.052247416228055954,0.0017238672881917032,"train",12120.0,"2021-11-19 18:32:51.554455","","","","","","",""
11.0,0.05710601061582565,0.001726489947885131,"train",12140.0,"2021-11-19 18:32:54.763798","","","","","","",""
11.0,0.04840663820505142,0.0017291021638348543,"train",12160.0,"2021-11-19 18:32:58.395653","","","","","","",""
11.0,0.04618196189403534,0.0017317038963005765,"train",12180.0,"2021-11-19 18:33:01.613513","","","","","","",""
11.0,0.043026890605688095,0.00173429510570149,"train",12200.0,"2021-11-19 18:33:04.843640","","","","","","",""
11.0,0.04129180684685707,0.0017368757526168759,"train",12220.0,"2021-11-19 18:33:08.074723","","","","","","",""
11.0,0.06810708343982697,0.0017394457977867057,"train",12240.0,"2021-11-19 18:33:11.257514","","","","","","",""
11.0,0.0249723419547081,0.0017420052021122378,"train",12260.0,"2021-11-19 18:33:14.501323","","","","","","",""
11.0,0.062159594148397446,0.0017445539266566128,"train",12280.0,"2021-11-19 18:33:18.228639","","","","","","",""
11.0,0.08910736441612244,0.001747091932645445,"train",12300.0,"2021-11-19 18:33:21.417877","","","","","","",""
11.0,0.049960680305957794,0.0017496191814674125,"train",12320.0,"2021-11-19 18:33:24.562935","","","","","","",""
11.0,0.055823080241680145,0.001752135634674846,"train",12340.0,"2021-11-19 18:33:27.801788","","","","","","",""
11.0,0.058246541768312454,0.0017546412539843118,"train",12360.0,"2021-11-19 18:33:30.976098","","","","","","",""
11.0,0.04924950748682022,0.001757136001277194,"train",12380.0,"2021-11-19 18:33:34.179957","","","","","","",""
11.0,0.0529160350561142,0.001759619838600278,"train",12400.0,"2021-11-19 18:33:37.862642","","","","","","",""
11.0,0.06583062559366226,0.0017620927281663229,"train",12420.0,"2021-11-19 18:33:41.017683","","","","","","",""
11.0,0.06829512119293213,0.0017645546323546398,"train",12440.0,"2021-11-19 18:33:44.199018","","","","","","",""
11.0,0.06409498304128647,0.0017670055137116636,"train",12460.0,"2021-11-19 18:33:47.401790","","","","","","",""
11.0,0.04896378144621849,0.0017694453349515209,"train",12480.0,"2021-11-19 18:33:50.573490","","","","","","",""
11.0,0.03996022045612335,0.0017718740589566,"train",12500.0,"2021-11-19 18:33:53.775955","","","","","","",""
11.0,0.04997897893190384,0.0017742916487781134,"train",12520.0,"2021-11-19 18:33:57.482519","","","","","","",""
11.0,0.0567098893225193,0.0017766980676366608,"train",12540.0,"2021-11-19 18:34:00.651779","","","","","","",""
11.0,0.07957557588815689,0.001779093278922789,"train",12560.0,"2021-11-19 18:34:03.817207","","","","","","",""
11.0,0.07694537937641144,0.001781477246197548,"train",12580.0,"2021-11-19 18:34:07.001086","","","","","","",""
11.0,0.042003925889730453,0.0017838499331930462,"train",12600.0,"2021-11-19 18:34:10.301148","","","","","","",""
11.0,0.042772918939590454,0.001786211303813001,"train",12620.0,"2021-11-19 18:34:13.477873","","","","","","",""
11.0,0.04370461776852608,0.0017885613221332894,"train",12640.0,"2021-11-19 18:34:17.113166","","","","","","",""
11.0,0.05745529755949974,0.0017908999524024931,"train",12660.0,"2021-11-19 18:34:20.298417","","","","","","",""
11.0,0.07474662363529205,0.0017932271590424438,"train",12680.0,"2021-11-19 18:34:23.466219","","","","","","",""
11.0,0.04116138443350792,0.0017955429066487635,"train",12700.0,"2021-11-19 18:34:26.635671","","","","","","",""
11.0,0.05859750881791115,0.0017978471599914025,"train",12720.0,"2021-11-19 18:34:29.821854","","","","","","",""
11.0,0.04050023853778839,0.0018001398840151778,"train",12740.0,"2021-11-19 18:34:33.012297","","","","","","",""
11.0,0.06824915111064911,0.0018024210438403031,"train",12760.0,"2021-11-19 18:34:36.699802","","","","","","",""
11.0,0.0878407433629036,0.0018046906047629228,"train",12780.0,"2021-11-19 18:34:39.913932","","","","","","",""
11.0,0.042643044143915176,0.0018069485322556372,"train",12800.0,"2021-11-19 18:34:43.132052","","","","","","",""
11.0,0.0408216267824173,0.001809194791968029,"train",12820.0,"2021-11-19 18:34:46.299654","","","","","","",""
11.0,0.039468493312597275,0.0018114293497271863,"train",12840.0,"2021-11-19 18:34:49.456597","","","","","","",""
11.0,0.06335192173719406,0.0018136521715382218,"train",12860.0,"2021-11-19 18:34:52.611395","","","","","","",""
11.0,0.0482957661151886,0.0018158632235847892,"train",12880.0,"2021-11-19 18:34:56.255432","","","","","","",""
11.0,"","","train",12888.0,"2021-11-19 18:36:44.539335",0.6452448519246161,0.692571153271502,0.9670341971286474,0.6455725476790614,0.5443317460021802,0.5732924033482163,0.38682265703760943
11.0,"","","val",12888.0,"2021-11-19 18:37:15.807532",0.613939464223588,0.6105276407168806,0.9500116209113719,0.603167107337228,0.49822280391532836,0.5195238611157664,0.3424432912914286
12.0,0.03911300003528595,0.0018180624722295999,"train",12900.0,"2021-11-19 18:37:22.040875","","","","","","",""
12.0,0.06379419565200806,0.001820249884014933,"train",12920.0,"2021-11-19 18:37:25.270792","","","","","","",""
12.0,0.04885585978627205,0.001822425425663144,"train",12940.0,"2021-11-19 18:37:28.486688","","","","","","",""
12.0,0.05144684389233589,0.0018245890640771725,"train",12960.0,"2021-11-19 18:37:31.750382","","","","","","",""
12.0,0.04322567954659462,0.0018267407663410452,"train",12980.0,"2021-11-19 18:37:35.028003","","","","","","",""
12.0,0.03314140439033508,0.0018288804997203755,"train",13000.0,"2021-11-19 18:37:38.837131","","","","","","",""
12.0,0.07489081472158432,0.0018310082316628634,"train",13020.0,"2021-11-19 18:37:42.075311","","","","","","",""
12.0,0.04028216004371643,0.0018331239297987893,"train",13040.0,"2021-11-19 18:37:45.253443","","","","","","",""
12.0,0.04441327974200249,0.0018352275619415066,"train",13060.0,"2021-11-19 18:37:48.465203","","","","","","",""
12.0,0.04788949713110924,0.0018373190960879326,"train",13080.0,"2021-11-19 18:37:51.706447","","","","","","",""
12.0,0.0622856542468071,0.0018393985004190336,"train",13100.0,"2021-11-19 18:37:54.903938","","","","","","",""
12.0,0.060552433133125305,0.00184146574330031,"train",13120.0,"2021-11-19 18:37:58.581061","","","","","","",""
12.0,0.038506582379341125,0.001843520793282278,"train",13140.0,"2021-11-19 18:38:01.802700","","","","","","",""
12.0,0.036085668951272964,0.0018455636191009464,"train",13160.0,"2021-11-19 18:38:05.068062","","","","","","",""
12.0,0.03711925819516182,0.001847594189678294,"train",13180.0,"2021-11-19 18:38:08.280357","","","","","","",""
12.0,0.08040371537208557,0.0018496124741227415,"train",13200.0,"2021-11-19 18:38:11.486217","","","","","","",""
12.0,0.04021105542778969,0.001851618441729622,"train",13220.0,"2021-11-19 18:38:14.709150","","","","","","",""
12.0,0.03835365176200867,0.0018536120619816467,"train",13240.0,"2021-11-19 18:38:18.393353","","","","","","",""
12.0,0.044272419065237045,0.0018555933045493712,"train",13260.0,"2021-11-19 18:38:21.577649","","","","","","",""
12.0,0.048381321132183075,0.0018575621392916554,"train",13280.0,"2021-11-19 18:38:24.759527","","","","","","",""
12.0,0.06175049766898155,0.0018595185362561225,"train",13300.0,"2021-11-19 18:38:27.923504","","","","","","",""
12.0,0.0477219894528389,0.0018614624656796155,"train",13320.0,"2021-11-19 18:38:31.077914","","","","","","",""
12.0,0.03910205885767937,0.0018633938979886484,"train",13340.0,"2021-11-19 18:38:34.772471","","","","","","",""
12.0,0.07292945683002472,0.0018653128037998568,"train",13360.0,"2021-11-19 18:38:37.970737","","","","","","",""
12.0,0.042167823761701584,0.0018672191539204459,"train",13380.0,"2021-11-19 18:38:41.173704","","","","","","",""
12.0,0.07165155559778214,0.0018691129193486335,"train",13400.0,"2021-11-19 18:38:44.376219","","","","","","",""
12.0,0.05706197768449783,0.0018709940712740908,"train",13420.0,"2021-11-19 18:38:47.600636","","","","","","",""
12.0,0.035877861082553864,0.0018728625810783823,"train",13440.0,"2021-11-19 18:38:50.771820","","","","","","",""
12.0,0.07203153520822525,0.0018747184203353996,"train",13460.0,"2021-11-19 18:38:54.371225","","","","","","",""
12.0,0.09248526394367218,0.0018765615608117947,"train",13480.0,"2021-11-19 18:38:57.549072","","","","","","",""
12.0,0.04403827339410782,0.0018783919744674096,"train",13500.0,"2021-11-19 18:39:00.731751","","","","","","",""
12.0,0.05373860523104668,0.0018802096334557027,"train",13520.0,"2021-11-19 18:39:03.894594","","","","","","",""
12.0,0.05405570939183235,0.0018820145101241712,"train",13540.0,"2021-11-19 18:39:07.065118","","","","","","",""
12.0,0.053977642208337784,0.0018838065770147745,"train",13560.0,"2021-11-19 18:39:10.228518","","","","","","",""
12.0,0.05974816530942917,0.0018855858068643496,"train",13580.0,"2021-11-19 18:39:13.830167","","","","","","",""
12.0,0.05086766928434372,0.001887352172605026,"train",13600.0,"2021-11-19 18:39:17.040920","","","","","","",""
12.0,0.03727848827838898,0.0018891056473646398,"train",13620.0,"2021-11-19 18:39:20.211790","","","","","","",""
12.0,0.04960049316287041,0.0018908462044671395,"train",13640.0,"2021-11-19 18:39:23.362048","","","","","","",""
12.0,0.0759764090180397,0.001892573817432993,"train",13660.0,"2021-11-19 18:39:26.486437","","","","","","",""
12.0,0.053506478667259216,0.0018942884599795914,"train",13680.0,"2021-11-19 18:39:29.666976","","","","","","",""
12.0,0.07224510610103607,0.001895990106021648,"train",13700.0,"2021-11-19 18:39:33.316127","","","","","","",""
12.0,0.07061894983053207,0.0018976787296715943,"train",13720.0,"2021-11-19 18:39:36.486247","","","","","","",""
12.0,0.05944806709885597,0.0018993543052399757,"train",13740.0,"2021-11-19 18:39:39.568298","","","","","","",""
12.0,0.0597463883459568,0.0019010168072358413,"train",13760.0,"2021-11-19 18:39:42.639565","","","","","","",""
12.0,0.04279766231775284,0.0019026662103671305,"train",13780.0,"2021-11-19 18:39:45.708334","","","","","","",""
12.0,0.05208856612443924,0.0019043024895410605,"train",13800.0,"2021-11-19 18:39:48.778918","","","","","","",""
12.0,0.03394704312086105,0.001905925619864506,"train",13820.0,"2021-11-19 18:39:52.320344","","","","","","",""
12.0,0.04520377889275551,0.001907535576644378,"train",13840.0,"2021-11-19 18:39:55.403177","","","","","","",""
12.0,0.035251788794994354,0.0019091323353880008,"train",13860.0,"2021-11-19 18:39:58.472352","","","","","","",""
12.0,0.047834306955337524,0.0019107158718034828,"train",13880.0,"2021-11-19 18:40:01.555249","","","","","","",""
12.0,0.048022449016571045,0.001912286161800088,"train",13900.0,"2021-11-19 18:40:04.648429","","","","","","",""
12.0,0.05452048033475876,0.0019138431814886008,"train",13920.0,"2021-11-19 18:40:07.728319","","","","","","",""
12.0,0.03620683774352074,0.0019153869071816896,"train",13940.0,"2021-11-19 18:40:11.417600","","","","","","",""
12.0,0.04800428822636604,0.0019169173153942693,"train",13960.0,"2021-11-19 18:40:14.497283","","","","","","",""
12.0,"","","train",13962.0,"2021-11-19 18:42:07.689656",0.6475150985956487,0.7073558833560796,0.9716368321429291,0.6569422542207235,0.5564090971072523,0.5918449067079088,0.39329642437661616
12.0,"","","val",13962.0,"2021-11-19 18:42:39.370772",0.6047199350574046,0.611931388792216,0.9555708253621675,0.6024942930057167,0.4929234798604858,0.5232397880882795,0.33144622945276797
13.0,0.06101864203810692,0.0019184343828438557,"train",13980.0,"2021-11-19 18:42:46.560015","","","","","","",""
13.0,0.05762353539466858,0.0019199380864509208,"train",14000.0,"2021-11-19 18:42:49.797532","","","","","","",""
13.0,0.05116743594408035,0.0019214284033392457,"train",14020.0,"2021-11-19 18:42:52.976526","","","","","","",""
13.0,0.06894201040267944,0.0019229053108362649,"train",14040.0,"2021-11-19 18:42:56.772491","","","","","","",""
13.0,0.046759773045778275,0.0019243687864734145,"train",14060.0,"2021-11-19 18:43:00.013388","","","","","","",""
13.0,0.02468394674360752,0.0019258188079864732,"train",14080.0,"2021-11-19 18:43:03.223475","","","","","","",""
13.0,0.05385993421077728,0.0019272553533158999,"train",14100.0,"2021-11-19 18:43:06.419880","","","","","","",""
13.0,0.057633787393569946,0.0019286784006071697,"train",14120.0,"2021-11-19 18:43:09.603245","","","","","","",""
13.0,0.0419914536178112,0.0019300879282111083,"train",14140.0,"2021-11-19 18:43:13.255581","","","","","","",""
13.0,0.036497313529253006,0.0019314839146842185,"train",14160.0,"2021-11-19 18:43:16.469525","","","","","","",""
13.0,0.047782983630895615,0.0019328663387890076,"train",14180.0,"2021-11-19 18:43:19.704297","","","","","","",""
13.0,0.0506676621735096,0.0019342351794943119,"train",14200.0,"2021-11-19 18:43:22.916518","","","","","","",""
13.0,0.0503322072327137,0.0019355904159756138,"train",14220.0,"2021-11-19 18:43:26.147807","","","","","","",""
13.0,0.06141653656959534,0.0019369320276153613,"train",14240.0,"2021-11-19 18:43:29.892878","","","","","","",""
13.0,0.04277535900473595,0.00193825999400328,"train",14260.0,"2021-11-19 18:43:33.112670","","","","","","",""
13.0,0.06160232797265053,0.0019395742949366843,"train",14280.0,"2021-11-19 18:43:36.337044","","","","","","",""
13.0,0.04045318439602852,0.0019408749104207845,"train",14300.0,"2021-11-19 18:43:39.529186","","","","","","",""
13.0,0.04801522195339203,0.0019421618206689913,"train",14320.0,"2021-11-19 18:43:43.204485","","","","","","",""
13.0,0.06227376312017441,0.0019434350061032163,"train",14340.0,"2021-11-19 18:43:46.551015","","","","","","",""
13.0,0.08683883398771286,0.0019446944473541703,"train",14360.0,"2021-11-19 18:43:49.880472","","","","","","",""
13.0,0.05985618010163307,0.0019459401252616573,"train",14380.0,"2021-11-19 18:43:53.136730","","","","","","",""
13.0,0.04809638485312462,0.001947172020874868,"train",14400.0,"2021-11-19 18:43:56.371377","","","","","","",""
13.0,0.04797591641545296,0.0019483901154526647,"train",14420.0,"2021-11-19 18:44:00.078699","","","","","","",""
13.0,0.07642931491136551,0.0019495943904638694,"train",14440.0,"2021-11-19 18:44:03.342740","","","","","","",""
13.0,0.05781117081642151,0.0019507848275875444,"train",14460.0,"2021-11-19 18:44:06.590352","","","","","","",""
13.0,0.07948841154575348,0.0019519614087132712,"train",14480.0,"2021-11-19 18:44:09.788350","","","","","","",""
13.0,0.04367147386074066,0.0019531241159414263,"train",14500.0,"2021-11-19 18:44:12.996621","","","","","","",""
13.0,0.03489498049020767,0.001954272931583453,"train",14520.0,"2021-11-19 18:44:16.643544","","","","","","",""
13.0,0.038394805043935776,0.0019554078381621306,"train",14540.0,"2021-11-19 18:44:19.803697","","","","","","",""
13.0,0.044714026153087616,0.0019565288184118417,"train",14560.0,"2021-11-19 18:44:23.023188","","","","","","",""
13.0,0.06893204897642136,0.0019576358552788314,"train",14580.0,"2021-11-19 18:44:26.241625","","","","","","",""
13.0,0.02283073030412197,0.0019587289319214713,"train",14600.0,"2021-11-19 18:44:29.436791","","","","","","",""
13.0,0.04537421464920044,0.0019598080317105113,"train",14620.0,"2021-11-19 18:44:33.068408","","","","","","",""
13.0,0.03303280845284462,0.001960873138229337,"train",14640.0,"2021-11-19 18:44:36.270850","","","","","","",""
13.0,0.04581768065690994,0.0019619242352742153,"train",14660.0,"2021-11-19 18:44:39.474518","","","","","","",""
13.0,0.05847977474331856,0.001962961306854543,"train",14680.0,"2021-11-19 18:44:42.679074","","","","","","",""
13.0,0.0377071276307106,0.0019639843371930905,"train",14700.0,"2021-11-19 18:44:45.852399","","","","","","",""
13.0,0.0415235310792923,0.001964993310726241,"train",14720.0,"2021-11-19 18:44:49.468439","","","","","","",""
13.0,0.04383201152086258,0.0019659882121042262,"train",14740.0,"2021-11-19 18:44:52.622660","","","","","","",""
13.0,0.07034453004598618,0.001966969026191363,"train",14760.0,"2021-11-19 18:44:55.773486","","","","","","",""
13.0,0.040813300758600235,0.0019679357380662805,"train",14780.0,"2021-11-19 18:44:58.927656","","","","","","",""
13.0,0.045776672661304474,0.001968888333022148,"train",14800.0,"2021-11-19 18:45:02.623210","","","","","","",""
13.0,0.05467795953154564,0.0019698267965669,"train",14820.0,"2021-11-19 18:45:05.832580","","","","","","",""
13.0,0.05126295983791351,0.0019707511144234557,"train",14840.0,"2021-11-19 18:45:09.016579","","","","","","",""
13.0,0.040137726813554764,0.001971661272529935,"train",14860.0,"2021-11-19 18:45:12.263999","","","","","","",""
13.0,0.037525951862335205,0.001972557257039875,"train",14880.0,"2021-11-19 18:45:15.443799","","","","","","",""
13.0,0.05896642059087753,0.0019734390543224385,"train",14900.0,"2021-11-19 18:45:19.043402","","","","","","",""
13.0,0.03119700402021408,0.001974306650962622,"train",14920.0,"2021-11-19 18:45:22.160484","","","","","","",""
13.0,0.04361704736948013,0.0019751600337614608,"train",14940.0,"2021-11-19 18:45:25.302424","","","","","","",""
13.0,0.04678691551089287,0.0019759991897362284,"train",14960.0,"2021-11-19 18:45:28.396489","","","","","","",""
13.0,0.033079035580158234,0.0019768241061206343,"train",14980.0,"2021-11-19 18:45:31.498919","","","","","","",""
13.0,0.07105544954538345,0.0019776347703650186,"train",15000.0,"2021-11-19 18:45:35.117166","","","","","","",""
13.0,0.08018644154071808,0.001978431170136543,"train",15020.0,"2021-11-19 18:45:38.287415","","","","","","",""
13.0,"","","train",15036.0,"2021-11-19 18:47:30.252992",0.663246743796842,0.7308422393128734,0.9754887242283622,0.6797137597898449,0.5729971773041522,0.600599502595766,0.41329348789023407
13.0,"","","val",15036.0,"2021-11-19 18:48:01.463441",0.6153310912675403,0.6215845928976175,0.957973864517241,0.617549461586084,0.5081405826026024,0.5267185756828576,0.34394425637358533
14.0,0.060296930372714996,0.0019792132933193784,"train",15040.0,"2021-11-19 18:48:06.371788","","","","","","",""
14.0,0.07383779436349869,0.001979981128014888,"train",15060.0,"2021-11-19 18:48:09.691858","","","","","","",""
14.0,0.05257021263241768,0.001980734662541811,"train",15080.0,"2021-11-19 18:48:13.496667","","","","","","",""
14.0,0.036274101585149765,0.0019814738854364374,"train",15100.0,"2021-11-19 18:48:16.742705","","","","","","",""
14.0,0.043641943484544754,0.0019821987854527832,"train",15120.0,"2021-11-19 18:48:20.019892","","","","","","",""
14.0,0.05629609525203705,0.0019829093515627634,"train",15140.0,"2021-11-19 18:48:23.304632","","","","","","",""
14.0,0.039352428168058395,0.001983605572956358,"train",15160.0,"2021-11-19 18:48:27.188181","","","","","","",""
14.0,0.043287165462970734,0.001984287439041775,"train",15180.0,"2021-11-19 18:48:30.568608","","","","","","",""
14.0,0.04941317066550255,0.001984954939445616,"train",15200.0,"2021-11-19 18:48:33.815019","","","","","","",""
14.0,0.030811656266450882,0.0019856080640130295,"train",15220.0,"2021-11-19 18:48:37.080681","","","","","","",""
14.0,0.05880913510918617,0.0019862468028078676,"train",15240.0,"2021-11-19 18:48:40.841823","","","","","","",""
14.0,0.03431328386068344,0.001986871146112837,"train",15260.0,"2021-11-19 18:48:44.108629","","","","","","",""
14.0,0.030748331919312477,0.0019874810844296466,"train",15280.0,"2021-11-19 18:48:47.296869","","","","","","",""
14.0,0.0386851541697979,0.0019880766084791517,"train",15300.0,"2021-11-19 18:48:50.563009","","","","","","",""
14.0,0.046106643974781036,0.0019886577092014953,"train",15320.0,"2021-11-19 18:48:54.393988","","","","","","",""
14.0,0.047272320836782455,0.001989224377756247,"train",15340.0,"2021-11-19 18:48:57.598957","","","","","","",""
14.0,0.07160454243421555,0.0019897766055225353,"train",15360.0,"2021-11-19 18:49:00.791807","","","","","","",""
14.0,0.04163624718785286,0.0019903143840991813,"train",15380.0,"2021-11-19 18:49:03.952085","","","","","","",""
14.0,0.04142335429787636,0.0019908377053048246,"train",15400.0,"2021-11-19 18:49:07.589413","","","","","","",""
14.0,0.047695476561784744,0.001991346561178048,"train",15420.0,"2021-11-19 18:49:10.779710","","","","","","",""
14.0,0.04918796569108963,0.0019918409439775003,"train",15440.0,"2021-11-19 18:49:13.962720","","","","","","",""
14.0,0.03094152919948101,0.0019923208461820117,"train",15460.0,"2021-11-19 18:49:17.118054","","","","","","",""
14.0,0.0845358669757843,0.001992786260490709,"train",15480.0,"2021-11-19 18:49:20.732675","","","","","","",""
14.0,0.05716598778963089,0.0019932371798231287,"train",15500.0,"2021-11-19 18:49:23.913228","","","","","","",""
14.0,0.03796481713652611,0.0019936735973193212,"train",15520.0,"2021-11-19 18:49:27.066801","","","","","","",""
14.0,0.055453214794397354,0.001994095506339958,"train",15540.0,"2021-11-19 18:49:30.247414","","","","","","",""
14.0,0.03233974054455757,0.001994502900466431,"train",15560.0,"2021-11-19 18:49:33.940919","","","","","","",""
14.0,0.04587038233876228,0.0019948957735009517,"train",15580.0,"2021-11-19 18:49:37.155873","","","","","","",""
14.0,0.046264585107564926,0.0019952741194666436,"train",15600.0,"2021-11-19 18:49:40.373182","","","","","","",""
14.0,0.0384029746055603,0.0019956379326076354,"train",15620.0,"2021-11-19 18:49:43.614216","","","","","","",""
14.0,0.06913520395755768,0.001995987207389146,"train",15640.0,"2021-11-19 18:49:47.352579","","","","","","",""
14.0,0.0375005267560482,0.0019963219384975706,"train",15660.0,"2021-11-19 18:49:50.605145","","","","","","",""
14.0,0.06536556780338287,0.001996642120840561,"train",15680.0,"2021-11-19 18:49:53.787709","","","","","","",""
14.0,0.06448198854923248,0.001996947749547103,"train",15700.0,"2021-11-19 18:49:56.931437","","","","","","",""
14.0,0.05808211490511894,0.0019972388199675905,"train",15720.0,"2021-11-19 18:50:00.576896","","","","","","",""
14.0,0.051930006593465805,0.001997515327673896,"train",15740.0,"2021-11-19 18:50:03.713902","","","","","","",""
14.0,0.028253359720110893,0.0019977772684594388,"train",15760.0,"2021-11-19 18:50:06.860299","","","","","","",""
14.0,0.050461962819099426,0.0019980246383392475,"train",15780.0,"2021-11-19 18:50:10.067821","","","","","","",""
14.0,0.03280581161379814,0.0019982574335500225,"train",15800.0,"2021-11-19 18:50:13.750699","","","","","","",""
14.0,0.046635545790195465,0.001998475650550192,"train",15820.0,"2021-11-19 18:50:16.911932","","","","","","",""
14.0,0.04759752005338669,0.0019986792860199657,"train",15840.0,"2021-11-19 18:50:20.052081","","","","","","",""
14.0,0.035108473151922226,0.001998868336861386,"train",15860.0,"2021-11-19 18:50:23.236882","","","","","","",""
14.0,0.04935513436794281,0.001999042800198376,"train",15880.0,"2021-11-19 18:50:26.940463","","","","","","",""
14.0,0.05319495126605034,0.00199920267337678,"train",15900.0,"2021-11-19 18:50:30.205702","","","","","","",""
14.0,0.03739301115274429,0.0019993479539644077,"train",15920.0,"2021-11-19 18:50:33.437299","","","","","","",""
14.0,0.04825012758374214,0.0019994786397510697,"train",15940.0,"2021-11-19 18:50:36.712789","","","","","","",""
14.0,0.04203338176012039,0.0019995947287486096,"train",15960.0,"2021-11-19 18:50:40.403104","","","","","","",""
14.0,0.055362433195114136,0.0019996962191909367,"train",15980.0,"2021-11-19 18:50:43.588444","","","","","","",""
14.0,0.047211162745952606,0.0019997831095340513,"train",16000.0,"2021-11-19 18:50:46.778136","","","","","","",""
14.0,0.06902973353862762,0.001999855398456069,"train",16020.0,"2021-11-19 18:50:49.978317","","","","","","",""
14.0,0.061495743691921234,0.00199991308485724,"train",16040.0,"2021-11-19 18:50:53.681460","","","","","","",""
14.0,0.04408573359251022,0.001999956167859967,"train",16060.0,"2021-11-19 18:50:56.847002","","","","","","",""
14.0,0.04084903746843338,0.0019999846468088172,"train",16080.0,"2021-11-19 18:51:00.061179","","","","","","",""
14.0,0.03756061941385269,0.0019999985212705335,"train",16100.0,"2021-11-19 18:51:03.266811","","","","","","",""
14.0,"","","train",16110.0,"2021-11-19 18:52:51.319619",0.6689223604744233,0.7421891785044834,0.976529719871152,0.6777415661106369,0.5808522110140582,0.6075364263194273,0.42315231899291217
14.0,"","","val",16110.0,"2021-11-19 18:53:23.890267",0.6130117128609532,0.6234278956600966,0.9567994178234718,0.6115718300765176,0.5066906960894607,0.5296925493690784,0.34231647988705266
15.0,0.05100885033607483,0.0019999995774202316,"train",16120.0,"2021-11-19 18:53:30.290084","","","","","","",""
15.0,0.03629689663648605,0.0019999966438102564,"train",16140.0,"2021-11-19 18:53:33.438306","","","","","","",""
15.0,0.05905339494347572,0.0019999909162942875,"train",16160.0,"2021-11-19 18:53:36.578044","","","","","","",""
15.0,0.0482141338288784,0.001999982394888327,"train",16180.0,"2021-11-19 18:53:39.789254","","","","","","",""
15.0,0.05451549217104912,0.0019999710796161823,"train",16200.0,"2021-11-19 18:53:42.988695","","","","","","",""
15.0,0.052898671478033066,0.0019999569705094686,"train",16220.0,"2021-11-19 18:53:46.204406","","","","","","",""
15.0,0.0802011713385582,0.001999940067607605,"train",16240.0,"2021-11-19 18:53:49.906260","","","","","","",""
15.0,0.039771925657987595,0.001999920370957817,"train",16260.0,"2021-11-19 18:53:53.142090","","","","","","",""
15.0,0.03843215852975845,0.0019998978806151355,"train",16280.0,"2021-11-19 18:53:56.422785","","","","","","",""
15.0,0.04146936535835266,0.0019998725966423976,"train",16300.0,"2021-11-19 18:53:59.750394","","","","","","",""
15.0,0.04088083654642105,0.001999844519110244,"train",16320.0,"2021-11-19 18:54:02.975239","","","","","","",""
15.0,0.06652778387069702,0.001999813648097122,"train",16340.0,"2021-11-19 18:54:06.186906","","","","","","",""
15.0,0.05053238943219185,0.001999779983689282,"train",16360.0,"2021-11-19 18:54:09.830978","","","","","","",""
15.0,0.05618787929415703,0.0019997435259807806,"train",16380.0,"2021-11-19 18:54:12.994159","","","","","","",""
15.0,0.05910167098045349,0.001999704275073478,"train",16400.0,"2021-11-19 18:54:16.156206","","","","","","",""
15.0,0.04374159500002861,0.0019996622310770383,"train",16420.0,"2021-11-19 18:54:19.438309","","","","","","",""
15.0,0.03668971732258797,0.0019996173941089286,"train",16440.0,"2021-11-19 18:54:22.756635","","","","","","",""
15.0,0.05613120272755623,0.0019995697642944212,"train",16460.0,"2021-11-19 18:54:26.090780","","","","","","",""
15.0,0.05451705679297447,0.0019995193417665894,"train",16480.0,"2021-11-19 18:54:29.970528","","","","","","",""
15.0,0.052824586629867554,0.0019994661266663108,"train",16500.0,"2021-11-19 18:54:33.342465","","","","","","",""
15.0,0.07563509047031403,0.001999410119142264,"train",16520.0,"2021-11-19 18:54:36.541018","","","","","","",""
15.0,0.027082467451691628,0.0019993513193509297,"train",16540.0,"2021-11-19 18:54:39.651492","","","","","","",""
15.0,0.03325739875435829,0.0019992897274565906,"train",16560.0,"2021-11-19 18:54:42.806301","","","","","","",""
15.0,0.03291039541363716,0.0019992253436313303,"train",16580.0,"2021-11-19 18:54:46.033611","","","","","","",""
15.0,0.059620052576065063,0.0019991581680550313,"train",16600.0,"2021-11-19 18:54:49.675551","","","","","","",""
15.0,0.04185272008180618,0.0019990882009153785,"train",16620.0,"2021-11-19 18:54:52.826886","","","","","","",""
15.0,0.029696298763155937,0.001999015442407854,"train",16640.0,"2021-11-19 18:54:55.861307","","","","","","",""
15.0,0.04177273437380791,0.0019989398927357403,"train",16660.0,"2021-11-19 18:54:58.872538","","","","","","",""
15.0,0.03654514625668526,0.0019988615521101174,"train",16680.0,"2021-11-19 18:55:01.842559","","","","","","",""
15.0,0.07027182728052139,0.0019987804207498637,"train",16700.0,"2021-11-19 18:55:04.976494","","","","","","",""
15.0,0.03906905651092529,0.0019986964988816533,"train",16720.0,"2021-11-19 18:55:08.604919","","","","","","",""
15.0,0.08672496676445007,0.0019986097867399585,"train",16740.0,"2021-11-19 18:55:11.753928","","","","","","",""
15.0,0.060195811092853546,0.0019985202845670463,"train",16760.0,"2021-11-19 18:55:14.919723","","","","","","",""
15.0,0.05092812702059746,0.0019984279926129798,"train",16780.0,"2021-11-19 18:55:18.117834","","","","","","",""
15.0,0.0643128901720047,0.001998332911135615,"train",16800.0,"2021-11-19 18:55:21.314370","","","","","","",""
15.0,0.04251393303275108,0.0019982350404006036,"train",16820.0,"2021-11-19 18:55:24.492854","","","","","","",""
15.0,0.0829537883400917,0.0019981343806813883,"train",16840.0,"2021-11-19 18:55:28.127927","","","","","","",""
15.0,0.05864175781607628,0.001998030932259205,"train",16860.0,"2021-11-19 18:55:31.259691","","","","","","",""
15.0,0.04485560208559036,0.0019979246954230823,"train",16880.0,"2021-11-19 18:55:34.372154","","","","","","",""
15.0,0.04662170633673668,0.0019978156704698363,"train",16900.0,"2021-11-19 18:55:37.586478","","","","","","",""
15.0,0.03880702704191208,0.001997703857704076,"train",16920.0,"2021-11-19 18:55:40.806623","","","","","","",""
15.0,0.051128800958395004,0.0019975892574381976,"train",16940.0,"2021-11-19 18:55:43.944212","","","","","","",""
15.0,0.04232243448495865,0.001997471869992386,"train",16960.0,"2021-11-19 18:55:47.536860","","","","","","",""
15.0,0.03517402336001396,0.0019973516956946127,"train",16980.0,"2021-11-19 18:55:50.683520","","","","","","",""
15.0,0.04886579513549805,0.0019972287348806366,"train",17000.0,"2021-11-19 18:55:53.725790","","","","","","",""
15.0,0.06782551109790802,0.0019971029878940003,"train",17020.0,"2021-11-19 18:55:56.811961","","","","","","",""
15.0,0.0644802674651146,0.0019969744550860317,"train",17040.0,"2021-11-19 18:55:59.884444","","","","","","",""
15.0,0.05893712863326073,0.0019968431368158433,"train",17060.0,"2021-11-19 18:56:03.019988","","","","","","",""
15.0,0.05612724646925926,0.001996709033450327,"train",17080.0,"2021-11-19 18:56:06.648062","","","","","","",""
15.0,0.03990243002772331,0.0019965721453641585,"train",17100.0,"2021-11-19 18:56:09.824756","","","","","","",""
15.0,0.0668211355805397,0.0019964324729397935,"train",17120.0,"2021-11-19 18:56:13.038119","","","","","","",""
15.0,0.03431691601872444,0.0019962900165674657,"train",17140.0,"2021-11-19 18:56:16.249589","","","","","","",""
15.0,0.050887927412986755,0.0019961447766451887,"train",17160.0,"2021-11-19 18:56:19.452558","","","","","","",""
15.0,0.07519020140171051,0.001995996753578751,"train",17180.0,"2021-11-19 18:56:22.644082","","","","","","",""
15.0,"","","train",17184.0,"2021-11-19 18:58:13.263659",0.6708142327002837,0.7501308496942343,0.9767491489754941,0.6917169899932224,0.5973272941363778,0.6297321061311462,0.4309377111115752
15.0,"","","val",17184.0,"2021-11-19 18:58:52.694926",0.6065174533225096,0.6153484289109863,0.9513666483905319,0.6159561430867735,0.5043944226805521,0.5293034647802639,0.3389755269225311
16.0,0.045934807509183884,0.001995845947781719,"train",17200.0,"2021-11-19 18:58:59.673801","","","","","","",""
16.0,0.03264041990041733,0.001995692359675433,"train",17220.0,"2021-11-19 18:59:02.934759","","","","","","",""
16.0,0.04164362698793411,0.0019955359896890066,"train",17240.0,"2021-11-19 18:59:06.213860","","","","","","",""
16.0,0.038010548800230026,0.0019953768382593258,"train",17260.0,"2021-11-19 18:59:09.448255","","","","","","",""
16.0,0.04086998850107193,0.0019952149058310486,"train",17280.0,"2021-11-19 18:59:12.567084","","","","","","",""
16.0,0.05572282150387764,0.001995050192856602,"train",17300.0,"2021-11-19 18:59:15.613717","","","","","","",""
16.0,0.02854888327419758,0.001994882699796182,"train",17320.0,"2021-11-19 18:59:19.387093","","","","","","",""
16.0,0.027487777173519135,0.001994712427117752,"train",17340.0,"2021-11-19 18:59:22.622172","","","","","","",""
16.0,0.06714372336864471,0.0019945393752970413,"train",17360.0,"2021-11-19 18:59:25.998743","","","","","","",""
16.0,0.04565897583961487,0.001994363544817544,"train",17380.0,"2021-11-19 18:59:29.311768","","","","","","",""
16.0,0.03284667059779167,0.001994184936170517,"train",17400.0,"2021-11-19 18:59:32.545407","","","","","","",""
16.0,0.042238589376211166,0.0019940035498549804,"train",17420.0,"2021-11-19 18:59:36.262594","","","","","","",""
16.0,0.03678768500685692,0.0019938193863777145,"train",17440.0,"2021-11-19 18:59:39.501974","","","","","","",""
16.0,0.033098749816417694,0.001993632446253258,"train",17460.0,"2021-11-19 18:59:42.687375","","","","","","",""
16.0,0.020978230983018875,0.0019934427300039074,"train",17480.0,"2021-11-19 18:59:45.888556","","","","","","",""
16.0,0.03047746606171131,0.001993250238159717,"train",17500.0,"2021-11-19 18:59:49.120275","","","","","","",""
16.0,0.0330098420381546,0.0019930549712584944,"train",17520.0,"2021-11-19 18:59:52.319641","","","","","","",""
16.0,0.05559143051505089,0.001992856929845801,"train",17540.0,"2021-11-19 18:59:55.997814","","","","","","",""
16.0,0.04731663689017296,0.0019926561144749497,"train",17560.0,"2021-11-19 18:59:59.219102","","","","","","",""
16.0,0.06122099980711937,0.001992452525707004,"train",17580.0,"2021-11-19 19:00:02.510253","","","","","","",""
16.0,0.07201892137527466,0.0019922461641107767,"train",17600.0,"2021-11-19 19:00:05.771318","","","","","","",""
16.0,0.03270622342824936,0.001992037030262826,"train",17620.0,"2021-11-19 19:00:09.025675","","","","","","",""
16.0,0.06043116748332977,0.0019918251247474567,"train",17640.0,"2021-11-19 19:00:12.407249","","","","","","",""
16.0,0.04353422671556473,0.001991610448156718,"train",17660.0,"2021-11-19 19:00:16.193543","","","","","","",""
16.0,0.062372468411922455,0.0019913930010903996,"train",17680.0,"2021-11-19 19:00:19.420983","","","","","","",""
16.0,0.05233364924788475,0.001991172784156033,"train",17700.0,"2021-11-19 19:00:22.668559","","","","","","",""
16.0,0.05221950262784958,0.0019909497979688877,"train",17720.0,"2021-11-19 19:00:25.926164","","","","","","",""
16.0,0.054163817316293716,0.0019907240431519713,"train",17740.0,"2021-11-19 19:00:29.148197","","","","","","",""
16.0,0.07028450071811676,0.001990495520336026,"train",17760.0,"2021-11-19 19:00:32.361483","","","","","","",""
16.0,0.03380931541323662,0.0019902642301595284,"train",17780.0,"2021-11-19 19:00:36.068042","","","","","","",""
16.0,0.047680020332336426,0.001990030173268685,"train",17800.0,"2021-11-19 19:00:39.344450","","","","","","",""
16.0,0.03954678773880005,0.0019897933503174345,"train",17820.0,"2021-11-19 19:00:42.536506","","","","","","",""
16.0,0.04120057448744774,0.0019895537619674425,"train",17840.0,"2021-11-19 19:00:45.751959","","","","","","",""
16.0,0.036095038056373596,0.001989311408888101,"train",17860.0,"2021-11-19 19:00:49.029971","","","","","","",""
16.0,0.04475417360663414,0.001989066291756527,"train",17880.0,"2021-11-19 19:00:52.326539","","","","","","",""
16.0,0.054647404700517654,0.00198881841125756,"train",17900.0,"2021-11-19 19:00:56.086824","","","","","","",""
16.0,0.06631764769554138,0.0019885677680837595,"train",17920.0,"2021-11-19 19:00:59.347695","","","","","","",""
16.0,0.05002719908952713,0.001988314362935404,"train",17940.0,"2021-11-19 19:01:02.577124","","","","","","",""
16.0,0.048192091286182404,0.0019880581965204896,"train",17960.0,"2021-11-19 19:01:05.810316","","","","","","",""
16.0,0.04064125567674637,0.0019877992695547255,"train",17980.0,"2021-11-19 19:01:09.075336","","","","","","",""
16.0,0.030560176819562912,0.0019875375827615354,"train",18000.0,"2021-11-19 19:01:12.398907","","","","","","",""
16.0,0.04385289549827576,0.0019872731368720527,"train",18020.0,"2021-11-19 19:01:16.121516","","","","","","",""
16.0,0.039492715150117874,0.00198700593262512,"train",18040.0,"2021-11-19 19:01:19.386600","","","","","","",""
16.0,0.049474120140075684,0.001986735970767286,"train",18060.0,"2021-11-19 19:01:22.611141","","","","","","",""
16.0,0.04258713498711586,0.001986463252052804,"train",18080.0,"2021-11-19 19:01:25.799804","","","","","","",""
16.0,0.03545751795172691,0.0019861877772436305,"train",18100.0,"2021-11-19 19:01:29.041003","","","","","","",""
16.0,0.0424630306661129,0.001985909547109422,"train",18120.0,"2021-11-19 19:01:32.298495","","","","","","",""
16.0,0.039526987820863724,0.001985628562427533,"train",18140.0,"2021-11-19 19:01:36.012986","","","","","","",""
16.0,0.037311069667339325,0.001985344823983014,"train",18160.0,"2021-11-19 19:01:39.232187","","","","","","",""
16.0,0.0332450270652771,0.001985058332568609,"train",18180.0,"2021-11-19 19:01:42.524016","","","","","","",""
16.0,0.04684581235051155,0.001984769088984755,"train",18200.0,"2021-11-19 19:01:45.746691","","","","","","",""
16.0,0.04365061968564987,0.001984477094039576,"train",18220.0,"2021-11-19 19:01:49.012995","","","","","","",""
16.0,0.06408228725194931,0.001984182348548885,"train",18240.0,"2021-11-19 19:01:52.256854","","","","","","",""
16.0,"","","train",18258.0,"2021-11-19 19:03:50.344867",0.6636833296951176,0.7751168048793144,0.980648572587463,0.720715318377044,0.6309584814591839,0.6563440293344738,0.4594646149764329
16.0,"","","val",18258.0,"2021-11-19 19:04:23.269671",0.5968340484750086,0.6394393472569775,0.9587534517958802,0.640218263566602,0.5439460350358039,0.5605732597883429,0.36429364960265426
17.0,0.07116111367940903,0.00198388485333618,"train",18260.0,"2021-11-19 19:04:27.871303","","","","","","",""
17.0,0.05008092522621155,0.0019835846092326396,"train",18280.0,"2021-11-19 19:04:31.256390","","","","","","",""
17.0,0.048239100724458694,0.0019832816170771246,"train",18300.0,"2021-11-19 19:04:34.505171","","","","","","",""
17.0,0.06934274733066559,0.001982975877716172,"train",18320.0,"2021-11-19 19:04:37.788866","","","","","","",""
17.0,0.04339976608753204,0.0019826673920039957,"train",18340.0,"2021-11-19 19:04:41.045243","","","","","","",""
17.0,0.04409471154212952,0.0019823561608024822,"train",18360.0,"2021-11-19 19:04:44.344830","","","","","","",""
17.0,0.033518772572278976,0.0019820421849811886,"train",18380.0,"2021-11-19 19:04:48.267502","","","","","","",""
17.0,0.049104079604148865,0.0019817254654173402,"train",18400.0,"2021-11-19 19:04:51.514949","","","","","","",""
17.0,0.03139173611998558,0.0019814060029958278,"train",18420.0,"2021-11-19 19:04:54.721497","","","","","","",""
17.0,0.03285801038146019,0.001981083798609206,"train",18440.0,"2021-11-19 19:04:57.923864","","","","","","",""
17.0,0.0512881837785244,0.0019807588531576908,"train",18460.0,"2021-11-19 19:05:01.114227","","","","","","",""
17.0,0.037463415414094925,0.0019804311675491555,"train",18480.0,"2021-11-19 19:05:04.818066","","","","","","",""
17.0,0.02772204391658306,0.00198010074269913,"train",18500.0,"2021-11-19 19:05:08.013148","","","","","","",""
17.0,0.04994012787938118,0.0019797675795307965,"train",18520.0,"2021-11-19 19:05:11.213694","","","","","","",""
17.0,0.05372157692909241,0.0019794316789749885,"train",18540.0,"2021-11-19 19:05:14.375799","","","","","","",""
17.0,0.03517543151974678,0.0019790930419701877,"train",18560.0,"2021-11-19 19:05:17.613457","","","","","","",""
17.0,0.07978831976652145,0.0019787516694625214,"train",18580.0,"2021-11-19 19:05:20.793723","","","","","","",""
17.0,0.048854466527700424,0.0019784075624057584,"train",18600.0,"2021-11-19 19:05:24.519449","","","","","","",""
17.0,0.07805068790912628,0.0019780607217613094,"train",18620.0,"2021-11-19 19:05:27.798638","","","","","","",""
17.0,0.06586764007806778,0.001977711148498221,"train",18640.0,"2021-11-19 19:05:31.088452","","","","","","",""
17.0,0.03462320938706398,0.0019773588435931756,"train",18660.0,"2021-11-19 19:05:34.333832","","","","","","",""
17.0,0.03958293795585632,0.0019770038080304873,"train",18680.0,"2021-11-19 19:05:37.597762","","","","","","",""
17.0,0.06801164895296097,0.001976646042802099,"train",18700.0,"2021-11-19 19:05:40.847499","","","","","","",""
17.0,0.039488740265369415,0.0019762855489075808,"train",18720.0,"2021-11-19 19:05:44.563603","","","","","","",""
17.0,0.037959564477205276,0.001975922327354126,"train",18740.0,"2021-11-19 19:05:47.807126","","","","","","",""
17.0,0.047374580055475235,0.001975556379156549,"train",18760.0,"2021-11-19 19:05:51.010404","","","","","","",""
17.0,0.029095906764268875,0.0019751877053372823,"train",18780.0,"2021-11-19 19:05:54.192392","","","","","","",""
17.0,0.04809826239943504,0.001974816306926373,"train",18800.0,"2021-11-19 19:05:57.376100","","","","","","",""
17.0,0.04915323853492737,0.001974442184961482,"train",18820.0,"2021-11-19 19:06:00.655446","","","","","","",""
17.0,0.03711317852139473,0.0019740653404878776,"train",18840.0,"2021-11-19 19:06:04.352950","","","","","","",""
17.0,0.02700403891503811,0.0019736857745584362,"train",18860.0,"2021-11-19 19:06:07.537841","","","","","","",""
17.0,0.0594063363969326,0.0019733034882336367,"train",18880.0,"2021-11-19 19:06:10.694681","","","","","","",""
17.0,0.06943781673908234,0.0019729184825815586,"train",18900.0,"2021-11-19 19:06:13.852509","","","","","","",""
17.0,0.0431818924844265,0.0019725307586778806,"train",18920.0,"2021-11-19 19:06:16.992677","","","","","","",""
17.0,0.07442314177751541,0.001972140317605874,"train",18940.0,"2021-11-19 19:06:20.157972","","","","","","",""
17.0,0.05739245563745499,0.0019717471604564028,"train",18960.0,"2021-11-19 19:06:23.780024","","","","","","",""
17.0,0.049395911395549774,0.0019713512883279185,"train",18980.0,"2021-11-19 19:06:26.959166","","","","","","",""
17.0,0.05351795628666878,0.00197095270232646,"train",19000.0,"2021-11-19 19:06:30.152519","","","","","","",""
17.0,0.049885522574186325,0.001970551403565646,"train",19020.0,"2021-11-19 19:06:33.399988","","","","","","",""
17.0,0.03828231990337372,0.0019701473931666765,"train",19040.0,"2021-11-19 19:06:36.720106","","","","","","",""
17.0,0.0685025006532669,0.001969740672258327,"train",19060.0,"2021-11-19 19:06:40.030606","","","","","","",""
17.0,0.0459207259118557,0.0019693312419769454,"train",19080.0,"2021-11-19 19:06:43.828093","","","","","","",""
17.0,0.06711150705814362,0.0019689191034664498,"train",19100.0,"2021-11-19 19:06:47.185809","","","","","","",""
17.0,0.07677534967660904,0.0019685042578783257,"train",19120.0,"2021-11-19 19:06:50.398241","","","","","","",""
17.0,0.04859697073698044,0.00196808670637162,"train",19140.0,"2021-11-19 19:06:53.570424","","","","","","",""
17.0,0.05704519525170326,0.001967666450112942,"train",19160.0,"2021-11-19 19:06:56.727655","","","","","","",""
17.0,0.04556085541844368,0.001967243490276456,"train",19180.0,"2021-11-19 19:06:59.863781","","","","","","",""
17.0,0.03339703008532524,0.0019668178280438818,"train",19200.0,"2021-11-19 19:07:03.507240","","","","","","",""
17.0,0.028760649263858795,0.0019663894646044875,"train",19220.0,"2021-11-19 19:07:06.691691","","","","","","",""
17.0,0.057489920407533646,0.001965958401155089,"train",19240.0,"2021-11-19 19:07:09.909690","","","","","","",""
17.0,0.05712662637233734,0.0019655246389000463,"train",19260.0,"2021-11-19 19:07:13.083224","","","","","","",""
17.0,0.032177526503801346,0.0019650881790512597,"train",19280.0,"2021-11-19 19:07:16.283141","","","","","","",""
17.0,0.04937177151441574,0.001964649022828165,"train",19300.0,"2021-11-19 19:07:19.466065","","","","","","",""
17.0,0.06095675379037857,0.0019642071714577325,"train",19320.0,"2021-11-19 19:07:23.177425","","","","","","",""
17.0,"","","train",19332.0,"2021-11-19 19:09:13.537615",0.6900531179509568,0.7900188376212955,0.9828162374940768,0.7085255638246915,0.6342317204651126,0.6679914136412373,0.46621420694099436
17.0,"","","val",19332.0,"2021-11-19 19:09:46.143512",0.6158529514090224,0.6323512625703114,0.9573814674908068,0.6198126897728904,0.5284797517230014,0.5542225691609721,0.3553824932623204
18.0,0.06942292302846909,0.0019637626261744634,"train",19340.0,"2021-11-19 19:09:51.825275","","","","","","",""
18.0,0.0333278588950634,0.001963315388220384,"train",19360.0,"2021-11-19 19:09:55.183830","","","","","","",""
18.0,0.05802867189049721,0.0019628654588450443,"train",19380.0,"2021-11-19 19:09:58.559255","","","","","","",""
18.0,0.03169272467494011,0.001962412839305514,"train",19400.0,"2021-11-19 19:10:01.793995","","","","","","",""
18.0,0.05156369507312775,0.0019619575308663785,"train",19420.0,"2021-11-19 19:10:05.713143","","","","","","",""
18.0,0.06001518666744232,0.001961499534799737,"train",19440.0,"2021-11-19 19:10:08.908761","","","","","","",""
18.0,0.06439624726772308,0.001961038852385196,"train",19460.0,"2021-11-19 19:10:12.153445","","","","","","",""
18.0,0.07260506600141525,0.0019605754849098683,"train",19480.0,"2021-11-19 19:10:15.445793","","","","","","",""
18.0,0.04498707130551338,0.0019601094336683693,"train",19500.0,"2021-11-19 19:10:18.753261","","","","","","",""
18.0,0.0706225112080574,0.0019596406999628116,"train",19520.0,"2021-11-19 19:10:22.568131","","","","","","",""
18.0,0.03137878328561783,0.0019591692851028022,"train",19540.0,"2021-11-19 19:10:25.918878","","","","","","",""
18.0,0.027391580864787102,0.001958695190405441,"train",19560.0,"2021-11-19 19:10:29.250764","","","","","","",""
18.0,0.041164498776197433,0.001958218417195312,"train",19580.0,"2021-11-19 19:10:32.588955","","","","","","",""
18.0,0.06743772327899933,0.001957738966804486,"train",19600.0,"2021-11-19 19:10:36.477414","","","","","","",""
18.0,0.0506085529923439,0.001957256840572511,"train",19620.0,"2021-11-19 19:10:39.876283","","","","","","",""
18.0,0.07244733721017838,0.0019567720398464133,"train",19640.0,"2021-11-19 19:10:42.970126","","","","","","",""
18.0,0.04155578091740608,0.00195628456598069,"train",19660.0,"2021-11-19 19:10:46.157370","","","","","","",""
18.0,0.04667318984866142,0.001955794420337307,"train",19680.0,"2021-11-19 19:10:49.294521","","","","","","",""
18.0,0.03384030610322952,0.0019553016042856957,"train",19700.0,"2021-11-19 19:10:52.949511","","","","","","",""
18.0,0.02260909043252468,0.001954806119202748,"train",19720.0,"2021-11-19 19:10:56.185653","","","","","","",""
18.0,0.06279561668634415,0.001954307966472812,"train",19740.0,"2021-11-19 19:10:59.358200","","","","","","",""
18.0,0.05255601555109024,0.0019538071474876914,"train",19760.0,"2021-11-19 19:11:02.286503","","","","","","",""
18.0,0.05813842639327049,0.001953303663646636,"train",19780.0,"2021-11-19 19:11:05.292292","","","","","","",""
18.0,0.04476131871342659,0.0019527975163563436,"train",19800.0,"2021-11-19 19:11:08.721451","","","","","","",""
18.0,0.043131228536367416,0.0019522887070309524,"train",19820.0,"2021-11-19 19:11:12.044365","","","","","","",""
18.0,0.037184130400419235,0.0019517772370920379,"train",19840.0,"2021-11-19 19:11:15.250226","","","","","","",""
18.0,0.033690620213747025,0.0019512631079686104,"train",19860.0,"2021-11-19 19:11:18.522524","","","","","","",""
18.0,0.07536222040653229,0.001950746321097108,"train",19880.0,"2021-11-19 19:11:21.693300","","","","","","",""
18.0,0.03487823158502579,0.0019502268779213957,"train",19900.0,"2021-11-19 19:11:25.373949","","","","","","",""
18.0,0.03490838408470154,0.0019497047798927598,"train",19920.0,"2021-11-19 19:11:28.505465","","","","","","",""
18.0,0.04015923663973808,0.001949180028469903,"train",19940.0,"2021-11-19 19:11:31.619962","","","","","","",""
18.0,0.04003458842635155,0.0019486526251189435,"train",19960.0,"2021-11-19 19:11:34.830375","","","","","","",""
18.0,0.0341583788394928,0.0019481225713134064,"train",19980.0,"2021-11-19 19:11:38.499699","","","","","","",""
18.0,0.07617427408695221,0.0019475898685342235,"train",20000.0,"2021-11-19 19:11:41.689692","","","","","","",""
18.0,0.0715881735086441,0.0019470545182697272,"train",20020.0,"2021-11-19 19:11:44.905608","","","","","","",""
18.0,0.03603753447532654,0.001946516522015647,"train",20040.0,"2021-11-19 19:11:48.152181","","","","","","",""
18.0,0.03191598504781723,0.0019459758812751047,"train",20060.0,"2021-11-19 19:11:51.396153","","","","","","",""
18.0,0.034688424319028854,0.0019454325975586106,"train",20080.0,"2021-11-19 19:11:55.084758","","","","","","",""
18.0,0.026338819414377213,0.0019448866723840602,"train",20100.0,"2021-11-19 19:11:58.235452","","","","","","",""
18.0,0.06448271870613098,0.001944338107276728,"train",20120.0,"2021-11-19 19:12:01.397767","","","","","","",""
18.0,0.03489802032709122,0.0019437869037692644,"train",20140.0,"2021-11-19 19:12:04.610667","","","","","","",""
18.0,0.0335724763572216,0.0019432330634016912,"train",20160.0,"2021-11-19 19:12:07.846513","","","","","","",""
18.0,0.04027820751070976,0.0019426765877213986,"train",20180.0,"2021-11-19 19:12:11.526459","","","","","","",""
18.0,0.046325650066137314,0.0019421174782831383,"train",20200.0,"2021-11-19 19:12:14.741153","","","","","","",""
18.0,0.041302066296339035,0.0019415557366490208,"train",20220.0,"2021-11-19 19:12:17.989183","","","","","","",""
