"epoch","loss","lr","part","step","time","accuracy","auprc","auroc","challenge_metric","f_beta_measure","f_measure","g_beta_measure"
0.0,0.1941738873720169,8.000730236035311e-05,"train",20.0,"2021-11-24 10:27:34.465891","","","","","","",""
0.0,0.1124686524271965,8.002920933031948e-05,"train",40.0,"2021-11-24 10:27:37.946948","","","","","","",""
0.0,0.09952987730503082,8.006572057662293e-05,"train",60.0,"2021-11-24 10:27:41.261734","","","","","","",""
0.0,0.11401563882827759,8.011683554380914e-05,"train",80.0,"2021-11-24 10:27:44.514464","","","","","","",""
0.0,0.11230114102363586,8.018255345425274e-05,"train",100.0,"2021-11-24 10:27:47.828753","","","","","","",""
0.0,0.09370449930429459,8.026287330817079e-05,"train",120.0,"2021-11-24 10:27:51.157222","","","","","","",""
0.0,0.10699814558029175,8.03577938836373e-05,"train",140.0,"2021-11-24 10:27:54.381315","","","","","","",""
0.0,0.08154504746198654,8.04673137366021e-05,"train",160.0,"2021-11-24 10:27:57.708529","","","","","","",""
0.0,0.09732173383235931,8.059143120091187e-05,"train",180.0,"2021-11-24 10:28:01.707652","","","","","","",""
0.0,0.08281493186950684,8.073014438833613e-05,"train",200.0,"2021-11-24 10:28:05.010017","","","","","","",""
0.0,0.09100256860256195,8.088345118859724e-05,"train",220.0,"2021-11-24 10:28:08.314283","","","","","","",""
0.0,0.09777408093214035,8.10513492693996e-05,"train",240.0,"2021-11-24 10:28:11.617121","","","","","","",""
0.0,0.080715112388134,8.123383607646804e-05,"train",260.0,"2021-11-24 10:28:14.925085","","","","","","",""
0.0,0.06715147942304611,8.143090883358495e-05,"train",280.0,"2021-11-24 10:28:18.190829","","","","","","",""
0.0,0.10482297092676163,8.164256454263295e-05,"train",300.0,"2021-11-24 10:28:21.421855","","","","","","",""
0.0,0.06942587345838547,8.186879998364088e-05,"train",320.0,"2021-11-24 10:28:24.705558","","","","","","",""
0.0,0.0731554627418518,8.210961171483213e-05,"train",340.0,"2021-11-24 10:28:28.728759","","","","","","",""
0.0,0.07235979288816452,8.236499607267717e-05,"train",360.0,"2021-11-24 10:28:31.995191","","","","","","",""
0.0,0.06496453285217285,8.26349491719505e-05,"train",380.0,"2021-11-24 10:28:35.327045","","","","","","",""
0.0,0.08958706259727478,8.291946690578713e-05,"train",400.0,"2021-11-24 10:28:38.631187","","","","","","",""
0.0,0.055973585695028305,8.321854494574774e-05,"train",420.0,"2021-11-24 10:28:41.917166","","","","","","",""
0.0,0.06824717670679092,8.353217874188293e-05,"train",440.0,"2021-11-24 10:28:45.215275","","","","","","",""
0.0,0.05377279967069626,8.38603635228035e-05,"train",460.0,"2021-11-24 10:28:48.514142","","","","","","",""
0.0,0.0691949725151062,8.420309429575212e-05,"train",480.0,"2021-11-24 10:28:51.817087","","","","","","",""
0.0,0.09083795547485352,8.456036584667914e-05,"train",500.0,"2021-11-24 10:28:55.765629","","","","","","",""
0.0,0.08697878569364548,8.493217274032315e-05,"train",520.0,"2021-11-24 10:28:59.012825","","","","","","",""
0.0,0.07609614729881287,8.531850932029235e-05,"train",540.0,"2021-11-24 10:29:02.371716","","","","","","",""
0.0,0.05890718474984169,8.571936970915212e-05,"train",560.0,"2021-11-24 10:29:05.718073","","","","","","",""
0.0,0.09103657305240631,8.613474780851246e-05,"train",580.0,"2021-11-24 10:29:09.070412","","","","","","",""
0.0,0.09202124923467636,8.656463729912224e-05,"train",600.0,"2021-11-24 10:29:12.435908","","","","","","",""
0.0,0.07124682515859604,8.700903164096468e-05,"train",620.0,"2021-11-24 10:29:15.882465","","","","","","",""
0.0,0.0795249417424202,8.746792407335769e-05,"train",640.0,"2021-11-24 10:29:19.288364","","","","","","",""
0.0,0.06321579217910767,8.794130761505497e-05,"train",660.0,"2021-11-24 10:29:23.362596","","","","","","",""
0.0,0.06445983797311783,8.842917506435462e-05,"train",680.0,"2021-11-24 10:29:26.708491","","","","","","",""
0.0,0.06833793967962265,8.893151899920645e-05,"train",700.0,"2021-11-24 10:29:29.968997","","","","","","",""
0.0,0.08686931431293488,8.944833177732632e-05,"train",720.0,"2021-11-24 10:29:33.209971","","","","","","",""
0.0,0.09120327234268188,8.997960553631186e-05,"train",740.0,"2021-11-24 10:29:36.461248","","","","","","",""
0.0,0.06304779648780823,9.052533219376224e-05,"train",760.0,"2021-11-24 10:29:39.719938","","","","","","",""
0.0,0.06704594194889069,9.108550344740104e-05,"train",780.0,"2021-11-24 10:29:43.002164","","","","","","",""
0.0,0.07195615023374557,9.166011077520208e-05,"train",800.0,"2021-11-24 10:29:46.293091","","","","","","",""
0.0,0.06130685657262802,9.224914543552059e-05,"train",820.0,"2021-11-24 10:29:50.336057","","","","","","",""
0.0,0.06816969811916351,9.285259846722417e-05,"train",840.0,"2021-11-24 10:29:53.673879","","","","","","",""
0.0,0.05170382931828499,9.34704606898307e-05,"train",860.0,"2021-11-24 10:29:57.004421","","","","","","",""
0.0,0.05533212050795555,9.410272270364735e-05,"train",880.0,"2021-11-24 10:30:00.247065","","","","","","",""
0.0,0.07720715552568436,9.474937488991348e-05,"train",900.0,"2021-11-24 10:30:03.489331","","","","","","",""
0.0,0.0602417029440403,9.541040741094719e-05,"train",920.0,"2021-11-24 10:30:06.695015","","","","","","",""
0.0,0.10910040140151978,9.608581021029522e-05,"train",940.0,"2021-11-24 10:30:09.798957","","","","","","",""
0.0,0.07024236023426056,9.677557301288509e-05,"train",960.0,"2021-11-24 10:30:12.903010","","","","","","",""
0.0,0.06012735143303871,9.747968532518238e-05,"train",980.0,"2021-11-24 10:30:16.083258","","","","","","",""
0.0,0.05248328670859337,9.819813643535029e-05,"train",1000.0,"2021-11-24 10:30:19.976771","","","","","","",""
0.0,0.09719358384609222,9.893091541341185e-05,"train",1020.0,"2021-11-24 10:30:23.290407","","","","","","",""
0.0,0.08319125324487686,9.967801111141644e-05,"train",1040.0,"2021-11-24 10:30:26.728890","","","","","","",""
0.0,0.06960179656744003,0.00010043941216361023,"train",1060.0,"2021-11-24 10:30:30.097430","","","","","","",""
0.0,"","","train",1074.0,"2021-11-24 10:32:23.340944",0.5009823182711198,0.5235771867508852,0.9375242110728166,0.5114380544017706,0.41241140649847785,0.42444348228757295,0.2606256793519921
0.0,"","","val",1074.0,"2021-11-24 10:32:51.882925",0.48016931462368084,0.47813361515523317,0.9228453355475005,0.48291364807840476,0.3827235232603708,0.390595679072969,0.23886039281109384
1.0,0.06043480336666107,0.00010121510698660771,"train",1080.0,"2021-11-24 10:32:55.640843","","","","","","",""
1.0,0.0553988553583622,0.00010200508377956928,"train",1100.0,"2021-11-24 10:32:59.192058","","","","","","",""
1.0,0.08687753230333328,0.00010280933052437993,"train",1120.0,"2021-11-24 10:33:02.653482","","","","","","",""
1.0,0.08245526999235153,0.00010362783498583223,"train",1140.0,"2021-11-24 10:33:06.009715","","","","","","",""
1.0,0.05836040526628494,0.0001044605847118124,"train",1160.0,"2021-11-24 10:33:10.137249","","","","","","",""
1.0,0.07340127974748611,0.0001053075670334907,"train",1180.0,"2021-11-24 10:33:13.466474","","","","","","",""
1.0,0.08495300263166428,0.00010616876906551181,"train",1200.0,"2021-11-24 10:33:16.842734","","","","","","",""
1.0,0.07009497284889221,0.0001070441777061941,"train",1220.0,"2021-11-24 10:33:20.187362","","","","","","",""
1.0,0.07501198351383209,0.00010793377963772563,"train",1240.0,"2021-11-24 10:33:23.527747","","","","","","",""
1.0,0.07525594532489777,0.0001088375613263698,"train",1260.0,"2021-11-24 10:33:26.854687","","","","","","",""
1.0,0.06126221641898155,0.00010975550902266908,"train",1280.0,"2021-11-24 10:33:30.146772","","","","","","",""
1.0,0.08089140802621841,0.00011068760876165474,"train",1300.0,"2021-11-24 10:33:33.495473","","","","","","",""
1.0,0.08592458069324493,0.0001116338463630598,"train",1320.0,"2021-11-24 10:33:37.472243","","","","","","",""
1.0,0.07973630726337433,0.00011259420743153455,"train",1340.0,"2021-11-24 10:33:40.783258","","","","","","",""
1.0,0.08748053014278412,0.00011356867735686535,"train",1360.0,"2021-11-24 10:33:44.189505","","","","","","",""
1.0,0.050384506583213806,0.00011455724131419621,"train",1380.0,"2021-11-24 10:33:47.621640","","","","","","",""
1.0,0.06881310045719147,0.00011555988426425654,"train",1400.0,"2021-11-24 10:33:50.969640","","","","","","",""
1.0,0.06198156625032425,0.00011657659095358746,"train",1420.0,"2021-11-24 10:33:54.266027","","","","","","",""
1.0,0.09346701204776764,0.00011760734591477516,"train",1440.0,"2021-11-24 10:33:57.567898","","","","","","",""
1.0,0.067904531955719,0.00011865213346668618,"train",1460.0,"2021-11-24 10:34:00.892529","","","","","","",""
1.0,0.07540538161993027,0.00011971093771470502,"train",1480.0,"2021-11-24 10:34:04.937064","","","","","","",""
1.0,0.08715862780809402,0.0001207837425509777,"train",1500.0,"2021-11-24 10:34:08.240976","","","","","","",""
1.0,0.08371907472610474,0.00012187053165465503,"train",1520.0,"2021-11-24 10:34:11.512172","","","","","","",""
1.0,0.08381325751543045,0.000122971288492142,"train",1540.0,"2021-11-24 10:34:14.764663","","","","","","",""
1.0,0.08559293299913406,0.00012408599631734863,"train",1560.0,"2021-11-24 10:34:18.163608","","","","","","",""
1.0,0.07409089058637619,0.00012521463817194542,"train",1580.0,"2021-11-24 10:34:21.492651","","","","","","",""
1.0,0.08021626621484756,0.00012635719688562077,"train",1600.0,"2021-11-24 10:34:24.784988","","","","","","",""
1.0,0.06101680174469948,0.00012751365507634267,"train",1620.0,"2021-11-24 10:34:28.088013","","","","","","",""
1.0,0.06287265568971634,0.0001286839951506226,"train",1640.0,"2021-11-24 10:34:31.450853","","","","","","",""
1.0,0.0903831273317337,0.00012986819930378333,"train",1660.0,"2021-11-24 10:34:35.481135","","","","","","",""
1.0,0.07006176561117172,0.00013106624952023064,"train",1680.0,"2021-11-24 10:34:38.843202","","","","","","",""
1.0,0.05524991825222969,0.00013227812757372545,"train",1700.0,"2021-11-24 10:34:42.176521","","","","","","",""
1.0,0.09820987284183502,0.00013350381502766394,"train",1720.0,"2021-11-24 10:34:45.554131","","","","","","",""
1.0,0.06787487119436264,0.00013474329323535494,"train",1740.0,"2021-11-24 10:34:48.942205","","","","","","",""
1.0,0.07913493365049362,0.0001359965433403059,"train",1760.0,"2021-11-24 10:34:52.341834","","","","","","",""
1.0,0.0749010220170021,0.00013726354627650872,"train",1780.0,"2021-11-24 10:34:55.654726","","","","","","",""
1.0,0.06450728327035904,0.00013854428276873052,"train",1800.0,"2021-11-24 10:34:58.995429","","","","","","",""
1.0,0.08143680542707443,0.00013983873333280506,"train",1820.0,"2021-11-24 10:35:03.131118","","","","","","",""
1.0,0.05961693450808525,0.00014114687827593156,"train",1840.0,"2021-11-24 10:35:06.506085","","","","","","",""
1.0,0.08792413771152496,0.00014246869769697352,"train",1860.0,"2021-11-24 10:35:09.801125","","","","","","",""
1.0,0.056825269013643265,0.00014380417148676054,"train",1880.0,"2021-11-24 10:35:13.116068","","","","","","",""
1.0,0.08202244341373444,0.00014515327932839404,"train",1900.0,"2021-11-24 10:35:16.414671","","","","","","",""
1.0,0.07962395995855331,0.0001465160006975598,"train",1920.0,"2021-11-24 10:35:19.731046","","","","","","",""
1.0,0.0702584981918335,0.00014789231486283454,"train",1940.0,"2021-11-24 10:35:23.033281","","","","","","",""
1.0,0.06450790166854858,0.00014928220088600633,"train",1960.0,"2021-11-24 10:35:26.425385","","","","","","",""
1.0,0.05264861881732941,0.00015068563762239045,"train",1980.0,"2021-11-24 10:35:30.461442","","","","","","",""
1.0,0.057790327817201614,0.00015210260372115238,"train",2000.0,"2021-11-24 10:35:33.808742","","","","","","",""
1.0,0.12001609057188034,0.00015353307762563115,"train",2020.0,"2021-11-24 10:35:37.176694","","","","","","",""
1.0,0.06945116072893143,0.00015497703757366872,"train",2040.0,"2021-11-24 10:35:40.524949","","","","","","",""
1.0,0.07792633771896362,0.00015643446159794,"train",2060.0,"2021-11-24 10:35:43.940819","","","","","","",""
1.0,0.06466082483530045,0.0001579053275262887,"train",2080.0,"2021-11-24 10:35:47.234049","","","","","","",""
1.0,0.0615328773856163,0.00015938961298206183,"train",2100.0,"2021-11-24 10:35:50.484517","","","","","","",""
1.0,0.09004785120487213,0.00016088729538445297,"train",2120.0,"2021-11-24 10:35:53.871873","","","","","","",""
1.0,0.07974302023649216,0.000162398351948844,"train",2140.0,"2021-11-24 10:35:57.881380","","","","","","",""
1.0,"","","train",2148.0,"2021-11-24 10:37:50.125436",0.5314560139707487,0.58436790953876,0.9546072336278224,0.542458635538682,0.44047935165811114,0.45971434759456103,0.2803144258514138
1.0,"","","val",2148.0,"2021-11-24 10:38:19.015597",0.5069001507595964,0.5180501527135717,0.9364967046709058,0.5086402451107627,0.400421077574347,0.415224808347175,0.2494038711052758
2.0,0.09208555519580841,0.00016392275968715297,"train",2160.0,"2021-11-24 10:38:23.829319","","","","","","",""
2.0,0.0562085285782814,0.00016546049540818223,"train",2180.0,"2021-11-24 10:38:27.267022","","","","","","",""
2.0,0.07783746719360352,0.00016701153571797313,"train",2200.0,"2021-11-24 10:38:30.606843","","","","","","",""
2.0,0.07727903127670288,0.00016857585702016015,"train",2220.0,"2021-11-24 10:38:33.961427","","","","","","",""
2.0,0.05297395959496498,0.00017015343551633126,"train",2240.0,"2021-11-24 10:38:37.341323","","","","","","",""
2.0,0.06457285583019257,0.0001717442472063892,"train",2260.0,"2021-11-24 10:38:40.644015","","","","","","",""
2.0,0.05881258472800255,0.00017334826788891681,"train",2280.0,"2021-11-24 10:38:43.881751","","","","","","",""
2.0,0.05764969810843468,0.00017496547316154555,"train",2300.0,"2021-11-24 10:38:47.929510","","","","","","",""
2.0,0.07093778997659683,0.00017659583842132573,"train",2320.0,"2021-11-24 10:38:51.180684","","","","","","",""
2.0,0.07640134543180466,0.00017823933886510217,"train",2340.0,"2021-11-24 10:38:54.436734","","","","","","",""
2.0,0.07876148819923401,0.00017989594948989015,"train",2360.0,"2021-11-24 10:38:57.721631","","","","","","",""
2.0,0.05626125633716583,0.00018156564509325753,"train",2380.0,"2021-11-24 10:39:01.035745","","","","","","",""
2.0,0.0587942972779274,0.0001832484002737059,"train",2400.0,"2021-11-24 10:39:04.337124","","","","","","",""
2.0,0.05937892943620682,0.00018494418943105877,"train",2420.0,"2021-11-24 10:39:07.533729","","","","","","",""
2.0,0.05864473804831505,0.00018665298676685078,"train",2440.0,"2021-11-24 10:39:10.830597","","","","","","",""
2.0,0.06319205462932587,0.0001883747662847191,"train",2460.0,"2021-11-24 10:39:14.938259","","","","","","",""
2.0,0.04344673082232475,0.00019010950179080112,"train",2480.0,"2021-11-24 10:39:18.274043","","","","","","",""
2.0,0.061842408031225204,0.00019185716689412995,"train",2500.0,"2021-11-24 10:39:21.542196","","","","","","",""
2.0,0.06796514987945557,0.00019361773500703797,"train",2520.0,"2021-11-24 10:39:24.829713","","","","","","",""
2.0,0.05765000358223915,0.00019539117934556168,"train",2540.0,"2021-11-24 10:39:28.098955","","","","","","",""
2.0,0.06630697846412659,0.00019717747292984696,"train",2560.0,"2021-11-24 10:39:31.398355","","","","","","",""
2.0,0.06597389280796051,0.0001989765885845624,"train",2580.0,"2021-11-24 10:39:34.739485","","","","","","",""
2.0,0.09260167926549911,0.00020078849893931014,"train",2600.0,"2021-11-24 10:39:38.092332","","","","","","",""
2.0,0.07430727779865265,0.0002026131764290434,"train",2620.0,"2021-11-24 10:39:41.505686","","","","","","",""
2.0,0.059542372822761536,0.00020445059329448614,"train",2640.0,"2021-11-24 10:39:45.686994","","","","","","",""
2.0,0.0675908550620079,0.00020630072158255497,"train",2660.0,"2021-11-24 10:39:49.039965","","","","","","",""
2.0,0.05155332386493683,0.00020816353314678467,"train",2680.0,"2021-11-24 10:39:52.284597","","","","","","",""
2.0,0.05570054426789284,0.00021003899964775505,"train",2700.0,"2021-11-24 10:39:55.537089","","","","","","",""
2.0,0.05536438152194023,0.00021192709255352473,"train",2720.0,"2021-11-24 10:39:58.651419","","","","","","",""
2.0,0.07746732234954834,0.00021382778314006255,"train",2740.0,"2021-11-24 10:40:01.759279","","","","","","",""
2.0,0.0726085752248764,0.00021574104249168615,"train",2760.0,"2021-11-24 10:40:04.920992","","","","","","",""
2.0,0.059317104518413544,0.00021766684150150133,"train",2780.0,"2021-11-24 10:40:08.159735","","","","","","",""
2.0,0.06816022098064423,0.00021960515087184485,"train",2800.0,"2021-11-24 10:40:12.086889","","","","","","",""
2.0,0.06186510622501373,0.00022155594111472978,"train",2820.0,"2021-11-24 10:40:15.359074","","","","","","",""
2.0,0.055684156715869904,0.0002235191825522959,"train",2840.0,"2021-11-24 10:40:18.639400","","","","","","",""
2.0,0.08771929889917374,0.00022549484531725838,"train",2860.0,"2021-11-24 10:40:21.975381","","","","","","",""
2.0,0.07537049055099487,0.00022748289935336434,"train",2880.0,"2021-11-24 10:40:25.264545","","","","","","",""
2.0,0.06449614465236664,0.00022948331441584964,"train",2900.0,"2021-11-24 10:40:28.530779","","","","","","",""
2.0,0.06273394078016281,0.00023149606007189785,"train",2920.0,"2021-11-24 10:40:31.827749","","","","","","",""
2.0,0.05867917835712433,0.00023352110570110476,"train",2940.0,"2021-11-24 10:40:35.133161","","","","","","",""
2.0,0.06527341902256012,0.00023555842049594305,"train",2960.0,"2021-11-24 10:40:39.119283","","","","","","",""
2.0,0.07843024283647537,0.00023760797346223305,"train",2980.0,"2021-11-24 10:40:42.435694","","","","","","",""
2.0,0.07974404841661453,0.00023966973341961028,"train",3000.0,"2021-11-24 10:40:45.661915","","","","","","",""
2.0,0.04852227121591568,0.0002417436690020044,"train",3020.0,"2021-11-24 10:40:48.887333","","","","","","",""
2.0,0.06082376092672348,0.00024382974865811325,"train",3040.0,"2021-11-24 10:40:52.280379","","","","","","",""
2.0,0.07862133532762527,0.000245927940651884,"train",3060.0,"2021-11-24 10:40:55.636223","","","","","","",""
2.0,0.06673213094472885,0.0002480382130629953,"train",3080.0,"2021-11-24 10:40:58.960965","","","","","","",""
2.0,0.07622843235731125,0.0002501605337873443,"train",3100.0,"2021-11-24 10:41:02.238448","","","","","","",""
2.0,0.05390238016843796,0.0002522948705375337,"train",3120.0,"2021-11-24 10:41:06.184483","","","","","","",""
2.0,0.06394406408071518,0.00025444119084336303,"train",3140.0,"2021-11-24 10:41:09.550221","","","","","","",""
2.0,0.058167312294244766,0.00025659946205232364,"train",3160.0,"2021-11-24 10:41:12.910530","","","","","","",""
2.0,0.05950629338622093,0.0002587696513300941,"train",3180.0,"2021-11-24 10:41:16.196249","","","","","","",""
2.0,0.08072661608457565,0.0002609517256610412,"train",3200.0,"2021-11-24 10:41:19.502963","","","","","","",""
2.0,0.04881589487195015,0.00026314565184872084,"train",3220.0,"2021-11-24 10:41:22.677563","","","","","","",""
2.0,"","","train",3222.0,"2021-11-24 10:43:09.515964",0.5463144873753911,0.6266854801464335,0.9615965048707997,0.6121059608817804,0.5081345748774309,0.5160012368779772,0.3330172038774543
2.0,"","","val",3222.0,"2021-11-24 10:43:37.839253",0.5193668096950017,0.540211775591199,0.94286316609806,0.5722913010599673,0.4643351517395545,0.46820268245981506,0.2951785332519456
3.0,0.059863679111003876,0.0002653513965163838,"train",3240.0,"2021-11-24 10:43:43.706463","","","","","","",""
3.0,0.08858203887939453,0.0002675689261074836,"train",3260.0,"2021-11-24 10:43:47.042925","","","","","","",""
3.0,0.0573493093252182,0.00026979820688618605,"train",3280.0,"2021-11-24 10:43:51.198404","","","","","","",""
3.0,0.057446517050266266,0.00027203920493788433,"train",3300.0,"2021-11-24 10:43:54.512131","","","","","","",""
3.0,0.06516536325216293,0.00027429188616971277,"train",3320.0,"2021-11-24 10:43:57.769157","","","","","","",""
3.0,0.054785002022981644,0.0002765562163110668,"train",3340.0,"2021-11-24 10:44:01.062968","","","","","","",""
3.0,0.07626428455114365,0.00027883216091412503,"train",3360.0,"2021-11-24 10:44:04.350588","","","","","","",""
3.0,0.07597623765468597,0.0002811196853543707,"train",3380.0,"2021-11-24 10:44:07.652552","","","","","","",""
3.0,0.09270302206277847,0.00028341875483112134,"train",3400.0,"2021-11-24 10:44:10.990196","","","","","","",""
3.0,0.06644103676080704,0.00028572933436805644,"train",3420.0,"2021-11-24 10:44:14.357909","","","","","","",""
3.0,0.05226413160562515,0.0002880513888137504,"train",3440.0,"2021-11-24 10:44:17.668176","","","","","","",""
3.0,0.07097076624631882,0.0002903848828422063,"train",3460.0,"2021-11-24 10:44:21.668314","","","","","","",""
3.0,0.06030149757862091,0.00029272978095339465,"train",3480.0,"2021-11-24 10:44:25.007305","","","","","","",""
3.0,0.08487211167812347,0.00029508604747379243,"train",3500.0,"2021-11-24 10:44:28.485136","","","","","","",""
3.0,0.08239833265542984,0.00029745364655692653,"train",3520.0,"2021-11-24 10:44:31.910214","","","","","","",""
3.0,0.04939151927828789,0.0002998325421839181,"train",3540.0,"2021-11-24 10:44:35.341108","","","","","","",""
3.0,0.09403633326292038,0.0003022226981640318,"train",3560.0,"2021-11-24 10:44:38.723469","","","","","","",""
3.0,0.056287411600351334,0.00030462407813522494,"train",3580.0,"2021-11-24 10:44:42.054839","","","","","","",""
3.0,0.06819864362478256,0.0003070366455647027,"train",3600.0,"2021-11-24 10:44:45.412114","","","","","","",""
3.0,0.04827393591403961,0.000309460363749471,"train",3620.0,"2021-11-24 10:44:49.422157","","","","","","",""
3.0,0.054247841238975525,0.0003118951958168978,"train",3640.0,"2021-11-24 10:44:52.845104","","","","","","",""
3.0,0.0471326969563961,0.0003143411047252722,"train",3660.0,"2021-11-24 10:44:56.229988","","","","","","",""
3.0,0.04502801597118378,0.0003167980532643691,"train",3680.0,"2021-11-24 10:44:59.622483","","","","","","",""
3.0,0.05024821311235428,0.0003192660040560141,"train",3700.0,"2021-11-24 10:45:03.044819","","","","","","",""
3.0,0.06330355256795883,0.0003217449195546528,"train",3720.0,"2021-11-24 10:45:06.456523","","","","","","",""
3.0,0.06644878536462784,0.00032423476204792244,"train",3740.0,"2021-11-24 10:45:09.863513","","","","","","",""
3.0,0.05290137231349945,0.0003267354936572248,"train",3760.0,"2021-11-24 10:45:13.272393","","","","","","",""
3.0,0.06469392776489258,0.0003292470763383026,"train",3780.0,"2021-11-24 10:45:17.434242","","","","","","",""
3.0,0.07249428331851959,0.0003317694718818192,"train",3800.0,"2021-11-24 10:45:20.906707","","","","","","",""
3.0,0.059283286333084106,0.00033430264191393853,"train",3820.0,"2021-11-24 10:45:24.240455","","","","","","",""
3.0,0.08259501308202744,0.0003368465478969097,"train",3840.0,"2021-11-24 10:45:27.571212","","","","","","",""
3.0,0.055819861590862274,0.0003394011511296533,"train",3860.0,"2021-11-24 10:45:30.917982","","","","","","",""
3.0,0.07151830196380615,0.0003419664127483496,"train",3880.0,"2021-11-24 10:45:34.316699","","","","","","",""
3.0,0.06868690252304077,0.00034454229372703074,"train",3900.0,"2021-11-24 10:45:37.663339","","","","","","",""
3.0,0.05116567015647888,0.00034712875487817314,"train",3920.0,"2021-11-24 10:45:40.999100","","","","","","",""
3.0,0.06918457895517349,0.00034972575685329526,"train",3940.0,"2021-11-24 10:45:44.944934","","","","","","",""
3.0,0.07687727361917496,0.0003523332601435541,"train",3960.0,"2021-11-24 10:45:48.287841","","","","","","",""
3.0,0.0486101433634758,0.00035495122508034916,"train",3980.0,"2021-11-24 10:45:51.647179","","","","","","",""
3.0,0.08832814544439316,0.0003575796118359231,"train",4000.0,"2021-11-24 10:45:54.954739","","","","","","",""
3.0,0.059020571410655975,0.00036021838042396906,"train",4020.0,"2021-11-24 10:45:58.247953","","","","","","",""
3.0,0.06075563281774521,0.0003628674907002389,"train",4040.0,"2021-11-24 10:46:01.552256","","","","","","",""
3.0,0.09237447381019592,0.00036552690236315395,"train",4060.0,"2021-11-24 10:46:04.883557","","","","","","",""
3.0,0.05549660697579384,0.00036819657495441773,"train",4080.0,"2021-11-24 10:46:08.192689","","","","","","",""
3.0,0.04980773478746414,0.0003708764678596317,"train",4100.0,"2021-11-24 10:46:12.236627","","","","","","",""
3.0,0.04893575981259346,0.00037356654030891293,"train",4120.0,"2021-11-24 10:46:15.572694","","","","","","",""
3.0,0.06732012331485748,0.0003762667513775148,"train",4140.0,"2021-11-24 10:46:18.964182","","","","","","",""
3.0,0.04350416362285614,0.0003789770599864498,"train",4160.0,"2021-11-24 10:46:22.249579","","","","","","",""
3.0,0.09214112907648087,0.000381697424903113,"train",4180.0,"2021-11-24 10:46:25.593315","","","","","","",""
3.0,0.056011050939559937,0.0003844278047419108,"train",4200.0,"2021-11-24 10:46:28.896729","","","","","","",""
3.0,0.050880834460258484,0.0003871681579648903,"train",4220.0,"2021-11-24 10:46:32.165334","","","","","","",""
3.0,0.059880517423152924,0.0003899184428823709,"train",4240.0,"2021-11-24 10:46:35.417046","","","","","","",""
3.0,0.07043561339378357,0.0003926786176535783,"train",4260.0,"2021-11-24 10:46:38.759613","","","","","","",""
3.0,0.06348738819360733,0.0003954486402872818,"train",4280.0,"2021-11-24 10:46:42.769432","","","","","","",""
3.0,"","","train",4296.0,"2021-11-24 10:48:32.590457",0.5608964563777923,0.6381892908281691,0.9637856864098756,0.5750841313780144,0.4853862596550511,0.5170543150649501,0.31526882617238194
3.0,"","","val",4296.0,"2021-11-24 10:49:00.700769",0.5311376551084309,0.5538365735590879,0.9464619836382161,0.5346650858522753,0.44302820540483173,0.4658862722103088,0.2802807928882912
4.0,0.0571109801530838,0.0003982284686424324,"train",4300.0,"2021-11-24 10:49:04.132124","","","","","","",""
4.0,0.09250281751155853,0.0004010180604288045,"train",4320.0,"2021-11-24 10:49:07.641841","","","","","","",""
4.0,0.04934126138687134,0.00040381737320763873,"train",4340.0,"2021-11-24 10:49:11.064835","","","","","","",""
4.0,0.07128063589334488,0.0004066263643922878,"train",4360.0,"2021-11-24 10:49:14.356813","","","","","","",""
4.0,0.055836278945207596,0.0004094449912488646,"train",4380.0,"2021-11-24 10:49:17.671978","","","","","","",""
4.0,0.05527879297733307,0.0004122732108968923,"train",4400.0,"2021-11-24 10:49:20.984064","","","","","","",""
4.0,0.04607616364955902,0.0004151109803099558,"train",4420.0,"2021-11-24 10:49:24.362265","","","","","","",""
4.0,0.06450487673282623,0.00041795825631635764,"train",4440.0,"2021-11-24 10:49:28.443809","","","","","","",""
4.0,0.04731204733252525,0.0004208149955997739,"train",4460.0,"2021-11-24 10:49:31.847899","","","","","","",""
4.0,0.0662853941321373,0.0004236811546999141,"train",4480.0,"2021-11-24 10:49:35.180672","","","","","","",""
4.0,0.0440736785531044,0.0004265566900131805,"train",4500.0,"2021-11-24 10:49:38.583638","","","","","","",""
4.0,0.07572606205940247,0.0004294415577933337,"train",4520.0,"2021-11-24 10:49:41.952672","","","","","","",""
4.0,0.051875680685043335,0.00043233571415215717,"train",4540.0,"2021-11-24 10:49:45.275136","","","","","","",""
4.0,0.07372885197401047,0.0004352391150601242,"train",4560.0,"2021-11-24 10:49:48.543655","","","","","","",""
4.0,0.047334328293800354,0.0004381517163470684,"train",4580.0,"2021-11-24 10:49:51.817051","","","","","","",""
4.0,0.06089077889919281,0.00044107347370285683,"train",4600.0,"2021-11-24 10:49:55.883304","","","","","","",""
4.0,0.06968037039041519,0.00044400434267806194,"train",4620.0,"2021-11-24 10:49:59.211168","","","","","","",""
4.0,0.05430473014712334,0.00044694427868463907,"train",4640.0,"2021-11-24 10:50:02.534123","","","","","","",""
4.0,0.06548979133367538,0.00044989323699660467,"train",4660.0,"2021-11-24 10:50:05.866439","","","","","","",""
4.0,0.07582349330186844,0.0004528511727507165,"train",4680.0,"2021-11-24 10:50:09.186184","","","","","","",""
4.0,0.06196920946240425,0.00045581804094715645,"train",4700.0,"2021-11-24 10:50:12.519909","","","","","","",""
4.0,0.06960102170705795,0.00045879379645021425,"train",4720.0,"2021-11-24 10:50:15.911209","","","","","","",""
4.0,0.07125525921583176,0.0004617783939889759,"train",4740.0,"2021-11-24 10:50:19.277278","","","","","","",""
4.0,0.06207704916596413,0.0004647717881580103,"train",4760.0,"2021-11-24 10:50:23.193524","","","","","","",""
4.0,0.07087883353233337,0.0004677739334180617,"train",4780.0,"2021-11-24 10:50:26.358631","","","","","","",""
4.0,0.05416232720017433,0.00047078478409674144,"train",4800.0,"2021-11-24 10:50:29.557246","","","","","","",""
4.0,0.061848096549510956,0.00047380429438922305,"train",4820.0,"2021-11-24 10:50:32.928055","","","","","","",""
4.0,0.09957967698574066,0.00047683241835893946,"train",4840.0,"2021-11-24 10:50:36.235366","","","","","","",""
4.0,0.08304442465305328,0.0004798691099382815,"train",4860.0,"2021-11-24 10:50:39.510012","","","","","","",""
4.0,0.05229585990309715,0.0004829143229292986,"train",4880.0,"2021-11-24 10:50:42.778993","","","","","","",""
4.0,0.06924498081207275,0.0004859680110044023,"train",4900.0,"2021-11-24 10:50:46.047739","","","","","","",""
4.0,0.07053810358047485,0.0004890301277070699,"train",4920.0,"2021-11-24 10:50:49.973375","","","","","","",""
4.0,0.061502210795879364,0.0004921006264525525,"train",4940.0,"2021-11-24 10:50:53.299743","","","","","","",""
4.0,0.05218954384326935,0.0004951794605285824,"train",4960.0,"2021-11-24 10:50:56.635754","","","","","","",""
4.0,0.07239890098571777,0.0004982665830960853,"train",4980.0,"2021-11-24 10:50:59.874861","","","","","","",""
4.0,0.07016275078058243,0.0005013619471898913,"train",5000.0,"2021-11-24 10:51:03.140030","","","","","","",""
4.0,0.07264350354671478,0.0005044655057194504,"train",5020.0,"2021-11-24 10:51:06.440760","","","","","","",""
4.0,0.04596890136599541,0.0005075772114695486,"train",5040.0,"2021-11-24 10:51:09.716825","","","","","","",""
4.0,0.05749695003032684,0.0005106970171010257,"train",5060.0,"2021-11-24 10:51:13.048548","","","","","","",""
4.0,0.07092646509408951,0.0005138248751514966,"train",5080.0,"2021-11-24 10:51:16.366332","","","","","","",""
4.0,0.0879458487033844,0.0005169607380360731,"train",5100.0,"2021-11-24 10:51:20.401014","","","","","","",""
4.0,0.06023801490664482,0.000520104558048086,"train",5120.0,"2021-11-24 10:51:23.672341","","","","","","",""
4.0,0.05042169988155365,0.0005232562873598136,"train",5140.0,"2021-11-24 10:51:26.971711","","","","","","",""
4.0,0.0502825528383255,0.0005264158780232072,"train",5160.0,"2021-11-24 10:51:30.228350","","","","","","",""
4.0,0.07428649812936783,0.0005295832819706228,"train",5180.0,"2021-11-24 10:51:33.493169","","","","","","",""
4.0,0.05121336877346039,0.0005327584510155488,"train",5200.0,"2021-11-24 10:51:36.837505","","","","","","",""
4.0,0.06449364125728607,0.000535941336853343,"train",5220.0,"2021-11-24 10:51:40.150603","","","","","","",""
4.0,0.05423324555158615,0.0005391318910619655,"train",5240.0,"2021-11-24 10:51:43.454194","","","","","","",""
4.0,0.04910140112042427,0.0005423300651027144,"train",5260.0,"2021-11-24 10:51:47.449096","","","","","","",""
4.0,0.05165541544556618,0.0005455358103209663,"train",5280.0,"2021-11-24 10:51:50.780089","","","","","","",""
4.0,0.0637405663728714,0.0005487490779469157,"train",5300.0,"2021-11-24 10:51:54.146814","","","","","","",""
4.0,0.05523113161325455,0.000551969819096316,"train",5320.0,"2021-11-24 10:51:57.481147","","","","","","",""
4.0,0.06318420171737671,0.0005551979847712252,"train",5340.0,"2021-11-24 10:52:00.774954","","","","","","",""
4.0,0.046900972723960876,0.0005584335258607489,"train",5360.0,"2021-11-24 10:52:04.026763","","","","","","",""
4.0,"","","train",5370.0,"2021-11-24 10:53:50.498424",0.5857964054427709,0.6712641362842644,0.9691908701554705,0.6262484165424332,0.5461084673468926,0.5728651071824087,0.36687157396632813
4.0,"","","val",5370.0,"2021-11-24 10:54:18.407726",0.5598979473501102,0.5862805033639197,0.9535647638752385,0.5853683413624481,0.49497250929455777,0.5164715631938166,0.3228053738488714
5.0,0.08836527168750763,0.0005616763931417894,"train",5380.0,"2021-11-24 10:54:22.825323","","","","","","",""
5.0,0.05807531252503395,0.0005649265372797939,"train",5400.0,"2021-11-24 10:54:26.271890","","","","","","",""
5.0,0.0430372916162014,0.0005681839088295046,"train",5420.0,"2021-11-24 10:54:30.424222","","","","","","",""
5.0,0.0637114867568016,0.0005714484582357109,"train",5440.0,"2021-11-24 10:54:33.742093","","","","","","",""
5.0,0.09330426901578903,0.0005747201358340048,"train",5460.0,"2021-11-24 10:54:37.014426","","","","","","",""
5.0,0.08357984572649002,0.0005779988918515344,"train",5480.0,"2021-11-24 10:54:40.334780","","","","","","",""
5.0,0.05534876510500908,0.0005812846764077623,"train",5500.0,"2021-11-24 10:54:43.601652","","","","","","",""
5.0,0.05896005034446716,0.0005845774395152243,"train",5520.0,"2021-11-24 10:54:46.888605","","","","","","",""
5.0,0.052646033465862274,0.0005878771310802895,"train",5540.0,"2021-11-24 10:54:50.153342","","","","","","",""
5.0,0.03896636515855789,0.0005911837009039229,"train",5560.0,"2021-11-24 10:54:53.493320","","","","","","",""
5.0,0.05684565380215645,0.0005944970986824485,"train",5580.0,"2021-11-24 10:54:57.491149","","","","","","",""
5.0,0.05497174710035324,0.000597817274008315,"train",5600.0,"2021-11-24 10:55:00.738580","","","","","","",""
5.0,0.04079747200012207,0.0006011441763708635,"train",5620.0,"2021-11-24 10:55:03.965913","","","","","","",""
5.0,0.049743764102458954,0.0006044777551570929,"train",5640.0,"2021-11-24 10:55:07.199571","","","","","","",""
5.0,0.06741391122341156,0.000607817959652434,"train",5660.0,"2021-11-24 10:55:10.535391","","","","","","",""
5.0,0.04092780873179436,0.0006111647390415189,"train",5680.0,"2021-11-24 10:55:13.990136","","","","","","",""
5.0,0.0479922853410244,0.0006145180424089525,"train",5700.0,"2021-11-24 10:55:17.382368","","","","","","",""
5.0,0.05052677541971207,0.0006178778187400902,"train",5720.0,"2021-11-24 10:55:20.722044","","","","","","",""
5.0,0.03876449540257454,0.0006212440169218129,"train",5740.0,"2021-11-24 10:55:24.690451","","","","","","",""
5.0,0.056003548204898834,0.0006246165857433027,"train",5760.0,"2021-11-24 10:55:27.963084","","","","","","",""
5.0,0.05639517679810524,0.0006279954738968251,"train",5780.0,"2021-11-24 10:55:31.283523","","","","","","",""
5.0,0.03487224876880646,0.0006313806299785075,"train",5800.0,"2021-11-24 10:55:34.687321","","","","","","",""
5.0,0.04517997056245804,0.0006347720024891209,"train",5820.0,"2021-11-24 10:55:38.029883","","","","","","",""
5.0,0.034556061029434204,0.0006381695398348657,"train",5840.0,"2021-11-24 10:55:41.356974","","","","","","",""
5.0,0.07345651835203171,0.0006415731903281542,"train",5860.0,"2021-11-24 10:55:44.681318","","","","","","",""
5.0,0.06593821942806244,0.0006449829021883979,"train",5880.0,"2021-11-24 10:55:47.951741","","","","","","",""
5.0,0.05048638954758644,0.0006483986235427956,"train",5900.0,"2021-11-24 10:55:51.222470","","","","","","",""
5.0,0.06406570971012115,0.0006518203024271213,"train",5920.0,"2021-11-24 10:55:55.160970","","","","","","",""
5.0,0.05896194279193878,0.0006552478867865169,"train",5940.0,"2021-11-24 10:55:58.474245","","","","","","",""
5.0,0.05328880995512009,0.0006586813244762815,"train",5960.0,"2021-11-24 10:56:01.758201","","","","","","",""
5.0,0.061845213174819946,0.0006621205632626672,"train",5980.0,"2021-11-24 10:56:05.086090","","","","","","",""
5.0,0.06677810847759247,0.0006655655508236717,"train",6000.0,"2021-11-24 10:56:08.432897","","","","","","",""
5.0,0.04185163229703903,0.0006690162347498356,"train",6020.0,"2021-11-24 10:56:11.781862","","","","","","",""
5.0,0.04805874824523926,0.0006724725625450389,"train",6040.0,"2021-11-24 10:56:15.093315","","","","","","",""
5.0,0.0786893218755722,0.0006759344816273003,"train",6060.0,"2021-11-24 10:56:18.416778","","","","","","",""
5.0,0.07498342543840408,0.0006794019393295771,"train",6080.0,"2021-11-24 10:56:22.620261","","","","","","",""
5.0,0.07354097813367844,0.0006828748829005654,"train",6100.0,"2021-11-24 10:56:25.991176","","","","","","",""
5.0,0.07597392797470093,0.0006863532595055041,"train",6120.0,"2021-11-24 10:56:29.378722","","","","","","",""
5.0,0.04592680558562279,0.0006898370162269777,"train",6140.0,"2021-11-24 10:56:32.732289","","","","","","",""
5.0,0.06177492067217827,0.0006933261000657217,"train",6160.0,"2021-11-24 10:56:36.020559","","","","","","",""
5.0,0.05854881927371025,0.000696820457941429,"train",6180.0,"2021-11-24 10:56:39.322790","","","","","","",""
5.0,0.031307339668273926,0.000700320036693557,"train",6200.0,"2021-11-24 10:56:42.647456","","","","","","",""
5.0,0.03906397148966789,0.0007038247830821358,"train",6220.0,"2021-11-24 10:56:45.942771","","","","","","",""
5.0,0.06399989128112793,0.0007073346437885815,"train",6240.0,"2021-11-24 10:56:49.936638","","","","","","",""
5.0,0.08607477694749832,0.000710849565416502,"train",6260.0,"2021-11-24 10:56:53.263866","","","","","","",""
5.0,0.06443856656551361,0.0007143694944925134,"train",6280.0,"2021-11-24 10:56:56.524089","","","","","","",""
5.0,0.0788644328713417,0.0007178943774670524,"train",6300.0,"2021-11-24 10:56:59.756049","","","","","","",""
5.0,0.037781327962875366,0.0007214241607151901,"train",6320.0,"2021-11-24 10:57:02.999761","","","","","","",""
5.0,0.05201462283730507,0.000724958790537449,"train",6340.0,"2021-11-24 10:57:06.261291","","","","","","",""
5.0,0.05256463959813118,0.0007284982131606195,"train",6360.0,"2021-11-24 10:57:09.554752","","","","","","",""
5.0,0.06747206300497055,0.0007320423747385781,"train",6380.0,"2021-11-24 10:57:12.805355","","","","","","",""
5.0,0.04589763283729553,0.0007355912213531054,"train",6400.0,"2021-11-24 10:57:16.758436","","","","","","",""
5.0,0.07198516279459,0.000739144699014708,"train",6420.0,"2021-11-24 10:57:20.031786","","","","","","",""
5.0,0.07278642803430557,0.0007427027536634401,"train",6440.0,"2021-11-24 10:57:23.317730","","","","","","",""
5.0,"","","train",6444.0,"2021-11-24 10:59:09.262122",0.6168958742632613,0.6963044851909448,0.9740768500803122,0.6308819964135347,0.5537883454086981,0.5834518829898111,0.3747483783229967
5.0,"","","val",6444.0,"2021-11-24 10:59:38.944268",0.5850052186014149,0.6151473240625915,0.9597478586746817,0.5873717011744033,0.4939830991127042,0.5214923240398067,0.32467952022227464
6.0,0.07175148278474808,0.0007462653311697235,"train",6460.0,"2021-11-24 10:59:44.554630","","","","","","",""
6.0,0.0413661003112793,0.0007498323773351733,"train",6480.0,"2021-11-24 10:59:47.963029","","","","","","",""
6.0,0.09675633162260056,0.0007534038378934223,"train",6500.0,"2021-11-24 10:59:51.290374","","","","","","",""
6.0,0.04272026941180229,0.0007569796585109453,"train",6520.0,"2021-11-24 10:59:54.609706","","","","","","",""
6.0,0.05677446350455284,0.0007605597847878862,"train",6540.0,"2021-11-24 10:59:57.941416","","","","","","",""
6.0,0.057267654687166214,0.0007641441622588871,"train",6560.0,"2021-11-24 11:00:02.070337","","","","","","",""
6.0,0.07690207660198212,0.0007677327363939143,"train",6580.0,"2021-11-24 11:00:05.384409","","","","","","",""
6.0,0.03802470490336418,0.0007713254525990895,"train",6600.0,"2021-11-24 11:00:08.782677","","","","","","",""
6.0,0.05337492376565933,0.0007749222562175211,"train",6620.0,"2021-11-24 11:00:12.101960","","","","","","",""
6.0,0.052698925137519836,0.000778523092530133,"train",6640.0,"2021-11-24 11:00:15.333072","","","","","","",""
6.0,0.05960044264793396,0.0007821279067564996,"train",6660.0,"2021-11-24 11:00:18.606546","","","","","","",""
6.0,0.04303006827831268,0.0007857366440556786,"train",6680.0,"2021-11-24 11:00:21.889856","","","","","","",""
6.0,0.07731765508651733,0.0007893492495270442,"train",6700.0,"2021-11-24 11:00:25.253822","","","","","","",""
6.0,0.04970977082848549,0.0007929656682111239,"train",6720.0,"2021-11-24 11:00:28.521738","","","","","","",""
6.0,0.050306305289268494,0.0007965858450904332,"train",6740.0,"2021-11-24 11:00:32.409990","","","","","","",""
6.0,0.05435076355934143,0.000800209725090314,"train",6760.0,"2021-11-24 11:00:35.691371","","","","","","",""
6.0,0.04951097443699837,0.0008038372530797706,"train",6780.0,"2021-11-24 11:00:38.960312","","","","","","",""
6.0,0.049139510840177536,0.0008074683738723109,"train",6800.0,"2021-11-24 11:00:42.203090","","","","","","",""
6.0,0.060562267899513245,0.0008111030322267832,"train",6820.0,"2021-11-24 11:00:45.497129","","","","","","",""
6.0,0.052753180265426636,0.0008147411728482187,"train",6840.0,"2021-11-24 11:00:48.857407","","","","","","",""
6.0,0.06435360759496689,0.0008183827403886721,"train",6860.0,"2021-11-24 11:00:52.176111","","","","","","",""
6.0,0.0378616601228714,0.0008220276794480633,"train",6880.0,"2021-11-24 11:00:55.556515","","","","","","",""
6.0,0.029953457415103912,0.0008256759345750203,"train",6900.0,"2021-11-24 11:00:59.528685","","","","","","",""
6.0,0.05940207466483116,0.0008293274502677234,"train",6920.0,"2021-11-24 11:01:02.833060","","","","","","",""
6.0,0.0813385397195816,0.0008329821709747486,"train",6940.0,"2021-11-24 11:01:06.121565","","","","","","",""
6.0,0.05692167580127716,0.0008366400410959136,"train",6960.0,"2021-11-24 11:01:09.429597","","","","","","",""
6.0,0.04442049190402031,0.000840301004983123,"train",6980.0,"2021-11-24 11:01:12.738646","","","","","","",""
6.0,0.05686745420098305,0.0008439650069412147,"train",7000.0,"2021-11-24 11:01:16.057203","","","","","","",""
6.0,0.04166175052523613,0.0008476319912288095,"train",7020.0,"2021-11-24 11:01:19.419472","","","","","","",""
6.0,0.04876239597797394,0.0008513019020591544,"train",7040.0,"2021-11-24 11:01:22.796745","","","","","","",""
6.0,0.04335903748869896,0.0008549746836009771,"train",7060.0,"2021-11-24 11:01:26.867628","","","","","","",""
6.0,0.07238300144672394,0.0008586502799793306,"train",7080.0,"2021-11-24 11:01:30.281124","","","","","","",""
6.0,0.051364485174417496,0.0008623286352764453,"train",7100.0,"2021-11-24 11:01:33.648700","","","","","","",""
6.0,0.044892773032188416,0.0008660096935325802,"train",7120.0,"2021-11-24 11:01:36.998347","","","","","","",""
6.0,0.044997721910476685,0.0008696933987468731,"train",7140.0,"2021-11-24 11:01:40.279798","","","","","","",""
6.0,0.04831995442509651,0.0008733796948781924,"train",7160.0,"2021-11-24 11:01:43.460218","","","","","","",""
6.0,0.040837422013282776,0.0008770685258459915,"train",7180.0,"2021-11-24 11:01:46.741631","","","","","","",""
6.0,0.061155084520578384,0.0008807598355311595,"train",7200.0,"2021-11-24 11:01:50.025464","","","","","","",""
6.0,0.0618906244635582,0.0008844535677768764,"train",7220.0,"2021-11-24 11:01:54.042749","","","","","","",""
6.0,0.04969867691397667,0.0008881496663894681,"train",7240.0,"2021-11-24 11:01:57.341609","","","","","","",""
6.0,0.086068294942379,0.0008918480751392592,"train",7260.0,"2021-11-24 11:02:00.655706","","","","","","",""
6.0,0.06750579923391342,0.00089554873776143,"train",7280.0,"2021-11-24 11:02:04.029692","","","","","","",""
6.0,0.05201273784041405,0.0008992515979568724,"train",7300.0,"2021-11-24 11:02:07.452859","","","","","","",""
6.0,0.05337223783135414,0.0009029565993930457,"train",7320.0,"2021-11-24 11:02:10.828108","","","","","","",""
6.0,0.03637849912047386,0.0009066636857048339,"train",7340.0,"2021-11-24 11:02:14.140455","","","","","","",""
6.0,0.08132322877645493,0.0009103728004954039,"train",7360.0,"2021-11-24 11:02:17.392702","","","","","","",""
6.0,0.06462457776069641,0.0009140838873370617,"train",7380.0,"2021-11-24 11:02:21.415427","","","","","","",""
6.0,0.06849545985460281,0.0009177968897721136,"train",7400.0,"2021-11-24 11:02:24.836544","","","","","","",""
6.0,0.053269241005182266,0.0009215117513137218,"train",7420.0,"2021-11-24 11:02:28.202305","","","","","","",""
6.0,0.049095429480075836,0.0009252284154467663,"train",7440.0,"2021-11-24 11:02:31.552867","","","","","","",""
6.0,0.08234253525733948,0.0009289468256287042,"train",7460.0,"2021-11-24 11:02:34.892777","","","","","","",""
6.0,0.04417047277092934,0.0009326669252904287,"train",7480.0,"2021-11-24 11:02:38.262371","","","","","","",""
6.0,0.04164205119013786,0.0009363886578371307,"train",7500.0,"2021-11-24 11:02:41.564729","","","","","","",""
6.0,"","","train",7518.0,"2021-11-24 11:04:30.190872",0.6211453103398094,0.7096528134269042,0.9756725672045937,0.6482574235651171,0.5468502629680297,0.5674478891747101,0.37966994571425616
6.0,"","","val",7518.0,"2021-11-24 11:04:59.203357",0.5823379334338398,0.614121411153283,0.9593842782920933,0.5999579839865878,0.49703301736151606,0.5157745167888165,0.33049080853619855
7.0,0.04567300155758858,0.0009401119666491604,"train",7520.0,"2021-11-24 11:05:02.286643","","","","","","",""
7.0,0.05262896418571472,0.0009438367950828869,"train",7540.0,"2021-11-24 11:05:06.637800","","","","","","",""
7.0,0.05603769049048424,0.000947563086471561,"train",7560.0,"2021-11-24 11:05:10.018605","","","","","","",""
7.0,0.0472610741853714,0.0009512907841261783,"train",7580.0,"2021-11-24 11:05:13.372175","","","","","","",""
7.0,0.04671795666217804,0.0009550198313363391,"train",7600.0,"2021-11-24 11:05:16.622858","","","","","","",""
7.0,0.056305158883333206,0.0009587501713711128,"train",7620.0,"2021-11-24 11:05:19.810354","","","","","","",""
7.0,0.05255231633782387,0.0009624817474799023,"train",7640.0,"2021-11-24 11:05:23.000523","","","","","","",""
7.0,0.07823287695646286,0.0009662145028933038,"train",7660.0,"2021-11-24 11:05:26.243295","","","","","","",""
7.0,0.040836069732904434,0.0009699483808239733,"train",7680.0,"2021-11-24 11:05:29.495319","","","","","","",""
7.0,0.045183807611465454,0.0009736833244674895,"train",7700.0,"2021-11-24 11:05:32.723897","","","","","","",""
7.0,0.04006585106253624,0.0009774192770032192,"train",7720.0,"2021-11-24 11:05:36.611206","","","","","","",""
7.0,0.052011024206876755,0.0009811561815951785,"train",7740.0,"2021-11-24 11:05:39.848700","","","","","","",""
7.0,0.0642840638756752,0.0009848939813929015,"train",7760.0,"2021-11-24 11:05:42.989054","","","","","","",""
7.0,0.039592232555150986,0.0009886326195323026,"train",7780.0,"2021-11-24 11:05:46.118275","","","","","","",""
7.0,0.08057326823472977,0.0009923720391365428,"train",7800.0,"2021-11-24 11:05:49.391316","","","","","","",""
7.0,0.07153581827878952,0.000996112183316893,"train",7820.0,"2021-11-24 11:05:52.761604","","","","","","",""
7.0,0.059132955968379974,0.0009998529951736029,"train",7840.0,"2021-11-24 11:05:56.022499","","","","","","",""
7.0,0.07984498888254166,0.0010035944177967638,"train",7860.0,"2021-11-24 11:05:59.275804","","","","","","",""
7.0,0.048156511038541794,0.0010073363942671744,"train",7880.0,"2021-11-24 11:06:03.181010","","","","","","",""
7.0,0.05184659734368324,0.0010110788676572094,"train",7900.0,"2021-11-24 11:06:06.556834","","","","","","",""
7.0,0.041107747703790665,0.0010148217810316822,"train",7920.0,"2021-11-24 11:06:09.934297","","","","","","",""
7.0,0.04798242077231407,0.0010185650774487127,"train",7940.0,"2021-11-24 11:06:13.308178","","","","","","",""
7.0,0.051457133144140244,0.0010223086999605951,"train",7960.0,"2021-11-24 11:06:16.623058","","","","","","",""
7.0,0.04770975187420845,0.0010260525916146609,"train",7980.0,"2021-11-24 11:06:19.925316","","","","","","",""
7.0,0.07668785005807877,0.0010297966954541469,"train",8000.0,"2021-11-24 11:06:23.267674","","","","","","",""
7.0,0.039407603442668915,0.001033540954519064,"train",8020.0,"2021-11-24 11:06:26.674898","","","","","","",""
7.0,0.06946808099746704,0.0010372853118470592,"train",8040.0,"2021-11-24 11:06:30.677390","","","","","","",""
7.0,0.04122164472937584,0.0010410297104742857,"train",8060.0,"2021-11-24 11:06:33.950968","","","","","","",""
7.0,0.04432244598865509,0.0010447740934362692,"train",8080.0,"2021-11-24 11:06:37.250595","","","","","","",""
7.0,0.05577768757939339,0.0010485184037687715,"train",8100.0,"2021-11-24 11:06:40.591815","","","","","","",""
7.0,0.06041534245014191,0.0010522625845086615,"train",8120.0,"2021-11-24 11:06:43.912993","","","","","","",""
7.0,0.04894308000802994,0.0010560065786947796,"train",8140.0,"2021-11-24 11:06:47.378551","","","","","","",""
7.0,0.04577137902379036,0.0010597503293688013,"train",8160.0,"2021-11-24 11:06:50.798023","","","","","","",""
7.0,0.049724020063877106,0.001063493779576111,"train",8180.0,"2021-11-24 11:06:54.086427","","","","","","",""
7.0,0.05287777632474899,0.0010672368723666614,"train",8200.0,"2021-11-24 11:06:57.947893","","","","","","",""
7.0,0.05040636658668518,0.0010709795507958426,"train",8220.0,"2021-11-24 11:07:01.236083","","","","","","",""
7.0,0.07176558673381805,0.0010747217579253504,"train",8240.0,"2021-11-24 11:07:04.553795","","","","","","",""
7.0,0.041013892740011215,0.0010784634368240487,"train",8260.0,"2021-11-24 11:07:07.996697","","","","","","",""
7.0,0.05294135957956314,0.0010822045305688382,"train",8280.0,"2021-11-24 11:07:11.284638","","","","","","",""
7.0,0.03780912607908249,0.0010859449822455227,"train",8300.0,"2021-11-24 11:07:14.534368","","","","","","",""
7.0,0.038831014186143875,0.001089684734949672,"train",8320.0,"2021-11-24 11:07:17.800778","","","","","","",""
7.0,0.04110225662589073,0.00109342373178749,"train",8340.0,"2021-11-24 11:07:21.088374","","","","","","",""
7.0,0.061923012137413025,0.0010971619158766821,"train",8360.0,"2021-11-24 11:07:25.117902","","","","","","",""
7.0,0.07573150843381882,0.0011008992303473152,"train",8380.0,"2021-11-24 11:07:28.469892","","","","","","",""
7.0,0.08948212116956711,0.001104635618342687,"train",8400.0,"2021-11-24 11:07:31.772513","","","","","","",""
7.0,0.06093034893274307,0.001108371023020191,"train",8420.0,"2021-11-24 11:07:35.235152","","","","","","",""
7.0,0.05088287219405174,0.0011121053875521787,"train",8440.0,"2021-11-24 11:07:38.511437","","","","","","",""
7.0,0.07867701351642609,0.0011158386551268257,"train",8460.0,"2021-11-24 11:07:41.817218","","","","","","",""
7.0,0.07007449120283127,0.0011195707689489972,"train",8480.0,"2021-11-24 11:07:45.102827","","","","","","",""
7.0,0.04842131957411766,0.0011233016722411097,"train",8500.0,"2021-11-24 11:07:48.398660","","","","","","",""
7.0,0.06027143821120262,0.0011270313082439951,"train",8520.0,"2021-11-24 11:07:51.683024","","","","","","",""
7.0,0.051543839275836945,0.001130759620217767,"train",8540.0,"2021-11-24 11:07:55.656724","","","","","","",""
7.0,0.04260393604636192,0.0011344865514426794,"train",8560.0,"2021-11-24 11:07:58.949293","","","","","","",""
7.0,0.08572196215391159,0.0011382120452199938,"train",8580.0,"2021-11-24 11:08:02.244323","","","","","","",""
7.0,"","","train",8592.0,"2021-11-24 11:09:49.661527",0.6218438477770502,0.7211459452904816,0.9761528999976977,0.6727795180461186,0.5936603032026635,0.6206061801720579,0.4045684074109248
7.0,"","","val",8592.0,"2021-11-24 11:10:17.770547",0.5818160732923576,0.6205200749633586,0.9597987614225685,0.6226798967683108,0.5324641468917488,0.5560999271257117,0.3481098345346091
8.0,0.06411745399236679,0.001141936044872839,"train",8600.0,"2021-11-24 11:10:21.927773","","","","","","",""
8.0,0.05659443885087967,0.0011456584937470744,"train",8620.0,"2021-11-24 11:10:25.417321","","","","","","",""
8.0,0.04938080906867981,0.0011493793352121522,"train",8640.0,"2021-11-24 11:10:28.774780","","","","","","",""
8.0,0.06593313813209534,0.0011530985126619784,"train",8660.0,"2021-11-24 11:10:32.024424","","","","","","",""
8.0,0.05069076269865036,0.001156815969515773,"train",8680.0,"2021-11-24 11:10:35.246054","","","","","","",""
8.0,0.08029048889875412,0.001160531649218934,"train",8700.0,"2021-11-24 11:10:39.271730","","","","","","",""
8.0,0.07028213888406754,0.001164245495243894,"train",8720.0,"2021-11-24 11:10:42.682250","","","","","","",""
8.0,0.03344445303082466,0.0011679574510909817,"train",8740.0,"2021-11-24 11:10:46.060181","","","","","","",""
8.0,0.03698914125561714,0.0011716674602892828,"train",8760.0,"2021-11-24 11:10:49.242758","","","","","","",""
8.0,0.04084353521466255,0.0011753754663974968,"train",8780.0,"2021-11-24 11:10:52.503531","","","","","","",""
8.0,0.05189376324415207,0.0011790814130047968,"train",8800.0,"2021-11-24 11:10:55.856216","","","","","","",""
8.0,0.04435136914253235,0.001182785243731688,"train",8820.0,"2021-11-24 11:10:59.241574","","","","","","",""
8.0,0.042563632130622864,0.0011864869022308656,"train",8840.0,"2021-11-24 11:11:02.559505","","","","","","",""
8.0,0.06263461709022522,0.0011901863321880693,"train",8860.0,"2021-11-24 11:11:06.601217","","","","","","",""
8.0,0.06651737540960312,0.001193883477322945,"train",8880.0,"2021-11-24 11:11:09.964493","","","","","","",""
8.0,0.0456758514046669,0.0011975782813898961,"train",8900.0,"2021-11-24 11:11:13.292463","","","","","","",""
8.0,0.04005149006843567,0.0012012706881789417,"train",8920.0,"2021-11-24 11:11:16.624251","","","","","","",""
8.0,0.030784059315919876,0.001204960641516572,"train",8940.0,"2021-11-24 11:11:19.981517","","","","","","",""
8.0,0.05542678013443947,0.0012086480852666014,"train",8960.0,"2021-11-24 11:11:23.298778","","","","","","",""
8.0,0.05103415995836258,0.0012123329633310235,"train",8980.0,"2021-11-24 11:11:26.610707","","","","","","",""
8.0,0.06280864030122757,0.0012160152196508643,"train",9000.0,"2021-11-24 11:11:29.935354","","","","","","",""
8.0,0.05772333964705467,0.0012196947982070355,"train",9020.0,"2021-11-24 11:11:33.991387","","","","","","",""
8.0,0.048414792865514755,0.0012233716430211856,"train",9040.0,"2021-11-24 11:11:37.334177","","","","","","",""
8.0,0.058166131377220154,0.001227045698156553,"train",9060.0,"2021-11-24 11:11:40.670105","","","","","","",""
8.0,0.051011454313993454,0.0012307169077188148,"train",9080.0,"2021-11-24 11:11:43.991814","","","","","","",""
8.0,0.044837065041065216,0.0012343852158569401,"train",9100.0,"2021-11-24 11:11:47.334562","","","","","","",""
8.0,0.04346587136387825,0.0012380505667640377,"train",9120.0,"2021-11-24 11:11:50.689684","","","","","","",""
8.0,0.0864778533577919,0.0012417129046782046,"train",9140.0,"2021-11-24 11:11:53.979383","","","","","","",""
8.0,0.06674479693174362,0.0012453721738833758,"train",9160.0,"2021-11-24 11:11:57.290461","","","","","","",""
8.0,0.0512932613492012,0.001249028318710172,"train",9180.0,"2021-11-24 11:12:01.205257","","","","","","",""
8.0,0.04790297523140907,0.0012526812835367447,"train",9200.0,"2021-11-24 11:12:04.506506","","","","","","",""
8.0,0.04197046533226967,0.0012563310127896242,"train",9220.0,"2021-11-24 11:12:07.911254","","","","","","",""
8.0,0.05042480677366257,0.0012599774509445645,"train",9240.0,"2021-11-24 11:12:11.254466","","","","","","",""
8.0,0.03825073316693306,0.0012636205425273874,"train",9260.0,"2021-11-24 11:12:14.577707","","","","","","",""
8.0,0.03948753699660301,0.0012672602321148268,"train",9280.0,"2021-11-24 11:12:17.911315","","","","","","",""
8.0,0.07826542854309082,0.0012708964643353732,"train",9300.0,"2021-11-24 11:12:21.254753","","","","","","",""
8.0,0.0684909000992775,0.001274529183870114,"train",9320.0,"2021-11-24 11:12:24.592389","","","","","","",""
8.0,0.04052223637700081,0.0012781583354535748,"train",9340.0,"2021-11-24 11:12:27.947443","","","","","","",""
8.0,0.062035251408815384,0.0012817838638745646,"train",9360.0,"2021-11-24 11:12:32.035406","","","","","","",""
8.0,0.0410226508975029,0.001285405713977009,"train",9380.0,"2021-11-24 11:12:35.399132","","","","","","",""
8.0,0.08686744421720505,0.0012890238306607947,"train",9400.0,"2021-11-24 11:12:38.847040","","","","","","",""
8.0,0.06408126652240753,0.001292638158882606,"train",9420.0,"2021-11-24 11:12:42.414293","","","","","","",""
8.0,0.03269362449645996,0.0012962486436567603,"train",9440.0,"2021-11-24 11:12:45.902756","","","","","","",""
8.0,0.053874678909778595,0.0012998552300560484,"train",9460.0,"2021-11-24 11:12:49.443279","","","","","","",""
8.0,0.059474002569913864,0.0013034578632125668,"train",9480.0,"2021-11-24 11:12:52.816202","","","","","","",""
8.0,0.0330926887691021,0.0013070564883185534,"train",9500.0,"2021-11-24 11:12:56.120457","","","","","","",""
8.0,0.03884171321988106,0.001310651050627223,"train",9520.0,"2021-11-24 11:13:00.171612","","","","","","",""
8.0,0.04630952700972557,0.001314241495453598,"train",9540.0,"2021-11-24 11:13:03.579333","","","","","","",""
8.0,0.08346929401159286,0.00131782776817534,"train",9560.0,"2021-11-24 11:13:06.874974","","","","","","",""
8.0,0.05527620017528534,0.0013214098142335837,"train",9580.0,"2021-11-24 11:13:10.124537","","","","","","",""
8.0,0.07213588058948517,0.001324987579133764,"train",9600.0,"2021-11-24 11:13:13.353546","","","","","","",""
8.0,0.04287754371762276,0.0013285610084464463,"train",9620.0,"2021-11-24 11:13:16.630781","","","","","","",""
8.0,0.053414832800626755,0.001332130047808155,"train",9640.0,"2021-11-24 11:13:19.942454","","","","","","",""
8.0,0.039716362953186035,0.001335694642922199,"train",9660.0,"2021-11-24 11:13:23.222884","","","","","","",""
8.0,"","","train",9666.0,"2021-11-24 11:15:10.480676",0.6382303718256567,0.733628981814047,0.9787136273839553,0.6807041995127856,0.5861347926535866,0.6245581401259664,0.40302404158331473
8.0,"","","val",9666.0,"2021-11-24 11:15:38.964591",0.594630638988751,0.6261097042270213,0.9616779063908042,0.6246106301444148,0.5143725714091798,0.5470049443054602,0.33976023289015117
9.0,0.036842022091150284,0.0013392547395594985,"train",9680.0,"2021-11-24 11:15:44.849872","","","","","","",""
9.0,0.03832041472196579,0.001342810283559412,"train",9700.0,"2021-11-24 11:15:48.284494","","","","","","",""
9.0,0.04154105484485626,0.0013463612208305564,"train",9720.0,"2021-11-24 11:15:51.570147","","","","","","",""
9.0,0.06225167214870453,0.0013499074973516321,"train",9740.0,"2021-11-24 11:15:54.863741","","","","","","",""
9.0,0.06164177879691124,0.0013534490591722464,"train",9760.0,"2021-11-24 11:15:58.204355","","","","","","",""
9.0,0.04984325170516968,0.0013569858524137305,"train",9780.0,"2021-11-24 11:16:01.509266","","","","","","",""
9.0,0.028704309836030006,0.001360517823269962,"train",9800.0,"2021-11-24 11:16:04.808875","","","","","","",""
9.0,0.0637945756316185,0.0013640449180081834,"train",9820.0,"2021-11-24 11:16:08.134318","","","","","","",""
9.0,0.04801369830965996,0.0013675670829698173,"train",9840.0,"2021-11-24 11:16:12.114745","","","","","","",""
9.0,0.05104115605354309,0.0013710842645712853,"train",9860.0,"2021-11-24 11:16:15.374857","","","","","","",""
9.0,0.04923032969236374,0.0013745964093048219,"train",9880.0,"2021-11-24 11:16:18.616467","","","","","","",""
9.0,0.037766847759485245,0.0013781034637392886,"train",9900.0,"2021-11-24 11:16:21.855609","","","","","","",""
9.0,0.034586794674396515,0.0013816053745209864,"train",9920.0,"2021-11-24 11:16:25.152903","","","","","","",""
9.0,0.06530710309743881,0.0013851020883744697,"train",9940.0,"2021-11-24 11:16:28.395765","","","","","","",""
9.0,0.08337819576263428,0.001388593552103353,"train",9960.0,"2021-11-24 11:16:31.721289","","","","","","",""
9.0,0.052920032292604446,0.0013920797125911233,"train",9980.0,"2021-11-24 11:16:35.026914","","","","","","",""
9.0,0.037700001150369644,0.001395560516801947,"train",10000.0,"2021-11-24 11:16:38.168212","","","","","","",""
9.0,0.040297169238328934,0.0013990359117814774,"train",10020.0,"2021-11-24 11:16:42.183748","","","","","","",""
9.0,0.04521605744957924,0.0014025058446576583,"train",10040.0,"2021-11-24 11:16:45.441533","","","","","","",""
9.0,0.06123252213001251,0.0014059702626415317,"train",10060.0,"2021-11-24 11:16:48.765393","","","","","","",""
9.0,0.03577464446425438,0.0014094291130280377,"train",10080.0,"2021-11-24 11:16:52.177538","","","","","","",""
9.0,0.041757263243198395,0.0014128823431968183,"train",10100.0,"2021-11-24 11:16:55.574905","","","","","","",""
9.0,0.06889449059963226,0.001416329900613017,"train",10120.0,"2021-11-24 11:16:58.987252","","","","","","",""
9.0,0.027567388489842415,0.0014197717328280782,"train",10140.0,"2021-11-24 11:17:02.311736","","","","","","",""
9.0,0.07514220476150513,0.0014232077874805457,"train",10160.0,"2021-11-24 11:17:05.669621","","","","","","",""
9.0,0.04808266460895538,0.0014266380122968589,"train",10180.0,"2021-11-24 11:17:09.683142","","","","","","",""
9.0,0.034968603402376175,0.0014300623550921468,"train",10200.0,"2021-11-24 11:17:13.031762","","","","","","",""
9.0,0.03938956931233406,0.0014334807637710243,"train",10220.0,"2021-11-24 11:17:16.347113","","","","","","",""
9.0,0.04415979981422424,0.0014368931863283831,"train",10240.0,"2021-11-24 11:17:19.627200","","","","","","",""
9.0,0.05829397588968277,0.0014402995708501826,"train",10260.0,"2021-11-24 11:17:22.974335","","","","","","",""
9.0,0.03433721885085106,0.0014436998655142422,"train",10280.0,"2021-11-24 11:17:26.392305","","","","","","",""
9.0,0.03661943972110748,0.0014470940185910258,"train",10300.0,"2021-11-24 11:17:29.809869","","","","","","",""
9.0,0.046290911734104156,0.001450481978444431,"train",10320.0,"2021-11-24 11:17:33.168833","","","","","","",""
9.0,0.06920722126960754,0.0014538636935325763,"train",10340.0,"2021-11-24 11:17:37.201486","","","","","","",""
9.0,0.06808847188949585,0.0014572391124085817,"train",10360.0,"2021-11-24 11:17:40.469220","","","","","","",""
9.0,0.06868144869804382,0.0014606081837213525,"train",10380.0,"2021-11-24 11:17:43.885722","","","","","","",""
9.0,0.051005877554416656,0.0014639708562163639,"train",10400.0,"2021-11-24 11:17:47.327978","","","","","","",""
9.0,0.07111366838216782,0.001467327078736435,"train",10420.0,"2021-11-24 11:17:50.675374","","","","","","",""
9.0,0.07814762741327286,0.0014706768002225108,"train",10440.0,"2021-11-24 11:17:53.943803","","","","","","",""
9.0,0.0686439648270607,0.0014740199697144392,"train",10460.0,"2021-11-24 11:17:57.206804","","","","","","",""
9.0,0.03641555458307266,0.0014773565363517442,"train",10480.0,"2021-11-24 11:18:00.502307","","","","","","",""
9.0,0.0494837686419487,0.0014806864493744007,"train",10500.0,"2021-11-24 11:18:04.548033","","","","","","",""
9.0,0.04346131160855293,0.0014840096581236072,"train",10520.0,"2021-11-24 11:18:07.908985","","","","","","",""
9.0,0.07543613016605377,0.001487326112042556,"train",10540.0,"2021-11-24 11:18:11.262788","","","","","","",""
9.0,0.0531219020485878,0.0014906357606772013,"train",10560.0,"2021-11-24 11:18:14.646133","","","","","","",""
9.0,0.034570980817079544,0.0014939385536770291,"train",10580.0,"2021-11-24 11:18:18.046452","","","","","","",""
9.0,0.07243255525827408,0.0014972344407958218,"train",10600.0,"2021-11-24 11:18:21.426850","","","","","","",""
9.0,0.050343241542577744,0.0015005233718924213,"train",10620.0,"2021-11-24 11:18:24.720892","","","","","","",""
9.0,0.047176703810691833,0.0015038052969314946,"train",10640.0,"2021-11-24 11:18:28.010621","","","","","","",""
9.0,0.06195739656686783,0.0015070801659842939,"train",10660.0,"2021-11-24 11:18:31.985095","","","","","","",""
9.0,0.05841297656297684,0.001510347929229414,"train",10680.0,"2021-11-24 11:18:35.281072","","","","","","",""
9.0,0.08044169843196869,0.0015136085369535537,"train",10700.0,"2021-11-24 11:18:38.573109","","","","","","",""
9.0,0.06459558010101318,0.0015168619395522708,"train",10720.0,"2021-11-24 11:18:41.845704","","","","","","",""
9.0,0.0425943098962307,0.0015201080875307349,"train",10740.0,"2021-11-24 11:18:45.027194","","","","","","",""
9.0,"","","train",10740.0,"2021-11-24 11:20:28.702358",0.630561012879284,0.7457386004843259,0.980121019707412,0.6702336503702391,0.5676288788198393,0.6019729963814362,0.394545308492783
9.0,"","","val",10740.0,"2021-11-24 11:20:57.030261",0.5782210367621478,0.6196465966007879,0.9613793729804101,0.6080174265352369,0.4960525371581058,0.5248332166224632,0.32820071354485414
10.0,0.059542570263147354,0.0015233469315044834,"train",10760.0,"2021-11-24 11:21:03.265439","","","","","","",""
10.0,0.06084480881690979,0.0015265784222001709,"train",10780.0,"2021-11-24 11:21:06.660419","","","","","","",""
10.0,0.060038160532712936,0.0015298025104563185,"train",10800.0,"2021-11-24 11:21:10.039593","","","","","","",""
10.0,0.03242718428373337,0.001533019147224064,"train",10820.0,"2021-11-24 11:21:14.066883","","","","","","",""
10.0,0.043007511645555496,0.0015362282835679054,"train",10840.0,"2021-11-24 11:21:17.306910","","","","","","",""
10.0,0.039819877594709396,0.0015394298706664469,"train",10860.0,"2021-11-24 11:21:20.544604","","","","","","",""
10.0,0.041434358805418015,0.001542623859813141,"train",10880.0,"2021-11-24 11:21:23.778632","","","","","","",""
10.0,0.05813136696815491,0.00154581020241703,"train",10900.0,"2021-11-24 11:21:27.018969","","","","","","",""
10.0,0.06779135018587112,0.0015489888500034858,"train",10920.0,"2021-11-24 11:21:30.364833","","","","","","",""
10.0,0.03760877624154091,0.0015521597542149444,"train",10940.0,"2021-11-24 11:21:33.692210","","","","","","",""
10.0,0.04242333769798279,0.0015553228668116455,"train",10960.0,"2021-11-24 11:21:36.898067","","","","","","",""
10.0,0.0407087542116642,0.0015584781396723642,"train",10980.0,"2021-11-24 11:21:40.158449","","","","","","",""
10.0,0.07920843362808228,0.0015616255247951432,"train",11000.0,"2021-11-24 11:21:44.114524","","","","","","",""
10.0,0.04013226181268692,0.0015647649742980233,"train",11020.0,"2021-11-24 11:21:47.505068","","","","","","",""
10.0,0.04560856893658638,0.0015678964404197727,"train",11040.0,"2021-11-24 11:21:50.827163","","","","","","",""
10.0,0.041608426719903946,0.0015710198755206112,"train",11060.0,"2021-11-24 11:21:54.121489","","","","","","",""
10.0,0.050097301602363586,0.0015741352320829379,"train",11080.0,"2021-11-24 11:21:57.473676","","","","","","",""
10.0,0.050392188131809235,0.0015772424627120527,"train",11100.0,"2021-11-24 11:22:00.696990","","","","","","",""
10.0,0.04240429401397705,0.0015803415201368761,"train",11120.0,"2021-11-24 11:22:04.134326","","","","","","",""
10.0,0.03431930020451546,0.001583432357210671,"train",11140.0,"2021-11-24 11:22:07.481449","","","","","","",""
10.0,0.03670305013656616,0.001586514926911758,"train",11160.0,"2021-11-24 11:22:11.555344","","","","","","",""
10.0,0.045708511024713516,0.0015895891823442313,"train",11180.0,"2021-11-24 11:22:14.833366","","","","","","",""
10.0,0.07182135432958603,0.0015926550767386717,"train",11200.0,"2021-11-24 11:22:18.086939","","","","","","",""
10.0,0.036226626485586166,0.0015957125634528599,"train",11220.0,"2021-11-24 11:22:21.318510","","","","","","",""
10.0,0.04204678162932396,0.0015987615959724836,"train",11240.0,"2021-11-24 11:22:24.630754","","","","","","",""
10.0,0.0388447605073452,0.0016018021279118457,"train",11260.0,"2021-11-24 11:22:27.914267","","","","","","",""
10.0,0.031521037220954895,0.0016048341130145728,"train",11280.0,"2021-11-24 11:22:31.221621","","","","","","",""
10.0,0.05737277492880821,0.0016078575051543145,"train",11300.0,"2021-11-24 11:22:34.605211","","","","","","",""
10.0,0.04539794474840164,0.0016108722583354478,"train",11320.0,"2021-11-24 11:22:38.623080","","","","","","",""
10.0,0.03639291971921921,0.0016138783266937777,"train",11340.0,"2021-11-24 11:22:41.942607","","","","","","",""
10.0,0.04215962812304497,0.0016168756644972322,"train",11360.0,"2021-11-24 11:22:45.240370","","","","","","",""
10.0,0.06531409174203873,0.0016198642261465587,"train",11380.0,"2021-11-24 11:22:48.531425","","","","","","",""
10.0,0.038938894867897034,0.0016228439661760208,"train",11400.0,"2021-11-24 11:22:51.879895","","","","","","",""
10.0,0.04409601166844368,0.001625814839254086,"train",11420.0,"2021-11-24 11:22:55.193284","","","","","","",""
10.0,0.06632982194423676,0.0016287768001841164,"train",11440.0,"2021-11-24 11:22:58.569757","","","","","","",""
10.0,0.041799940168857574,0.001631729803905059,"train",11460.0,"2021-11-24 11:23:01.836613","","","","","","",""
10.0,0.039734259247779846,0.0016346738054921273,"train",11480.0,"2021-11-24 11:23:05.856390","","","","","","",""
10.0,0.040443889796733856,0.001637608760157486,"train",11500.0,"2021-11-24 11:23:09.134557","","","","","","",""
10.0,0.03863486647605896,0.0016405346232509356,"train",11520.0,"2021-11-24 11:23:12.499533","","","","","","",""
10.0,0.038948025554418564,0.0016434513502605861,"train",11540.0,"2021-11-24 11:23:15.915855","","","","","","",""
10.0,0.03971630334854126,0.0016463588968135383,"train",11560.0,"2021-11-24 11:23:19.318319","","","","","","",""
10.0,0.04208016023039818,0.0016492572186765577,"train",11580.0,"2021-11-24 11:23:22.674057","","","","","","",""
10.0,0.06265177577733994,0.001652146271756747,"train",11600.0,"2021-11-24 11:23:25.946251","","","","","","",""
10.0,0.029267627745866776,0.0016550260121022172,"train",11620.0,"2021-11-24 11:23:29.164214","","","","","","",""
10.0,0.03828508406877518,0.0016578963959027562,"train",11640.0,"2021-11-24 11:23:33.104173","","","","","","",""
10.0,0.04453197866678238,0.001660757379490496,"train",11660.0,"2021-11-24 11:23:36.436848","","","","","","",""
10.0,0.03415145352482796,0.0016636089193405761,"train",11680.0,"2021-11-24 11:23:39.751889","","","","","","",""
10.0,0.07244100421667099,0.0016664509720718049,"train",11700.0,"2021-11-24 11:23:43.032188","","","","","","",""
10.0,0.04071969538927078,0.0016692834944473224,"train",11720.0,"2021-11-24 11:23:46.359157","","","","","","",""
10.0,0.05713203176856041,0.0016721064433752554,"train",11740.0,"2021-11-24 11:23:49.676306","","","","","","",""
10.0,0.037237636744976044,0.0016749197759093734,"train",11760.0,"2021-11-24 11:23:52.961557","","","","","","",""
10.0,0.08263912796974182,0.0016777234492497436,"train",11780.0,"2021-11-24 11:23:56.235264","","","","","","",""
10.0,0.042614467442035675,0.0016805174207433808,"train",11800.0,"2021-11-24 11:23:59.512181","","","","","","",""
10.0,"","","train",11814.0,"2021-11-24 11:25:47.839385",0.6676708142327002,0.7729171947583432,0.9830703722568798,0.7003976326275755,0.6319135726386917,0.6664972785174085,0.4505622707962355
10.0,"","","val",11814.0,"2021-11-24 11:26:17.425415",0.6101124898527195,0.64031024349557,0.9632916678247762,0.6284890585559302,0.5397796505497061,0.5682795684598188,0.3591814509994192
11.0,0.03866981714963913,0.0016833016478848956,"train",11820.0,"2021-11-24 11:26:21.184447","","","","","","",""
11.0,0.033092647790908813,0.0016860760883171426,"train",11840.0,"2021-11-24 11:26:24.720059","","","","","","",""
11.0,0.03726007416844368,0.001688840699831864,"train",11860.0,"2021-11-24 11:26:28.136597","","","","","","",""
11.0,0.037472087889909744,0.0016915954403703313,"train",11880.0,"2021-11-24 11:26:31.471795","","","","","","",""
11.0,0.06436357647180557,0.0016943402680239862,"train",11900.0,"2021-11-24 11:26:34.762555","","","","","","",""
11.0,0.04818557947874069,0.0016970751410350774,"train",11920.0,"2021-11-24 11:26:38.028392","","","","","","",""
11.0,0.06256239116191864,0.001699800017797296,"train",11940.0,"2021-11-24 11:26:41.341985","","","","","","",""
11.0,0.06628488004207611,0.0017025148568564086,"train",11960.0,"2021-11-24 11:26:44.561600","","","","","","",""
11.0,0.046273306012153625,0.001705219616910888,"train",11980.0,"2021-11-24 11:26:48.576373","","","","","","",""
11.0,0.032822322100400925,0.001707914256812541,"train",12000.0,"2021-11-24 11:26:51.793853","","","","","","",""
11.0,0.03967772796750069,0.0017105987355671352,"train",12020.0,"2021-11-24 11:26:55.063094","","","","","","",""
11.0,0.05998097360134125,0.0017132730123350227,"train",12040.0,"2021-11-24 11:26:58.337487","","","","","","",""
11.0,0.0320771224796772,0.00171593704643176,"train",12060.0,"2021-11-24 11:27:01.519874","","","","","","",""
11.0,0.050096817314624786,0.0017185907973287285,"train",12080.0,"2021-11-24 11:27:04.749857","","","","","","",""
11.0,0.07005868852138519,0.0017212342246537506,"train",12100.0,"2021-11-24 11:27:07.958561","","","","","","",""
11.0,0.04769272357225418,0.0017238672881917032,"train",12120.0,"2021-11-24 11:27:11.251293","","","","","","",""
11.0,0.03974032402038574,0.001726489947885131,"train",12140.0,"2021-11-24 11:27:15.230031","","","","","","",""
11.0,0.05083400756120682,0.0017291021638348543,"train",12160.0,"2021-11-24 11:27:18.567707","","","","","","",""
11.0,0.03504275530576706,0.0017317038963005765,"train",12180.0,"2021-11-24 11:27:21.965562","","","","","","",""
11.0,0.02871486358344555,0.00173429510570149,"train",12200.0,"2021-11-24 11:27:25.301721","","","","","","",""
11.0,0.06894830614328384,0.0017368757526168759,"train",12220.0,"2021-11-24 11:27:28.595044","","","","","","",""
11.0,0.05122603848576546,0.0017394457977867057,"train",12240.0,"2021-11-24 11:27:31.828507","","","","","","",""
11.0,0.06176840141415596,0.0017420052021122378,"train",12260.0,"2021-11-24 11:27:35.160692","","","","","","",""
11.0,0.036370739340782166,0.0017445539266566128,"train",12280.0,"2021-11-24 11:27:38.482245","","","","","","",""
11.0,0.04523651674389839,0.001747091932645445,"train",12300.0,"2021-11-24 11:27:42.423290","","","","","","",""
11.0,0.040019690990448,0.0017496191814674125,"train",12320.0,"2021-11-24 11:27:45.611605","","","","","","",""
11.0,0.037889447063207626,0.001752135634674846,"train",12340.0,"2021-11-24 11:27:48.861070","","","","","","",""
11.0,0.05911603569984436,0.0017546412539843118,"train",12360.0,"2021-11-24 11:27:52.118893","","","","","","",""
11.0,0.06371794641017914,0.001757136001277194,"train",12380.0,"2021-11-24 11:27:55.424911","","","","","","",""
11.0,0.08189737796783447,0.001759619838600278,"train",12400.0,"2021-11-24 11:27:58.673686","","","","","","",""
11.0,0.04084870591759682,0.0017620927281663229,"train",12420.0,"2021-11-24 11:28:01.917671","","","","","","",""
11.0,0.04039762169122696,0.0017645546323546398,"train",12440.0,"2021-11-24 11:28:05.127582","","","","","","",""
11.0,0.07129842787981033,0.0017670055137116636,"train",12460.0,"2021-11-24 11:28:09.091258","","","","","","",""
11.0,0.04250074550509453,0.0017694453349515209,"train",12480.0,"2021-11-24 11:28:12.374099","","","","","","",""
11.0,0.036858297884464264,0.0017718740589566,"train",12500.0,"2021-11-24 11:28:15.680443","","","","","","",""
11.0,0.03133482486009598,0.0017742916487781134,"train",12520.0,"2021-11-24 11:28:18.908402","","","","","","",""
11.0,0.046467918902635574,0.0017766980676366608,"train",12540.0,"2021-11-24 11:28:22.181518","","","","","","",""
11.0,0.07272148132324219,0.001779093278922789,"train",12560.0,"2021-11-24 11:28:25.581609","","","","","","",""
11.0,0.04292299225926399,0.001781477246197548,"train",12580.0,"2021-11-24 11:28:28.933323","","","","","","",""
11.0,0.06492642313241959,0.0017838499331930462,"train",12600.0,"2021-11-24 11:28:32.183326","","","","","","",""
11.0,0.03200514242053032,0.001786211303813001,"train",12620.0,"2021-11-24 11:28:35.435839","","","","","","",""
11.0,0.04277697578072548,0.0017885613221332894,"train",12640.0,"2021-11-24 11:28:39.426293","","","","","","",""
11.0,0.0596870556473732,0.0017908999524024931,"train",12660.0,"2021-11-24 11:28:42.744003","","","","","","",""
11.0,0.037370409816503525,0.0017932271590424438,"train",12680.0,"2021-11-24 11:28:46.054965","","","","","","",""
11.0,0.052282169461250305,0.0017955429066487635,"train",12700.0,"2021-11-24 11:28:49.308366","","","","","","",""
11.0,0.0481376051902771,0.0017978471599914025,"train",12720.0,"2021-11-24 11:28:52.521368","","","","","","",""
11.0,0.0466792918741703,0.0018001398840151778,"train",12740.0,"2021-11-24 11:28:55.734666","","","","","","",""
11.0,0.03740151971578598,0.0018024210438403031,"train",12760.0,"2021-11-24 11:28:59.037889","","","","","","",""
11.0,0.03704658895730972,0.0018046906047629228,"train",12780.0,"2021-11-24 11:29:02.439371","","","","","","",""
11.0,0.07497753202915192,0.0018069485322556372,"train",12800.0,"2021-11-24 11:29:06.522509","","","","","","",""
11.0,0.041179098188877106,0.001809194791968029,"train",12820.0,"2021-11-24 11:29:09.825129","","","","","","",""
11.0,0.042017389088869095,0.0018114293497271863,"train",12840.0,"2021-11-24 11:29:13.043177","","","","","","",""
11.0,0.03592613711953163,0.0018136521715382218,"train",12860.0,"2021-11-24 11:29:16.159147","","","","","","",""
11.0,0.046926096081733704,0.0018158632235847892,"train",12880.0,"2021-11-24 11:29:19.280485","","","","","","",""
11.0,"","","train",12888.0,"2021-11-24 11:31:04.845475",0.6490431492396129,0.7766325549279943,0.9840227356299555,0.6717843776677951,0.6110546778622266,0.6399203779528343,0.43514807905629443
11.0,"","","val",12888.0,"2021-11-24 11:31:33.220110",0.5941667633074336,0.633183959494185,0.9617980955294553,0.6018412430990492,0.5228643017645572,0.5452895860295025,0.3460530319460977
12.0,0.02054097130894661,0.0018180624722295999,"train",12900.0,"2021-11-24 11:31:38.016830","","","","","","",""
12.0,0.03124837763607502,0.001820249884014933,"train",12920.0,"2021-11-24 11:31:41.393224","","","","","","",""
12.0,0.058688338845968246,0.001822425425663144,"train",12940.0,"2021-11-24 11:31:44.640927","","","","","","",""
12.0,0.0352928526699543,0.0018245890640771725,"train",12960.0,"2021-11-24 11:31:48.664017","","","","","","",""
12.0,0.032981302589178085,0.0018267407663410452,"train",12980.0,"2021-11-24 11:31:51.904400","","","","","","",""
12.0,0.03827226161956787,0.0018288804997203755,"train",13000.0,"2021-11-24 11:31:55.122436","","","","","","",""
12.0,0.04502476379275322,0.0018310082316628634,"train",13020.0,"2021-11-24 11:31:58.436334","","","","","","",""
12.0,0.047440286725759506,0.0018331239297987893,"train",13040.0,"2021-11-24 11:32:01.748954","","","","","","",""
12.0,0.049492910504341125,0.0018352275619415066,"train",13060.0,"2021-11-24 11:32:05.206202","","","","","","",""
12.0,0.032200176268815994,0.0018373190960879326,"train",13080.0,"2021-11-24 11:32:08.568324","","","","","","",""
12.0,0.05076315999031067,0.0018393985004190336,"train",13100.0,"2021-11-24 11:32:11.841123","","","","","","",""
12.0,0.028362637385725975,0.00184146574330031,"train",13120.0,"2021-11-24 11:32:15.760282","","","","","","",""
12.0,0.05648982897400856,0.001843520793282278,"train",13140.0,"2021-11-24 11:32:18.979888","","","","","","",""
12.0,0.043358344584703445,0.0018455636191009464,"train",13160.0,"2021-11-24 11:32:22.342279","","","","","","",""
12.0,0.08317339420318604,0.001847594189678294,"train",13180.0,"2021-11-24 11:32:25.656840","","","","","","",""
12.0,0.03651391714811325,0.0018496124741227415,"train",13200.0,"2021-11-24 11:32:28.901866","","","","","","",""
12.0,0.06817695498466492,0.001851618441729622,"train",13220.0,"2021-11-24 11:32:32.138493","","","","","","",""
12.0,0.035724859684705734,0.0018536120619816467,"train",13240.0,"2021-11-24 11:32:35.387751","","","","","","",""
12.0,0.07056806236505508,0.0018555933045493712,"train",13260.0,"2021-11-24 11:32:38.678399","","","","","","",""
12.0,0.03837129846215248,0.0018575621392916554,"train",13280.0,"2021-11-24 11:32:42.702217","","","","","","",""
12.0,0.05662503466010094,0.0018595185362561225,"train",13300.0,"2021-11-24 11:32:46.031837","","","","","","",""
12.0,0.07194801419973373,0.0018614624656796155,"train",13320.0,"2021-11-24 11:32:49.427512","","","","","","",""
12.0,0.04833567142486572,0.0018633938979886484,"train",13340.0,"2021-11-24 11:32:52.766927","","","","","","",""
12.0,0.027522362768650055,0.0018653128037998568,"train",13360.0,"2021-11-24 11:32:56.105043","","","","","","",""
12.0,0.03161639720201492,0.0018672191539204459,"train",13380.0,"2021-11-24 11:32:59.479685","","","","","","",""
12.0,0.03976225107908249,0.0018691129193486335,"train",13400.0,"2021-11-24 11:33:02.830235","","","","","","",""
12.0,0.039543237537145615,0.0018709940712740908,"train",13420.0,"2021-11-24 11:33:06.185345","","","","","","",""
12.0,0.0543806329369545,0.0018728625810783823,"train",13440.0,"2021-11-24 11:33:09.553988","","","","","","",""
12.0,0.044415075331926346,0.0018747184203353996,"train",13460.0,"2021-11-24 11:33:13.679737","","","","","","",""
12.0,0.03080182522535324,0.0018765615608117947,"train",13480.0,"2021-11-24 11:33:17.030474","","","","","","",""
12.0,0.05789723992347717,0.0018783919744674096,"train",13500.0,"2021-11-24 11:33:20.431530","","","","","","",""
12.0,0.04075087606906891,0.0018802096334557027,"train",13520.0,"2021-11-24 11:33:23.845936","","","","","","",""
12.0,0.036316853016614914,0.0018820145101241712,"train",13540.0,"2021-11-24 11:33:27.103980","","","","","","",""
12.0,0.04047524929046631,0.0018838065770147745,"train",13560.0,"2021-11-24 11:33:30.438036","","","","","","",""
12.0,0.03526976704597473,0.0018855858068643496,"train",13580.0,"2021-11-24 11:33:33.754454","","","","","","",""
12.0,0.032844770699739456,0.001887352172605026,"train",13600.0,"2021-11-24 11:33:37.223873","","","","","","",""
12.0,0.034246787428855896,0.0018891056473646398,"train",13620.0,"2021-11-24 11:33:41.240862","","","","","","",""
12.0,0.03432690352201462,0.0018908462044671395,"train",13640.0,"2021-11-24 11:33:44.544978","","","","","","",""
12.0,0.04848890006542206,0.001892573817432993,"train",13660.0,"2021-11-24 11:33:47.838898","","","","","","",""
12.0,0.047430552542209625,0.0018942884599795914,"train",13680.0,"2021-11-24 11:33:51.128166","","","","","","",""
12.0,0.0344083346426487,0.001895990106021648,"train",13700.0,"2021-11-24 11:33:54.474238","","","","","","",""
12.0,0.029616251587867737,0.0018976787296715943,"train",13720.0,"2021-11-24 11:33:57.828886","","","","","","",""
12.0,0.03396162390708923,0.0018993543052399757,"train",13740.0,"2021-11-24 11:34:01.176749","","","","","","",""
12.0,0.03084481880068779,0.0019010168072358413,"train",13760.0,"2021-11-24 11:34:04.600388","","","","","","",""
12.0,0.057839635759592056,0.0019026662103671305,"train",13780.0,"2021-11-24 11:34:08.653682","","","","","","",""
12.0,0.03761237487196922,0.0019043024895410605,"train",13800.0,"2021-11-24 11:34:12.036144","","","","","","",""
12.0,0.05055394768714905,0.001905925619864506,"train",13820.0,"2021-11-24 11:34:15.307894","","","","","","",""
12.0,0.042160239070653915,0.001907535576644378,"train",13840.0,"2021-11-24 11:34:18.588357","","","","","","",""
12.0,0.03498178720474243,0.0019091323353880008,"train",13860.0,"2021-11-24 11:34:21.810083","","","","","","",""
12.0,0.06178703159093857,0.0019107158718034828,"train",13880.0,"2021-11-24 11:34:25.104709","","","","","","",""
12.0,0.0716465637087822,0.001912286161800088,"train",13900.0,"2021-11-24 11:34:28.483934","","","","","","",""
12.0,0.053148988634347916,0.0019138431814886008,"train",13920.0,"2021-11-24 11:34:31.823011","","","","","","",""
12.0,0.04481552541255951,0.0019153869071816896,"train",13940.0,"2021-11-24 11:34:35.788817","","","","","","",""
12.0,0.04665418341755867,0.0019169173153942693,"train",13960.0,"2021-11-24 11:34:39.053590","","","","","","",""
12.0,"","","train",13962.0,"2021-11-24 11:36:30.277912",0.6803318052826893,0.8045307939038697,0.986444695104072,0.7165615999948701,0.6652789263723521,0.699264512593348,0.48520331684713686
12.0,"","","val",13962.0,"2021-11-24 11:36:59.667207",0.6028064478719704,0.646214753408992,0.9638054420828479,0.6270768434481603,0.5511974122028328,0.5834535597132674,0.36850151340841725
13.0,0.0578535832464695,0.0019184343828438557,"train",13980.0,"2021-11-24 11:37:05.536948","","","","","","",""
13.0,0.04237339273095131,0.0019199380864509208,"train",14000.0,"2021-11-24 11:37:09.009908","","","","","","",""
13.0,0.03766678646206856,0.0019214284033392457,"train",14020.0,"2021-11-24 11:37:12.471931","","","","","","",""
13.0,0.05011400207877159,0.0019229053108362649,"train",14040.0,"2021-11-24 11:37:15.809881","","","","","","",""
13.0,0.07118497043848038,0.0019243687864734145,"train",14060.0,"2021-11-24 11:37:19.100401","","","","","","",""
13.0,0.036109309643507004,0.0019258188079864732,"train",14080.0,"2021-11-24 11:37:22.367309","","","","","","",""
13.0,0.06619632244110107,0.0019272553533158999,"train",14100.0,"2021-11-24 11:37:26.472770","","","","","","",""
13.0,0.034403134137392044,0.0019286784006071697,"train",14120.0,"2021-11-24 11:37:29.780133","","","","","","",""
13.0,0.04227190837264061,0.0019300879282111083,"train",14140.0,"2021-11-24 11:37:33.036889","","","","","","",""
13.0,0.026511291041970253,0.0019314839146842185,"train",14160.0,"2021-11-24 11:37:36.260527","","","","","","",""
13.0,0.04499948024749756,0.0019328663387890076,"train",14180.0,"2021-11-24 11:37:39.544315","","","","","","",""
13.0,0.03232084587216377,0.0019342351794943119,"train",14200.0,"2021-11-24 11:37:42.879729","","","","","","",""
13.0,0.04084491357207298,0.0019355904159756138,"train",14220.0,"2021-11-24 11:37:46.373262","","","","","","",""
13.0,0.04199740290641785,0.0019369320276153613,"train",14240.0,"2021-11-24 11:37:49.825584","","","","","","",""
13.0,0.03826727345585823,0.00193825999400328,"train",14260.0,"2021-11-24 11:37:53.207713","","","","","","",""
13.0,0.044217001646757126,0.0019395742949366843,"train",14280.0,"2021-11-24 11:37:57.398116","","","","","","",""
13.0,0.06959915161132812,0.0019408749104207845,"train",14300.0,"2021-11-24 11:38:00.807837","","","","","","",""
13.0,0.03710991144180298,0.0019421618206689913,"train",14320.0,"2021-11-24 11:38:04.111352","","","","","","",""
13.0,0.05146164819598198,0.0019434350061032163,"train",14340.0,"2021-11-24 11:38:07.439599","","","","","","",""
13.0,0.03158145025372505,0.0019446944473541703,"train",14360.0,"2021-11-24 11:38:10.780911","","","","","","",""
13.0,0.041582752019166946,0.0019459401252616573,"train",14380.0,"2021-11-24 11:38:14.031459","","","","","","",""
13.0,0.08243918418884277,0.001947172020874868,"train",14400.0,"2021-11-24 11:38:17.335409","","","","","","",""
13.0,0.03242921829223633,0.0019483901154526647,"train",14420.0,"2021-11-24 11:38:20.628329","","","","","","",""
13.0,0.03260336443781853,0.0019495943904638694,"train",14440.0,"2021-11-24 11:38:24.716956","","","","","","",""
13.0,0.03791518881917,0.0019507848275875444,"train",14460.0,"2021-11-24 11:38:28.088626","","","","","","",""
13.0,0.04416315630078316,0.0019519614087132712,"train",14480.0,"2021-11-24 11:38:31.482031","","","","","","",""
13.0,0.0359874926507473,0.0019531241159414263,"train",14500.0,"2021-11-24 11:38:34.907501","","","","","","",""
13.0,0.04926949366927147,0.001954272931583453,"train",14520.0,"2021-11-24 11:38:38.268617","","","","","","",""
13.0,0.06572636216878891,0.0019554078381621306,"train",14540.0,"2021-11-24 11:38:41.622222","","","","","","",""
13.0,0.036162812262773514,0.0019565288184118417,"train",14560.0,"2021-11-24 11:38:44.947775","","","","","","",""
13.0,0.034733131527900696,0.0019576358552788314,"train",14580.0,"2021-11-24 11:38:48.278982","","","","","","",""
13.0,0.06281246244907379,0.0019587289319214713,"train",14600.0,"2021-11-24 11:38:52.236322","","","","","","",""
13.0,0.069660484790802,0.0019598080317105113,"train",14620.0,"2021-11-24 11:38:55.585331","","","","","","",""
13.0,0.05337940901517868,0.001960873138229337,"train",14640.0,"2021-11-24 11:38:58.811324","","","","","","",""
13.0,0.032751791179180145,0.0019619242352742153,"train",14660.0,"2021-11-24 11:39:02.060819","","","","","","",""
13.0,0.026553655043244362,0.001962961306854543,"train",14680.0,"2021-11-24 11:39:05.340290","","","","","","",""
13.0,0.044965457171201706,0.0019639843371930905,"train",14700.0,"2021-11-24 11:39:08.673085","","","","","","",""
13.0,0.04821003973484039,0.001964993310726241,"train",14720.0,"2021-11-24 11:39:11.980023","","","","","","",""
13.0,0.03801756724715233,0.0019659882121042262,"train",14740.0,"2021-11-24 11:39:15.317490","","","","","","",""
13.0,0.04164619371294975,0.001966969026191363,"train",14760.0,"2021-11-24 11:39:19.384459","","","","","","",""
13.0,0.05563322454690933,0.0019679357380662805,"train",14780.0,"2021-11-24 11:39:22.715770","","","","","","",""
13.0,0.03269673511385918,0.001968888333022148,"train",14800.0,"2021-11-24 11:39:26.095403","","","","","","",""
13.0,0.08048602193593979,0.0019698267965669,"train",14820.0,"2021-11-24 11:39:29.428434","","","","","","",""
13.0,0.04932374879717827,0.0019707511144234557,"train",14840.0,"2021-11-24 11:39:32.750013","","","","","","",""
13.0,0.027230573818087578,0.001971661272529935,"train",14860.0,"2021-11-24 11:39:36.019421","","","","","","",""
13.0,0.0613514669239521,0.001972557257039875,"train",14880.0,"2021-11-24 11:39:39.255481","","","","","","",""
13.0,0.050184253603219986,0.0019734390543224385,"train",14900.0,"2021-11-24 11:39:42.487290","","","","","","",""
13.0,0.04207058250904083,0.001974306650962622,"train",14920.0,"2021-11-24 11:39:46.502061","","","","","","",""
13.0,0.05085963383316994,0.0019751600337614608,"train",14940.0,"2021-11-24 11:39:49.754631","","","","","","",""
13.0,0.04650286212563515,0.0019759991897362284,"train",14960.0,"2021-11-24 11:39:53.087405","","","","","","",""
13.0,0.039079904556274414,0.0019768241061206343,"train",14980.0,"2021-11-24 11:39:56.464537","","","","","","",""
13.0,0.05786906182765961,0.0019776347703650186,"train",15000.0,"2021-11-24 11:39:59.818111","","","","","","",""
13.0,0.027934588491916656,0.001978431170136543,"train",15020.0,"2021-11-24 11:40:03.104535","","","","","","",""
13.0,"","","train",15036.0,"2021-11-24 11:41:51.236941",0.6995415848068107,0.8278272368853317,0.9888345770139705,0.7337287283209414,0.6683029585143003,0.6997544407380603,0.49008990817811643
13.0,"","","val",15036.0,"2021-11-24 11:42:19.382191",0.6128377594804593,0.6469935338510393,0.9654719759347761,0.6347592403918505,0.5480620465925679,0.573089205650104,0.3675254046412237
14.0,0.03297225758433342,0.0019792132933193784,"train",15040.0,"2021-11-24 11:42:22.773461","","","","","","",""
14.0,0.029534460976719856,0.001979981128014888,"train",15060.0,"2021-11-24 11:42:26.386928","","","","","","",""
14.0,0.06061809882521629,0.001980734662541811,"train",15080.0,"2021-11-24 11:42:29.872210","","","","","","",""
14.0,0.0741536021232605,0.0019814738854364374,"train",15100.0,"2021-11-24 11:42:33.980391","","","","","","",""
14.0,0.07579683512449265,0.0019821987854527832,"train",15120.0,"2021-11-24 11:42:37.259909","","","","","","",""
14.0,0.07431799918413162,0.0019829093515627634,"train",15140.0,"2021-11-24 11:42:40.505475","","","","","","",""
14.0,0.02644670568406582,0.001983605572956358,"train",15160.0,"2021-11-24 11:42:43.788326","","","","","","",""
14.0,0.03549044206738472,0.001984287439041775,"train",15180.0,"2021-11-24 11:42:47.039692","","","","","","",""
14.0,0.0468781478703022,0.001984954939445616,"train",15200.0,"2021-11-24 11:42:50.305224","","","","","","",""
14.0,0.03962548449635506,0.0019856080640130295,"train",15220.0,"2021-11-24 11:42:53.569586","","","","","","",""
14.0,0.054636839777231216,0.0019862468028078676,"train",15240.0,"2021-11-24 11:42:56.850449","","","","","","",""
14.0,0.031893711537122726,0.001986871146112837,"train",15260.0,"2021-11-24 11:43:00.783659","","","","","","",""
14.0,0.04112933203577995,0.0019874810844296466,"train",15280.0,"2021-11-24 11:43:04.019858","","","","","","",""
14.0,0.031356774270534515,0.0019880766084791517,"train",15300.0,"2021-11-24 11:43:07.323654","","","","","","",""
14.0,0.0506201907992363,0.0019886577092014953,"train",15320.0,"2021-11-24 11:43:10.619586","","","","","","",""
14.0,0.03391948714852333,0.001989224377756247,"train",15340.0,"2021-11-24 11:43:13.888562","","","","","","",""
14.0,0.026383506134152412,0.0019897766055225353,"train",15360.0,"2021-11-24 11:43:17.182470","","","","","","",""
14.0,0.03688826784491539,0.0019903143840991813,"train",15380.0,"2021-11-24 11:43:20.480092","","","","","","",""
14.0,0.0462813675403595,0.0019908377053048246,"train",15400.0,"2021-11-24 11:43:23.722026","","","","","","",""
14.0,0.059295639395713806,0.001991346561178048,"train",15420.0,"2021-11-24 11:43:27.612048","","","","","","",""
14.0,0.036041416227817535,0.0019918409439775003,"train",15440.0,"2021-11-24 11:43:30.855208","","","","","","",""
14.0,0.03134694695472717,0.0019923208461820117,"train",15460.0,"2021-11-24 11:43:34.090832","","","","","","",""
14.0,0.06517568230628967,0.001992786260490709,"train",15480.0,"2021-11-24 11:43:37.364351","","","","","","",""
14.0,0.06216917186975479,0.0019932371798231287,"train",15500.0,"2021-11-24 11:43:40.739403","","","","","","",""
14.0,0.033034007996320724,0.0019936735973193212,"train",15520.0,"2021-11-24 11:43:44.137526","","","","","","",""
14.0,0.05671317130327225,0.001994095506339958,"train",15540.0,"2021-11-24 11:43:47.455879","","","","","","",""
14.0,0.05965075641870499,0.001994502900466431,"train",15560.0,"2021-11-24 11:43:50.763701","","","","","","",""
14.0,0.05461812764406204,0.0019948957735009517,"train",15580.0,"2021-11-24 11:43:54.768331","","","","","","",""
14.0,0.031118417158722878,0.0019952741194666436,"train",15600.0,"2021-11-24 11:43:58.039883","","","","","","",""
14.0,0.04011500999331474,0.0019956379326076354,"train",15620.0,"2021-11-24 11:44:01.357179","","","","","","",""
14.0,0.0369952991604805,0.001995987207389146,"train",15640.0,"2021-11-24 11:44:04.848129","","","","","","",""
14.0,0.05588030442595482,0.0019963219384975706,"train",15660.0,"2021-11-24 11:44:08.198570","","","","","","",""
14.0,0.037225063890218735,0.001996642120840561,"train",15680.0,"2021-11-24 11:44:11.414701","","","","","","",""
14.0,0.0355188325047493,0.001996947749547103,"train",15700.0,"2021-11-24 11:44:14.781762","","","","","","",""
14.0,0.030293382704257965,0.0019972388199675905,"train",15720.0,"2021-11-24 11:44:17.991939","","","","","","",""
14.0,0.029165489599108696,0.001997515327673896,"train",15740.0,"2021-11-24 11:44:21.917575","","","","","","",""
14.0,0.035970091819763184,0.0019977772684594388,"train",15760.0,"2021-11-24 11:44:25.228829","","","","","","",""
14.0,0.05946580320596695,0.0019980246383392475,"train",15780.0,"2021-11-24 11:44:28.466382","","","","","","",""
14.0,0.027498820796608925,0.0019982574335500225,"train",15800.0,"2021-11-24 11:44:31.734887","","","","","","",""
14.0,0.05486747995018959,0.001998475650550192,"train",15820.0,"2021-11-24 11:44:35.000575","","","","","","",""
14.0,0.056165698915719986,0.0019986792860199657,"train",15840.0,"2021-11-24 11:44:38.216054","","","","","","",""
14.0,0.03379044309258461,0.001998868336861386,"train",15860.0,"2021-11-24 11:44:41.415549","","","","","","",""
14.0,0.05848245695233345,0.001999042800198376,"train",15880.0,"2021-11-24 11:44:44.677219","","","","","","",""
14.0,0.042305272072553635,0.00199920267337678,"train",15900.0,"2021-11-24 11:44:48.005489","","","","","","",""
14.0,0.028034353628754616,0.0019993479539644077,"train",15920.0,"2021-11-24 11:44:52.019513","","","","","","",""
14.0,0.04250254109501839,0.0019994786397510697,"train",15940.0,"2021-11-24 11:44:55.386095","","","","","","",""
14.0,0.05849844589829445,0.0019995947287486096,"train",15960.0,"2021-11-24 11:44:58.649660","","","","","","",""
14.0,0.033266518265008926,0.0019996962191909367,"train",15980.0,"2021-11-24 11:45:01.887808","","","","","","",""
14.0,0.04867813363671303,0.0019997831095340513,"train",16000.0,"2021-11-24 11:45:05.162372","","","","","","",""
14.0,0.042039111256599426,0.001999855398456069,"train",16020.0,"2021-11-24 11:45:08.454487","","","","","","",""
14.0,0.044425830245018005,0.00199991308485724,"train",16040.0,"2021-11-24 11:45:11.702050","","","","","","",""
14.0,0.03445087745785713,0.001999956167859967,"train",16060.0,"2021-11-24 11:45:14.937113","","","","","","",""
14.0,0.05682931840419769,0.0019999846468088172,"train",16080.0,"2021-11-24 11:45:18.899635","","","","","","",""
14.0,0.0566558875143528,0.0019999985212705335,"train",16100.0,"2021-11-24 11:45:22.287656","","","","","","",""
14.0,"","","train",16110.0,"2021-11-24 11:47:09.264011",0.7045477697737029,0.8484712905197972,0.9904882016092403,0.7452061079881996,0.6920731200448951,0.7329699810445344,0.5118357916531491
14.0,"","","val",16110.0,"2021-11-24 11:47:37.191747",0.6129537284007885,0.6548539511675604,0.9647778821668959,0.6392691990961836,0.5461441808715736,0.5815435186791714,0.3656430473616608
15.0,0.0444796048104763,0.0019999995774202316,"train",16120.0,"2021-11-24 11:47:41.676583","","","","","","",""
15.0,0.07340655475854874,0.0019999966438102564,"train",16140.0,"2021-11-24 11:47:45.079169","","","","","","",""
15.0,0.05235149338841438,0.0019999909162942875,"train",16160.0,"2021-11-24 11:47:48.394667","","","","","","",""
15.0,0.0516793392598629,0.001999982394888327,"train",16180.0,"2021-11-24 11:47:51.658751","","","","","","",""
15.0,0.03511033207178116,0.0019999710796161823,"train",16200.0,"2021-11-24 11:47:54.930007","","","","","","",""
15.0,0.03781173378229141,0.0019999569705094686,"train",16220.0,"2021-11-24 11:47:58.234928","","","","","","",""
15.0,0.029979519546031952,0.001999940067607605,"train",16240.0,"2021-11-24 11:48:02.241570","","","","","","",""
15.0,0.03341156989336014,0.001999920370957817,"train",16260.0,"2021-11-24 11:48:05.582446","","","","","","",""
15.0,0.04253678768873215,0.0019998978806151355,"train",16280.0,"2021-11-24 11:48:08.907099","","","","","","",""
15.0,0.039387088268995285,0.0019998725966423976,"train",16300.0,"2021-11-24 11:48:12.305197","","","","","","",""
15.0,0.02777756191790104,0.001999844519110244,"train",16320.0,"2021-11-24 11:48:15.653033","","","","","","",""
15.0,0.04195597767829895,0.001999813648097122,"train",16340.0,"2021-11-24 11:48:18.921072","","","","","","",""
15.0,0.03097797930240631,0.001999779983689282,"train",16360.0,"2021-11-24 11:48:22.122557","","","","","","",""
15.0,0.054829344153404236,0.0019997435259807806,"train",16380.0,"2021-11-24 11:48:25.356062","","","","","","",""
15.0,0.06597989797592163,0.001999704275073478,"train",16400.0,"2021-11-24 11:48:29.303545","","","","","","",""
15.0,0.038043733686208725,0.0019996622310770383,"train",16420.0,"2021-11-24 11:48:32.567306","","","","","","",""
15.0,0.05422480031847954,0.0019996173941089286,"train",16440.0,"2021-11-24 11:48:35.845260","","","","","","",""
15.0,0.05407557263970375,0.0019995697642944212,"train",16460.0,"2021-11-24 11:48:39.096391","","","","","","",""
15.0,0.044014349579811096,0.0019995193417665894,"train",16480.0,"2021-11-24 11:48:42.388680","","","","","","",""
15.0,0.03387681394815445,0.0019994661266663108,"train",16500.0,"2021-11-24 11:48:45.643707","","","","","","",""
15.0,0.050697118043899536,0.001999410119142264,"train",16520.0,"2021-11-24 11:48:49.050899","","","","","","",""
15.0,0.0601942203938961,0.0019993513193509297,"train",16540.0,"2021-11-24 11:48:52.421013","","","","","","",""
15.0,0.02580561488866806,0.0019992897274565906,"train",16560.0,"2021-11-24 11:48:56.379432","","","","","","",""
15.0,0.028467601165175438,0.0019992253436313303,"train",16580.0,"2021-11-24 11:48:59.685390","","","","","","",""
15.0,0.05862223356962204,0.0019991581680550313,"train",16600.0,"2021-11-24 11:49:02.980696","","","","","","",""
15.0,0.03146092966198921,0.0019990882009153785,"train",16620.0,"2021-11-24 11:49:06.245165","","","","","","",""
15.0,0.027011532336473465,0.001999015442407854,"train",16640.0,"2021-11-24 11:49:09.498267","","","","","","",""
15.0,0.034750957041978836,0.0019989398927357403,"train",16660.0,"2021-11-24 11:49:12.831345","","","","","","",""
15.0,0.028863878920674324,0.0019988615521101174,"train",16680.0,"2021-11-24 11:49:16.271992","","","","","","",""
15.0,0.03739906847476959,0.0019987804207498637,"train",16700.0,"2021-11-24 11:49:19.590626","","","","","","",""
15.0,0.062345001846551895,0.0019986964988816533,"train",16720.0,"2021-11-24 11:49:23.536806","","","","","","",""
15.0,0.03191900998353958,0.0019986097867399585,"train",16740.0,"2021-11-24 11:49:26.818195","","","","","","",""
15.0,0.07056588679552078,0.0019985202845670463,"train",16760.0,"2021-11-24 11:49:30.108485","","","","","","",""
15.0,0.03871670737862587,0.0019984279926129798,"train",16780.0,"2021-11-24 11:49:33.373359","","","","","","",""
15.0,0.03025968000292778,0.001998332911135615,"train",16800.0,"2021-11-24 11:49:36.663720","","","","","","",""
15.0,0.03619363531470299,0.0019982350404006036,"train",16820.0,"2021-11-24 11:49:40.016489","","","","","","",""
15.0,0.07853656262159348,0.0019981343806813883,"train",16840.0,"2021-11-24 11:49:43.442729","","","","","","",""
15.0,0.031772151589393616,0.001998030932259205,"train",16860.0,"2021-11-24 11:49:46.732894","","","","","","",""
15.0,0.046783000230789185,0.0019979246954230823,"train",16880.0,"2021-11-24 11:49:50.067513","","","","","","",""
15.0,0.03795221447944641,0.0019978156704698363,"train",16900.0,"2021-11-24 11:49:54.140397","","","","","","",""
15.0,0.0559832900762558,0.001997703857704076,"train",16920.0,"2021-11-24 11:49:57.483369","","","","","","",""
15.0,0.03641723096370697,0.0019975892574381976,"train",16940.0,"2021-11-24 11:50:00.828278","","","","","","",""
15.0,0.058910518884658813,0.001997471869992386,"train",16960.0,"2021-11-24 11:50:04.224377","","","","","","",""
15.0,0.027901433408260345,0.0019973516956946127,"train",16980.0,"2021-11-24 11:50:07.590907","","","","","","",""
15.0,0.06928123533725739,0.0019972287348806366,"train",17000.0,"2021-11-24 11:50:11.001442","","","","","","",""
15.0,0.029376210644841194,0.0019971029878940003,"train",17020.0,"2021-11-24 11:50:14.398489","","","","","","",""
15.0,0.054370440542697906,0.0019969744550860317,"train",17040.0,"2021-11-24 11:50:17.817533","","","","","","",""
15.0,0.07024260610342026,0.0019968431368158433,"train",17060.0,"2021-11-24 11:50:21.752239","","","","","","",""
15.0,0.07130065560340881,0.001996709033450327,"train",17080.0,"2021-11-24 11:50:25.077868","","","","","","",""
15.0,0.022990763187408447,0.0019965721453641585,"train",17100.0,"2021-11-24 11:50:28.410356","","","","","","",""
15.0,0.03722677007317543,0.0019964324729397935,"train",17120.0,"2021-11-24 11:50:31.754722","","","","","","",""
15.0,0.03876107186079025,0.0019962900165674657,"train",17140.0,"2021-11-24 11:50:35.010627","","","","","","",""
15.0,0.051975883543491364,0.0019961447766451887,"train",17160.0,"2021-11-24 11:50:38.300275","","","","","","",""
15.0,0.07258417457342148,0.001995996753578751,"train",17180.0,"2021-11-24 11:50:41.594798","","","","","","",""
15.0,"","","train",17184.0,"2021-11-24 11:52:27.280725",0.7203958378811031,0.8740358577303767,0.9918792117740091,0.7586330982674173,0.71385195877447,0.7528115243176499,0.5390717463223711
15.0,"","","val",17184.0,"2021-11-24 11:52:55.263008",0.6126058216398005,0.6529083109596377,0.9645246724666954,0.63430271074823,0.5498271411899724,0.5827774247882994,0.3631267764294058
16.0,0.020548135042190552,0.001995845947781719,"train",17200.0,"2021-11-24 11:53:00.765272","","","","","","",""
16.0,0.05026482790708542,0.001995692359675433,"train",17220.0,"2021-11-24 11:53:04.954278","","","","","","",""
16.0,0.05579657107591629,0.0019955359896890066,"train",17240.0,"2021-11-24 11:53:08.315492","","","","","","",""
16.0,0.05060718208551407,0.0019953768382593258,"train",17260.0,"2021-11-24 11:53:11.652338","","","","","","",""
16.0,0.02823791652917862,0.0019952149058310486,"train",17280.0,"2021-11-24 11:53:14.999023","","","","","","",""
16.0,0.03284970298409462,0.001995050192856602,"train",17300.0,"2021-11-24 11:53:18.347542","","","","","","",""
16.0,0.03290057182312012,0.001994882699796182,"train",17320.0,"2021-11-24 11:53:21.723482","","","","","","",""
16.0,0.02714291773736477,0.001994712427117752,"train",17340.0,"2021-11-24 11:53:25.062523","","","","","","",""
16.0,0.07421575486660004,0.0019945393752970413,"train",17360.0,"2021-11-24 11:53:28.465984","","","","","","",""
16.0,0.05309350788593292,0.001994363544817544,"train",17380.0,"2021-11-24 11:53:32.456811","","","","","","",""
16.0,0.03033377043902874,0.001994184936170517,"train",17400.0,"2021-11-24 11:53:35.788619","","","","","","",""
16.0,0.03638938441872597,0.0019940035498549804,"train",17420.0,"2021-11-24 11:53:39.003725","","","","","","",""
16.0,0.054471489042043686,0.0019938193863777145,"train",17440.0,"2021-11-24 11:53:42.340428","","","","","","",""
16.0,0.022508451715111732,0.001993632446253258,"train",17460.0,"2021-11-24 11:53:45.662822","","","","","","",""
16.0,0.020599866285920143,0.0019934427300039074,"train",17480.0,"2021-11-24 11:53:48.960116","","","","","","",""
16.0,0.043010164052248,0.001993250238159717,"train",17500.0,"2021-11-24 11:53:52.360746","","","","","","",""
16.0,0.028814513236284256,0.0019930549712584944,"train",17520.0,"2021-11-24 11:53:55.699154","","","","","","",""
16.0,0.02028992585837841,0.001992856929845801,"train",17540.0,"2021-11-24 11:53:59.705640","","","","","","",""
16.0,0.039947327226400375,0.0019926561144749497,"train",17560.0,"2021-11-24 11:54:03.013522","","","","","","",""
16.0,0.024280445650219917,0.001992452525707004,"train",17580.0,"2021-11-24 11:54:06.256256","","","","","","",""
16.0,0.0257903803139925,0.0019922461641107767,"train",17600.0,"2021-11-24 11:54:09.502634","","","","","","",""
16.0,0.0246803630143404,0.001992037030262826,"train",17620.0,"2021-11-24 11:54:12.733454","","","","","","",""
16.0,0.03027450293302536,0.0019918251247474567,"train",17640.0,"2021-11-24 11:54:16.060820","","","","","","",""
16.0,0.03130513057112694,0.001991610448156718,"train",17660.0,"2021-11-24 11:54:19.411006","","","","","","",""
16.0,0.043555229902267456,0.0019913930010903996,"train",17680.0,"2021-11-24 11:54:22.750514","","","","","","",""
16.0,0.04257555305957794,0.001991172784156033,"train",17700.0,"2021-11-24 11:54:26.190235","","","","","","",""
16.0,0.05386389046907425,0.0019909497979688877,"train",17720.0,"2021-11-24 11:54:30.147144","","","","","","",""
16.0,0.03635997325181961,0.0019907240431519713,"train",17740.0,"2021-11-24 11:54:33.445405","","","","","","",""
16.0,0.03503822535276413,0.001990495520336026,"train",17760.0,"2021-11-24 11:54:36.728570","","","","","","",""
16.0,0.050660666078329086,0.0019902642301595284,"train",17780.0,"2021-11-24 11:54:40.011219","","","","","","",""
16.0,0.04384494572877884,0.001990030173268685,"train",17800.0,"2021-11-24 11:54:43.280088","","","","","","",""
16.0,0.035714782774448395,0.0019897933503174345,"train",17820.0,"2021-11-24 11:54:46.559266","","","","","","",""
16.0,0.037586841732263565,0.0019895537619674425,"train",17840.0,"2021-11-24 11:54:49.792329","","","","","","",""
16.0,0.06752187013626099,0.001989311408888101,"train",17860.0,"2021-11-24 11:54:53.139409","","","","","","",""
16.0,0.06738149374723434,0.001989066291756527,"train",17880.0,"2021-11-24 11:54:57.222792","","","","","","",""
16.0,0.0372537262737751,0.00198881841125756,"train",17900.0,"2021-11-24 11:55:00.611360","","","","","","",""
16.0,0.04079986736178398,0.0019885677680837595,"train",17920.0,"2021-11-24 11:55:04.038851","","","","","","",""
16.0,0.08582732081413269,0.001988314362935404,"train",17940.0,"2021-11-24 11:55:07.293474","","","","","","",""
16.0,0.019571712240576744,0.0019880581965204896,"train",17960.0,"2021-11-24 11:55:10.552076","","","","","","",""
16.0,0.03905540332198143,0.0019877992695547255,"train",17980.0,"2021-11-24 11:55:13.872373","","","","","","",""
16.0,0.05742232874035835,0.0019875375827615354,"train",18000.0,"2021-11-24 11:55:17.240054","","","","","","",""
16.0,0.04807296395301819,0.0019872731368720527,"train",18020.0,"2021-11-24 11:55:20.582556","","","","","","",""
16.0,0.05111762508749962,0.00198700593262512,"train",18040.0,"2021-11-24 11:55:24.663412","","","","","","",""
16.0,0.024013767018914223,0.001986735970767286,"train",18060.0,"2021-11-24 11:55:28.025045","","","","","","",""
16.0,0.03974534198641777,0.001986463252052804,"train",18080.0,"2021-11-24 11:55:31.386319","","","","","","",""
16.0,0.05700954422354698,0.0019861877772436305,"train",18100.0,"2021-11-24 11:55:34.773411","","","","","","",""
16.0,0.027974285185337067,0.001985909547109422,"train",18120.0,"2021-11-24 11:55:38.128007","","","","","","",""
16.0,0.054516855627298355,0.001985628562427533,"train",18140.0,"2021-11-24 11:55:41.468659","","","","","","",""
16.0,0.06308688968420029,0.001985344823983014,"train",18160.0,"2021-11-24 11:55:44.824871","","","","","","",""
16.0,0.06899893283843994,0.001985058332568609,"train",18180.0,"2021-11-24 11:55:48.050975","","","","","","",""
16.0,0.0475304052233696,0.001984769088984755,"train",18200.0,"2021-11-24 11:55:51.868532","","","","","","",""
16.0,0.04746954143047333,0.001984477094039576,"train",18220.0,"2021-11-24 11:55:55.100953","","","","","","",""
16.0,0.042951952666044235,0.001984182348548885,"train",18240.0,"2021-11-24 11:55:58.386201","","","","","","",""
16.0,"","","train",18258.0,"2021-11-24 11:57:48.514572",0.7320672342283344,0.8846609198022921,0.993258666815222,0.7904280139964549,0.7554790110188141,0.7921420347510664,0.5680171755119626
16.0,"","","val",18258.0,"2021-11-24 11:58:16.286388",0.605009857358228,0.6430455685458413,0.9619623554220266,0.6461496197302738,0.5635320722717835,0.5948828742303097,0.3695527676142565
17.0,0.020782336592674255,0.00198388485333618,"train",18260.0,"2021-11-24 11:58:19.311943","","","","","","",""
17.0,0.03069320134818554,0.0019835846092326396,"train",18280.0,"2021-11-24 11:58:22.983835","","","","","","",""
17.0,0.05087485909461975,0.0019832816170771246,"train",18300.0,"2021-11-24 11:58:26.379218","","","","","","",""
17.0,0.036345627158880234,0.001982975877716172,"train",18320.0,"2021-11-24 11:58:29.735526","","","","","","",""
17.0,0.0600893460214138,0.0019826673920039957,"train",18340.0,"2021-11-24 11:58:33.043522","","","","","","",""
17.0,0.030580168589949608,0.0019823561608024822,"train",18360.0,"2021-11-24 11:58:36.301368","","","","","","",""
17.0,0.07178175449371338,0.0019820421849811886,"train",18380.0,"2021-11-24 11:58:40.361588","","","","","","",""
17.0,0.02345755510032177,0.0019817254654173402,"train",18400.0,"2021-11-24 11:58:43.598520","","","","","","",""
17.0,0.04252201318740845,0.0019814060029958278,"train",18420.0,"2021-11-24 11:58:46.888115","","","","","","",""
17.0,0.039401523768901825,0.001981083798609206,"train",18440.0,"2021-11-24 11:58:50.205241","","","","","","",""
17.0,0.017923537641763687,0.0019807588531576908,"train",18460.0,"2021-11-24 11:58:53.442735","","","","","","",""
17.0,0.051315948367118835,0.0019804311675491555,"train",18480.0,"2021-11-24 11:58:56.736967","","","","","","",""
17.0,0.03380974382162094,0.00198010074269913,"train",18500.0,"2021-11-24 11:59:00.011632","","","","","","",""
17.0,0.030566884204745293,0.0019797675795307965,"train",18520.0,"2021-11-24 11:59:03.386025","","","","","","",""
17.0,0.06682936102151871,0.0019794316789749885,"train",18540.0,"2021-11-24 11:59:07.524487","","","","","","",""
17.0,0.0482674315571785,0.0019790930419701877,"train",18560.0,"2021-11-24 11:59:10.980684","","","","","","",""
17.0,0.025121847167611122,0.0019787516694625214,"train",18580.0,"2021-11-24 11:59:14.241056","","","","","","",""
17.0,0.06967733055353165,0.0019784075624057584,"train",18600.0,"2021-11-24 11:59:17.506824","","","","","","",""
17.0,0.03553915023803711,0.0019780607217613094,"train",18620.0,"2021-11-24 11:59:20.751626","","","","","","",""
17.0,0.03281419351696968,0.001977711148498221,"train",18640.0,"2021-11-24 11:59:24.015048","","","","","","",""
17.0,0.02491104230284691,0.0019773588435931756,"train",18660.0,"2021-11-24 11:59:27.277864","","","","","","",""
17.0,0.05311223492026329,0.0019770038080304873,"train",18680.0,"2021-11-24 11:59:30.527573","","","","","","",""
17.0,0.057481639087200165,0.001976646042802099,"train",18700.0,"2021-11-24 11:59:34.518256","","","","","","",""
17.0,0.05839023366570473,0.0019762855489075808,"train",18720.0,"2021-11-24 11:59:37.826865","","","","","","",""
17.0,0.03551570698618889,0.001975922327354126,"train",18740.0,"2021-11-24 11:59:41.205054","","","","","","",""
17.0,0.048572439700365067,0.001975556379156549,"train",18760.0,"2021-11-24 11:59:44.492224","","","","","","",""
17.0,0.024416767060756683,0.0019751877053372823,"train",18780.0,"2021-11-24 11:59:47.774916","","","","","","",""
17.0,0.02995772659778595,0.001974816306926373,"train",18800.0,"2021-11-24 11:59:51.045795","","","","","","",""
17.0,0.03316858410835266,0.001974442184961482,"train",18820.0,"2021-11-24 11:59:54.333386","","","","","","",""
17.0,0.035283412784338,0.0019740653404878776,"train",18840.0,"2021-11-24 11:59:57.663670","","","","","","",""
17.0,0.02309562638401985,0.0019736857745584362,"train",18860.0,"2021-11-24 12:00:01.677626","","","","","","",""
17.0,0.06676104664802551,0.0019733034882336367,"train",18880.0,"2021-11-24 12:00:04.953819","","","","","","",""
17.0,0.04562569409608841,0.0019729184825815586,"train",18900.0,"2021-11-24 12:00:08.234848","","","","","","",""
17.0,0.04119706153869629,0.0019725307586778806,"train",18920.0,"2021-11-24 12:00:11.495905","","","","","","",""
17.0,0.030364934355020523,0.001972140317605874,"train",18940.0,"2021-11-24 12:00:14.839834","","","","","","",""
17.0,0.03723505884408951,0.0019717471604564028,"train",18960.0,"2021-11-24 12:00:18.221160","","","","","","",""
17.0,0.04012399539351463,0.0019713512883279185,"train",18980.0,"2021-11-24 12:00:21.504627","","","","","","",""
17.0,0.055150654166936874,0.00197095270232646,"train",19000.0,"2021-11-24 12:00:24.768833","","","","","","",""
17.0,0.029022827744483948,0.001970551403565646,"train",19020.0,"2021-11-24 12:00:28.679091","","","","","","",""
17.0,0.03818970546126366,0.0019701473931666765,"train",19040.0,"2021-11-24 12:00:31.901077","","","","","","",""
17.0,0.021515943109989166,0.001969740672258327,"train",19060.0,"2021-11-24 12:00:35.240485","","","","","","",""
17.0,0.034534573554992676,0.0019693312419769454,"train",19080.0,"2021-11-24 12:00:38.625539","","","","","","",""
17.0,0.040806110948324203,0.0019689191034664498,"train",19100.0,"2021-11-24 12:00:41.865433","","","","","","",""
17.0,0.022594675421714783,0.0019685042578783257,"train",19120.0,"2021-11-24 12:00:45.209123","","","","","","",""
17.0,0.04247168451547623,0.00196808670637162,"train",19140.0,"2021-11-24 12:00:48.461122","","","","","","",""
17.0,0.027493808418512344,0.001967666450112942,"train",19160.0,"2021-11-24 12:00:51.780778","","","","","","",""
17.0,0.05009087547659874,0.001967243490276456,"train",19180.0,"2021-11-24 12:00:55.175440","","","","","","",""
17.0,0.05463118106126785,0.0019668178280438818,"train",19200.0,"2021-11-24 12:00:59.173482","","","","","","",""
17.0,0.05918234959244728,0.0019663894646044875,"train",19220.0,"2021-11-24 12:01:02.415162","","","","","","",""
17.0,0.04296443238854408,0.001965958401155089,"train",19240.0,"2021-11-24 12:01:05.677125","","","","","","",""
17.0,0.03530768305063248,0.0019655246389000463,"train",19260.0,"2021-11-24 12:01:08.987857","","","","","","",""
17.0,0.05086750537157059,0.0019650881790512597,"train",19280.0,"2021-11-24 12:01:12.242501","","","","","","",""
17.0,0.03241271898150444,0.001964649022828165,"train",19300.0,"2021-11-24 12:01:15.574848","","","","","","",""
17.0,0.02991681918501854,0.0019642071714577325,"train",19320.0,"2021-11-24 12:01:18.911866","","","","","","",""
17.0,"","","train",19332.0,"2021-11-24 12:03:05.782043",0.7405952121079823,0.8994679367806715,0.9932802079561927,0.7825292419900955,0.7278347654672571,0.7645757351049299,0.558030382686339
17.0,"","","val",19332.0,"2021-11-24 12:03:34.795547",0.613939464223588,0.6510184509039251,0.9623584053305861,0.6368431248056227,0.5415589787438629,0.5695564214730154,0.36502547775695865
18.0,0.02828087843954563,0.0019637626261744634,"train",19340.0,"2021-11-24 12:03:38.940086","","","","","","",""
18.0,0.021569794043898582,0.001963315388220384,"train",19360.0,"2021-11-24 12:03:43.234439","","","","","","",""
18.0,0.025160567834973335,0.0019628654588450443,"train",19380.0,"2021-11-24 12:03:46.554067","","","","","","",""
18.0,0.045587386935949326,0.001962412839305514,"train",19400.0,"2021-11-24 12:03:49.844631","","","","","","",""
18.0,0.05710187181830406,0.0019619575308663785,"train",19420.0,"2021-11-24 12:03:53.119790","","","","","","",""
18.0,0.05319568142294884,0.001961499534799737,"train",19440.0,"2021-11-24 12:03:56.379743","","","","","","",""
18.0,0.01693854108452797,0.001961038852385196,"train",19460.0,"2021-11-24 12:03:59.626171","","","","","","",""
18.0,0.020857160910964012,0.0019605754849098683,"train",19480.0,"2021-11-24 12:04:02.870601","","","","","","",""
18.0,0.03317118436098099,0.0019601094336683693,"train",19500.0,"2021-11-24 12:04:06.118732","","","","","","",""
18.0,0.021207371726632118,0.0019596406999628116,"train",19520.0,"2021-11-24 12:04:09.989781","","","","","","",""
18.0,0.02435244806110859,0.0019591692851028022,"train",19540.0,"2021-11-24 12:04:13.205975","","","","","","",""
18.0,0.021732226014137268,0.001958695190405441,"train",19560.0,"2021-11-24 12:04:16.440489","","","","","","",""
18.0,0.04865001142024994,0.001958218417195312,"train",19580.0,"2021-11-24 12:04:19.658061","","","","","","",""
18.0,0.038878440856933594,0.001957738966804486,"train",19600.0,"2021-11-24 12:04:22.881024","","","","","","",""
18.0,0.028885187581181526,0.001957256840572511,"train",19620.0,"2021-11-24 12:04:26.111569","","","","","","",""
18.0,0.020337341353297234,0.0019567720398464133,"train",19640.0,"2021-11-24 12:04:29.350189","","","","","","",""
18.0,0.042624056339263916,0.00195628456598069,"train",19660.0,"2021-11-24 12:04:32.624081","","","","","","",""
18.0,0.03865697979927063,0.001955794420337307,"train",19680.0,"2021-11-24 12:04:36.597620","","","","","","",""
18.0,0.05747104808688164,0.0019553016042856957,"train",19700.0,"2021-11-24 12:04:39.896811","","","","","","",""
18.0,0.04370029270648956,0.001954806119202748,"train",19720.0,"2021-11-24 12:04:43.247348","","","","","","",""
18.0,0.06199982017278671,0.001954307966472812,"train",19740.0,"2021-11-24 12:04:46.639649","","","","","","",""
18.0,0.052706606686115265,0.0019538071474876914,"train",19760.0,"2021-11-24 12:04:50.005643","","","","","","",""
18.0,0.03189179301261902,0.001953303663646636,"train",19780.0,"2021-11-24 12:04:53.374231","","","","","","",""
18.0,0.023750416934490204,0.0019527975163563436,"train",19800.0,"2021-11-24 12:04:56.704229","","","","","","",""
18.0,0.03048546239733696,0.0019522887070309524,"train",19820.0,"2021-11-24 12:05:00.007899","","","","","","",""
18.0,0.059836335480213165,0.0019517772370920379,"train",19840.0,"2021-11-24 12:05:03.978048","","","","","","",""
18.0,0.0255642868578434,0.0019512631079686104,"train",19860.0,"2021-11-24 12:05:07.289338","","","","","","",""
18.0,0.06463649123907089,0.001950746321097108,"train",19880.0,"2021-11-24 12:05:10.621914","","","","","","",""
18.0,0.023144632577896118,0.0019502268779213957,"train",19900.0,"2021-11-24 12:05:13.947836","","","","","","",""
18.0,0.059799883514642715,0.0019497047798927598,"train",19920.0,"2021-11-24 12:05:17.296500","","","","","","",""
18.0,0.030565354973077774,0.001949180028469903,"train",19940.0,"2021-11-24 12:05:20.653104","","","","","","",""
18.0,0.047526054084300995,0.0019486526251189435,"train",19960.0,"2021-11-24 12:05:23.911391","","","","","","",""
18.0,0.03210891783237457,0.0019481225713134064,"train",19980.0,"2021-11-24 12:05:27.266138","","","","","","",""
18.0,0.029711956158280373,0.0019475898685342235,"train",20000.0,"2021-11-24 12:05:31.296854","","","","","","",""
18.0,0.04412789270281792,0.0019470545182697272,"train",20020.0,"2021-11-24 12:05:34.579483","","","","","","",""
18.0,0.06468994915485382,0.001946516522015647,"train",20040.0,"2021-11-24 12:05:37.940247","","","","","","",""
18.0,0.025266166776418686,0.0019459758812751047,"train",20060.0,"2021-11-24 12:05:41.286390","","","","","","",""
18.0,0.035016972571611404,0.0019454325975586106,"train",20080.0,"2021-11-24 12:05:44.615953","","","","","","",""
18.0,0.028311951085925102,0.0019448866723840602,"train",20100.0,"2021-11-24 12:05:47.862962","","","","","","",""
18.0,0.04577740654349327,0.001944338107276728,"train",20120.0,"2021-11-24 12:05:51.097656","","","","","","",""
18.0,0.036316968500614166,0.0019437869037692644,"train",20140.0,"2021-11-24 12:05:54.334406","","","","","","",""
18.0,0.06266654282808304,0.0019432330634016912,"train",20160.0,"2021-11-24 12:05:57.573571","","","","","","",""
18.0,0.043162841349840164,0.0019426765877213986,"train",20180.0,"2021-11-24 12:06:01.519773","","","","","","",""
18.0,0.035840895026922226,0.0019421174782831383,"train",20200.0,"2021-11-24 12:06:04.773899","","","","","","",""
