"epoch","loss","lr","part","step","time","accuracy","auprc","auroc","challenge_metric","f_beta_measure","f_measure","g_beta_measure"
0.0,0.18996408581733704,8.000730236035311e-05,"train",20.0,"2021-11-24 23:04:17.551736","","","","","","",""
0.0,0.1657261699438095,8.002920933031948e-05,"train",40.0,"2021-11-24 23:04:21.088541","","","","","","",""
0.0,0.14912807941436768,8.006572057662293e-05,"train",60.0,"2021-11-24 23:04:25.212148","","","","","","",""
0.0,0.12546619772911072,8.011683554380914e-05,"train",80.0,"2021-11-24 23:04:28.787243","","","","","","",""
0.0,0.13483792543411255,8.018255345425274e-05,"train",100.0,"2021-11-24 23:04:32.357069","","","","","","",""
0.0,0.1287505328655243,8.026287330817079e-05,"train",120.0,"2021-11-24 23:04:36.299757","","","","","","",""
0.0,0.12681004405021667,8.03577938836373e-05,"train",140.0,"2021-11-24 23:04:39.877142","","","","","","",""
0.0,0.12580132484436035,8.04673137366021e-05,"train",160.0,"2021-11-24 23:04:43.547820","","","","","","",""
0.0,0.10351718217134476,8.059143120091187e-05,"train",180.0,"2021-11-24 23:04:47.558071","","","","","","",""
0.0,0.09964114427566528,8.073014438833613e-05,"train",200.0,"2021-11-24 23:04:51.102324","","","","","","",""
0.0,0.11889705806970596,8.088345118859724e-05,"train",220.0,"2021-11-24 23:04:54.670009","","","","","","",""
0.0,0.107297882437706,8.10513492693996e-05,"train",240.0,"2021-11-24 23:04:58.826151","","","","","","",""
0.0,0.10161440819501877,8.123383607646804e-05,"train",260.0,"2021-11-24 23:05:02.343483","","","","","","",""
0.0,0.1126050353050232,8.143090883358495e-05,"train",280.0,"2021-11-24 23:05:05.820767","","","","","","",""
0.0,0.10970684885978699,8.164256454263295e-05,"train",300.0,"2021-11-24 23:05:09.728021","","","","","","",""
0.0,0.09847328066825867,8.186879998364088e-05,"train",320.0,"2021-11-24 23:05:13.202192","","","","","","",""
0.0,0.0962556004524231,8.210961171483213e-05,"train",340.0,"2021-11-24 23:05:16.672186","","","","","","",""
0.0,0.10304731875658035,8.236499607267717e-05,"train",360.0,"2021-11-24 23:05:20.639655","","","","","","",""
0.0,0.11620363593101501,8.26349491719505e-05,"train",380.0,"2021-11-24 23:05:24.131011","","","","","","",""
0.0,0.10656850785017014,8.291946690578713e-05,"train",400.0,"2021-11-24 23:05:27.607233","","","","","","",""
0.0,0.09055189043283463,8.321854494574774e-05,"train",420.0,"2021-11-24 23:05:31.493809","","","","","","",""
0.0,0.09671488404273987,8.353217874188293e-05,"train",440.0,"2021-11-24 23:05:34.914904","","","","","","",""
0.0,0.09738907963037491,8.38603635228035e-05,"train",460.0,"2021-11-24 23:05:38.372152","","","","","","",""
0.0,0.11464355885982513,8.420309429575212e-05,"train",480.0,"2021-11-24 23:05:42.294892","","","","","","",""
0.0,0.10439164936542511,8.456036584667914e-05,"train",500.0,"2021-11-24 23:05:45.714259","","","","","","",""
0.0,0.11013510078191757,8.493217274032315e-05,"train",520.0,"2021-11-24 23:05:49.151954","","","","","","",""
0.0,0.09693137556314468,8.531850932029235e-05,"train",540.0,"2021-11-24 23:05:52.991875","","","","","","",""
0.0,0.10013414174318314,8.571936970915212e-05,"train",560.0,"2021-11-24 23:05:56.544803","","","","","","",""
0.0,0.11179012805223465,8.613474780851246e-05,"train",580.0,"2021-11-24 23:06:00.079344","","","","","","",""
0.0,0.11992372572422028,8.656463729912224e-05,"train",600.0,"2021-11-24 23:06:04.008359","","","","","","",""
0.0,0.10785519331693649,8.700903164096468e-05,"train",620.0,"2021-11-24 23:06:07.591117","","","","","","",""
0.0,0.0865657851099968,8.746792407335769e-05,"train",640.0,"2021-11-24 23:06:11.068833","","","","","","",""
0.0,0.10296490043401718,8.794130761505497e-05,"train",660.0,"2021-11-24 23:06:14.838032","","","","","","",""
0.0,0.1112290471792221,8.842917506435462e-05,"train",680.0,"2021-11-24 23:06:18.277661","","","","","","",""
0.0,0.09600237756967545,8.893151899920645e-05,"train",700.0,"2021-11-24 23:06:21.695931","","","","","","",""
0.0,0.09743449836969376,8.944833177732632e-05,"train",720.0,"2021-11-24 23:06:25.542572","","","","","","",""
0.0,0.10319212824106216,8.997960553631186e-05,"train",740.0,"2021-11-24 23:06:29.060627","","","","","","",""
0.0,0.08164086192846298,9.052533219376224e-05,"train",760.0,"2021-11-24 23:06:32.610011","","","","","","",""
0.0,0.11110325157642365,9.108550344740104e-05,"train",780.0,"2021-11-24 23:06:36.414628","","","","","","",""
0.0,0.11731453239917755,9.166011077520208e-05,"train",800.0,"2021-11-24 23:06:39.872861","","","","","","",""
0.0,0.08257874101400375,9.224914543552059e-05,"train",820.0,"2021-11-24 23:06:43.330163","","","","","","",""
0.0,0.09432640671730042,9.285259846722417e-05,"train",840.0,"2021-11-24 23:06:47.245597","","","","","","",""
0.0,0.08731599152088165,9.34704606898307e-05,"train",860.0,"2021-11-24 23:06:50.892256","","","","","","",""
0.0,0.10036971420049667,9.410272270364735e-05,"train",880.0,"2021-11-24 23:06:54.471791","","","","","","",""
0.0,0.09413322806358337,9.474937488991348e-05,"train",900.0,"2021-11-24 23:06:58.454173","","","","","","",""
0.0,0.09272797405719757,9.541040741094719e-05,"train",920.0,"2021-11-24 23:07:01.986892","","","","","","",""
0.0,0.08798263221979141,9.608581021029522e-05,"train",940.0,"2021-11-24 23:07:05.482980","","","","","","",""
0.0,0.10062102228403091,9.677557301288509e-05,"train",960.0,"2021-11-24 23:07:09.458608","","","","","","",""
0.0,0.0954911932349205,9.747968532518238e-05,"train",980.0,"2021-11-24 23:07:13.072472","","","","","","",""
0.0,0.08846205472946167,9.819813643535029e-05,"train",1000.0,"2021-11-24 23:07:16.589528","","","","","","",""
0.0,0.09042981266975403,9.893091541341185e-05,"train",1020.0,"2021-11-24 23:07:20.444432","","","","","","",""
0.0,0.07610566914081573,9.967801111141644e-05,"train",1040.0,"2021-11-24 23:07:23.939400","","","","","","",""
0.0,0.10527557879686356,0.00010043941216361023,"train",1060.0,"2021-11-24 23:07:27.494029","","","","","","",""
0.0,"","","train",1074.0,"2021-11-24 23:09:15.067155",0.313250382012661,0.3066896827679039,0.8470589509696052,0.3481047029833311,0.23760664156658345,0.22416120610307524,0.13963363078534752
0.0,"","","val",1074.0,"2021-11-24 23:09:41.855362",0.31120259770381536,0.30239360145394206,0.839344920586722,0.34110690117985215,0.2332145549870053,0.21881178844226404,0.1363715395098715
1.0,0.10162476450204849,0.00010121510698660771,"train",1080.0,"2021-11-24 23:09:45.390260","","","","","","",""
1.0,0.10580991208553314,0.00010200508377956928,"train",1100.0,"2021-11-24 23:09:49.430559","","","","","","",""
1.0,0.10098712891340256,0.00010280933052437993,"train",1120.0,"2021-11-24 23:09:52.967522","","","","","","",""
1.0,0.07903070002794266,0.00010362783498583223,"train",1140.0,"2021-11-24 23:09:56.520379","","","","","","",""
1.0,0.09015510976314545,0.0001044605847118124,"train",1160.0,"2021-11-24 23:10:00.508348","","","","","","",""
1.0,0.09143674373626709,0.0001053075670334907,"train",1180.0,"2021-11-24 23:10:04.114398","","","","","","",""
1.0,0.0961950421333313,0.00010616876906551181,"train",1200.0,"2021-11-24 23:10:07.654894","","","","","","",""
1.0,0.08266503363847733,0.0001070441777061941,"train",1220.0,"2021-11-24 23:10:11.504929","","","","","","",""
1.0,0.09142114967107773,0.00010793377963772563,"train",1240.0,"2021-11-24 23:10:15.002081","","","","","","",""
1.0,0.0894680991768837,0.0001088375613263698,"train",1260.0,"2021-11-24 23:10:18.531614","","","","","","",""
1.0,0.0875048115849495,0.00010975550902266908,"train",1280.0,"2021-11-24 23:10:22.504928","","","","","","",""
1.0,0.09650665521621704,0.00011068760876165474,"train",1300.0,"2021-11-24 23:10:26.062740","","","","","","",""
1.0,0.09623943269252777,0.0001116338463630598,"train",1320.0,"2021-11-24 23:10:29.640508","","","","","","",""
1.0,0.09498309344053268,0.00011259420743153455,"train",1340.0,"2021-11-24 23:10:33.603272","","","","","","",""
1.0,0.08821231126785278,0.00011356867735686535,"train",1360.0,"2021-11-24 23:10:37.166574","","","","","","",""
1.0,0.0902414545416832,0.00011455724131419621,"train",1380.0,"2021-11-24 23:10:40.661633","","","","","","",""
1.0,0.08866484463214874,0.00011555988426425654,"train",1400.0,"2021-11-24 23:10:44.517269","","","","","","",""
1.0,0.10219365358352661,0.00011657659095358746,"train",1420.0,"2021-11-24 23:10:47.995255","","","","","","",""
1.0,0.08401229232549667,0.00011760734591477516,"train",1440.0,"2021-11-24 23:10:51.568838","","","","","","",""
1.0,0.10163471847772598,0.00011865213346668618,"train",1460.0,"2021-11-24 23:10:55.431749","","","","","","",""
1.0,0.08192874491214752,0.00011971093771470502,"train",1480.0,"2021-11-24 23:10:58.997248","","","","","","",""
1.0,0.09576768428087234,0.0001207837425509777,"train",1500.0,"2021-11-24 23:11:02.539762","","","","","","",""
1.0,0.09273079037666321,0.00012187053165465503,"train",1520.0,"2021-11-24 23:11:06.434808","","","","","","",""
1.0,0.08726119995117188,0.000122971288492142,"train",1540.0,"2021-11-24 23:11:09.914559","","","","","","",""
1.0,0.10284555703401566,0.00012408599631734863,"train",1560.0,"2021-11-24 23:11:13.404000","","","","","","",""
1.0,0.07528934627771378,0.00012521463817194542,"train",1580.0,"2021-11-24 23:11:17.361958","","","","","","",""
1.0,0.07294943183660507,0.00012635719688562077,"train",1600.0,"2021-11-24 23:11:20.872210","","","","","","",""
1.0,0.08354630321264267,0.00012751365507634267,"train",1620.0,"2021-11-24 23:11:24.431684","","","","","","",""
1.0,0.09020809084177017,0.0001286839951506226,"train",1640.0,"2021-11-24 23:11:28.300613","","","","","","",""
1.0,0.09944059699773788,0.00012986819930378333,"train",1660.0,"2021-11-24 23:11:31.825372","","","","","","",""
1.0,0.08494079113006592,0.00013106624952023064,"train",1680.0,"2021-11-24 23:11:35.278548","","","","","","",""
1.0,0.07241660356521606,0.00013227812757372545,"train",1700.0,"2021-11-24 23:11:39.077455","","","","","","",""
1.0,0.09336303174495697,0.00013350381502766394,"train",1720.0,"2021-11-24 23:11:42.680933","","","","","","",""
1.0,0.07023748010396957,0.00013474329323535494,"train",1740.0,"2021-11-24 23:11:46.612669","","","","","","",""
1.0,0.09037119150161743,0.0001359965433403059,"train",1760.0,"2021-11-24 23:11:50.286891","","","","","","",""
1.0,0.09029179811477661,0.00013726354627650872,"train",1780.0,"2021-11-24 23:11:53.845207","","","","","","",""
1.0,0.10573230683803558,0.00013854428276873052,"train",1800.0,"2021-11-24 23:11:57.788630","","","","","","",""
1.0,0.07207094877958298,0.00013983873333280506,"train",1820.0,"2021-11-24 23:12:01.307927","","","","","","",""
1.0,0.0888906940817833,0.00014114687827593156,"train",1840.0,"2021-11-24 23:12:04.752718","","","","","","",""
1.0,0.08016829937696457,0.00014246869769697352,"train",1860.0,"2021-11-24 23:12:08.639273","","","","","","",""
1.0,0.0830787792801857,0.00014380417148676054,"train",1880.0,"2021-11-24 23:12:12.223962","","","","","","",""
1.0,0.08813698589801788,0.00014515327932839404,"train",1900.0,"2021-11-24 23:12:15.832742","","","","","","",""
1.0,0.06692445278167725,0.0001465160006975598,"train",1920.0,"2021-11-24 23:12:19.670145","","","","","","",""
1.0,0.07254725694656372,0.00014789231486283454,"train",1940.0,"2021-11-24 23:12:23.251769","","","","","","",""
1.0,0.07503720372915268,0.00014928220088600633,"train",1960.0,"2021-11-24 23:12:26.860282","","","","","","",""
1.0,0.09895675629377365,0.00015068563762239045,"train",1980.0,"2021-11-24 23:12:30.771140","","","","","","",""
1.0,0.08822357654571533,0.00015210260372115238,"train",2000.0,"2021-11-24 23:12:34.350331","","","","","","",""
1.0,0.07131456583738327,0.00015353307762563115,"train",2020.0,"2021-11-24 23:12:37.948857","","","","","","",""
1.0,0.0782150849699974,0.00015497703757366872,"train",2040.0,"2021-11-24 23:12:41.889243","","","","","","",""
1.0,0.08638559281826019,0.00015643446159794,"train",2060.0,"2021-11-24 23:12:45.348064","","","","","","",""
1.0,0.09032012522220612,0.0001579053275262887,"train",2080.0,"2021-11-24 23:12:48.789552","","","","","","",""
1.0,0.08623585850000381,0.00015938961298206183,"train",2100.0,"2021-11-24 23:12:52.660449","","","","","","",""
1.0,0.10637320578098297,0.00016088729538445297,"train",2120.0,"2021-11-24 23:12:56.225931","","","","","","",""
1.0,0.07371952384710312,0.000162398351948844,"train",2140.0,"2021-11-24 23:12:59.726255","","","","","","",""
1.0,"","","train",2148.0,"2021-11-24 23:14:43.031467",0.34541220985228843,0.38569217427267233,0.8943261664506307,0.3696417274486315,0.29204355571817325,0.2940142233146053,0.16694704938211638
1.0,"","","val",2148.0,"2021-11-24 23:15:10.004272",0.34338397309521046,0.3714684019559386,0.8871450299576756,0.3590870584636116,0.28243266783403037,0.28197948401717027,0.15936706496815992
2.0,0.09051882475614548,0.00016392275968715297,"train",2160.0,"2021-11-24 23:15:15.057654","","","","","","",""
2.0,0.0696273222565651,0.00016546049540818223,"train",2180.0,"2021-11-24 23:15:18.658193","","","","","","",""
2.0,0.08650624752044678,0.00016701153571797313,"train",2200.0,"2021-11-24 23:15:22.212528","","","","","","",""
2.0,0.09662888944149017,0.00016857585702016015,"train",2220.0,"2021-11-24 23:15:26.083637","","","","","","",""
2.0,0.08597592264413834,0.00017015343551633126,"train",2240.0,"2021-11-24 23:15:29.579998","","","","","","",""
2.0,0.11296233534812927,0.0001717442472063892,"train",2260.0,"2021-11-24 23:15:33.078949","","","","","","",""
2.0,0.06873772293329239,0.00017334826788891681,"train",2280.0,"2021-11-24 23:15:37.015440","","","","","","",""
2.0,0.08635145425796509,0.00017496547316154555,"train",2300.0,"2021-11-24 23:15:40.535277","","","","","","",""
2.0,0.0732855275273323,0.00017659583842132573,"train",2320.0,"2021-11-24 23:15:44.053406","","","","","","",""
2.0,0.08413353562355042,0.00017823933886510217,"train",2340.0,"2021-11-24 23:15:47.916576","","","","","","",""
2.0,0.06921355426311493,0.00017989594948989015,"train",2360.0,"2021-11-24 23:15:51.450250","","","","","","",""
2.0,0.08503379672765732,0.00018156564509325753,"train",2380.0,"2021-11-24 23:15:54.974603","","","","","","",""
2.0,0.07561483979225159,0.0001832484002737059,"train",2400.0,"2021-11-24 23:15:58.871442","","","","","","",""
2.0,0.06627676635980606,0.00018494418943105877,"train",2420.0,"2021-11-24 23:16:02.411572","","","","","","",""
2.0,0.08282500505447388,0.00018665298676685078,"train",2440.0,"2021-11-24 23:16:05.927749","","","","","","",""
2.0,0.08110915869474411,0.0001883747662847191,"train",2460.0,"2021-11-24 23:16:09.776533","","","","","","",""
2.0,0.07517177611589432,0.00019010950179080112,"train",2480.0,"2021-11-24 23:16:13.327445","","","","","","",""
2.0,0.06695275008678436,0.00019185716689412995,"train",2500.0,"2021-11-24 23:16:16.847473","","","","","","",""
2.0,0.0888441950082779,0.00019361773500703797,"train",2520.0,"2021-11-24 23:16:20.695040","","","","","","",""
2.0,0.10243096947669983,0.00019539117934556168,"train",2540.0,"2021-11-24 23:16:24.208253","","","","","","",""
2.0,0.06746911257505417,0.00019717747292984696,"train",2560.0,"2021-11-24 23:16:27.699181","","","","","","",""
2.0,0.10072210431098938,0.0001989765885845624,"train",2580.0,"2021-11-24 23:16:31.602310","","","","","","",""
2.0,0.06476487964391708,0.00020078849893931014,"train",2600.0,"2021-11-24 23:16:35.050968","","","","","","",""
2.0,0.07934707403182983,0.0002026131764290434,"train",2620.0,"2021-11-24 23:16:38.543047","","","","","","",""
2.0,0.06576891988515854,0.00020445059329448614,"train",2640.0,"2021-11-24 23:16:42.366989","","","","","","",""
2.0,0.06811840087175369,0.00020630072158255497,"train",2660.0,"2021-11-24 23:16:45.892912","","","","","","",""
2.0,0.07764538377523422,0.00020816353314678467,"train",2680.0,"2021-11-24 23:16:49.483718","","","","","","",""
2.0,0.08578735589981079,0.00021003899964775505,"train",2700.0,"2021-11-24 23:16:53.393510","","","","","","",""
2.0,0.10841070860624313,0.00021192709255352473,"train",2720.0,"2021-11-24 23:16:56.938103","","","","","","",""
2.0,0.07129734754562378,0.00021382778314006255,"train",2740.0,"2021-11-24 23:17:00.414994","","","","","","",""
2.0,0.09401509910821915,0.00021574104249168615,"train",2760.0,"2021-11-24 23:17:04.290696","","","","","","",""
2.0,0.08410121500492096,0.00021766684150150133,"train",2780.0,"2021-11-24 23:17:07.773160","","","","","","",""
2.0,0.0770205408334732,0.00021960515087184485,"train",2800.0,"2021-11-24 23:17:11.227935","","","","","","",""
2.0,0.07052882760763168,0.00022155594111472978,"train",2820.0,"2021-11-24 23:17:15.203181","","","","","","",""
2.0,0.09660053253173828,0.0002235191825522959,"train",2840.0,"2021-11-24 23:17:18.702951","","","","","","",""
2.0,0.09357911348342896,0.00022549484531725838,"train",2860.0,"2021-11-24 23:17:22.283738","","","","","","",""
2.0,0.08748175203800201,0.00022748289935336434,"train",2880.0,"2021-11-24 23:17:26.147971","","","","","","",""
2.0,0.08601704239845276,0.00022948331441584964,"train",2900.0,"2021-11-24 23:17:29.718570","","","","","","",""
2.0,0.08611839264631271,0.00023149606007189785,"train",2920.0,"2021-11-24 23:17:33.429900","","","","","","",""
2.0,0.07948362082242966,0.00023352110570110476,"train",2940.0,"2021-11-24 23:17:37.229132","","","","","","",""
2.0,0.07221078872680664,0.00023555842049594305,"train",2960.0,"2021-11-24 23:17:40.715269","","","","","","",""
2.0,0.08742006123065948,0.00023760797346223305,"train",2980.0,"2021-11-24 23:17:44.205806","","","","","","",""
2.0,0.06703817844390869,0.00023966973341961028,"train",3000.0,"2021-11-24 23:17:48.110383","","","","","","",""
2.0,0.09858161956071854,0.0002417436690020044,"train",3020.0,"2021-11-24 23:17:51.606405","","","","","","",""
2.0,0.0676896721124649,0.00024382974865811325,"train",3040.0,"2021-11-24 23:17:55.123378","","","","","","",""
2.0,0.06931685656309128,0.000245927940651884,"train",3060.0,"2021-11-24 23:17:59.016493","","","","","","",""
2.0,0.08409406989812851,0.0002480382130629953,"train",3080.0,"2021-11-24 23:18:02.515567","","","","","","",""
2.0,0.09666892886161804,0.0002501605337873443,"train",3100.0,"2021-11-24 23:18:05.979106","","","","","","",""
2.0,0.07060270756483078,0.0002522948705375337,"train",3120.0,"2021-11-24 23:18:09.807562","","","","","","",""
2.0,0.07184755802154541,0.00025444119084336303,"train",3140.0,"2021-11-24 23:18:13.302923","","","","","","",""
2.0,0.10969441384077072,0.00025659946205232364,"train",3160.0,"2021-11-24 23:18:16.767578","","","","","","",""
2.0,0.09829907864332199,0.0002587696513300941,"train",3180.0,"2021-11-24 23:18:20.610436","","","","","","",""
2.0,0.09540040045976639,0.0002609517256610412,"train",3200.0,"2021-11-24 23:18:24.074808","","","","","","",""
2.0,0.07755004614591599,0.00026314565184872084,"train",3220.0,"2021-11-24 23:18:27.520456","","","","","","",""
2.0,"","","train",3222.0,"2021-11-24 23:20:10.638580",0.44243614931237724,0.4517481195887175,0.921173980257678,0.5019962574533731,0.37961290175408585,0.37540766952657995,0.23397200694228618
2.0,"","","val",3222.0,"2021-11-24 23:20:37.075626",0.438826394526267,0.4252076580446573,0.9105087225552325,0.4904592388359882,0.364184074664198,0.3580948303970416,0.22373170485411784
3.0,0.09671194851398468,0.0002653513965163838,"train",3240.0,"2021-11-24 23:20:42.761168","","","","","","",""
3.0,0.07042019814252853,0.0002675689261074836,"train",3260.0,"2021-11-24 23:20:46.842822","","","","","","",""
3.0,0.055565591901540756,0.00026979820688618605,"train",3280.0,"2021-11-24 23:20:50.348490","","","","","","",""
3.0,0.07059455662965775,0.00027203920493788433,"train",3300.0,"2021-11-24 23:20:53.790195","","","","","","",""
3.0,0.08287584036588669,0.00027429188616971277,"train",3320.0,"2021-11-24 23:20:57.700174","","","","","","",""
3.0,0.08925289660692215,0.0002765562163110668,"train",3340.0,"2021-11-24 23:21:01.294049","","","","","","",""
3.0,0.06319863349199295,0.00027883216091412503,"train",3360.0,"2021-11-24 23:21:04.807739","","","","","","",""
3.0,0.058659158647060394,0.0002811196853543707,"train",3380.0,"2021-11-24 23:21:08.729946","","","","","","",""
3.0,0.058120593428611755,0.00028341875483112134,"train",3400.0,"2021-11-24 23:21:12.252948","","","","","","",""
3.0,0.06569826602935791,0.00028572933436805644,"train",3420.0,"2021-11-24 23:21:15.713306","","","","","","",""
3.0,0.06508613377809525,0.0002880513888137504,"train",3440.0,"2021-11-24 23:21:19.675334","","","","","","",""
3.0,0.07352937757968903,0.0002903848828422063,"train",3460.0,"2021-11-24 23:21:23.245635","","","","","","",""
3.0,0.08319132775068283,0.00029272978095339465,"train",3480.0,"2021-11-24 23:21:26.808989","","","","","","",""
3.0,0.08060251176357269,0.00029508604747379243,"train",3500.0,"2021-11-24 23:21:30.695709","","","","","","",""
3.0,0.06576545536518097,0.00029745364655692653,"train",3520.0,"2021-11-24 23:21:34.204221","","","","","","",""
3.0,0.06613852083683014,0.0002998325421839181,"train",3540.0,"2021-11-24 23:21:37.802117","","","","","","",""
3.0,0.06228123605251312,0.0003022226981640318,"train",3560.0,"2021-11-24 23:21:41.790044","","","","","","",""
3.0,0.05869961902499199,0.00030462407813522494,"train",3580.0,"2021-11-24 23:21:45.332623","","","","","","",""
3.0,0.0722668319940567,0.0003070366455647027,"train",3600.0,"2021-11-24 23:21:48.915932","","","","","","",""
3.0,0.08695483207702637,0.000309460363749471,"train",3620.0,"2021-11-24 23:21:52.927334","","","","","","",""
3.0,0.09848274290561676,0.0003118951958168978,"train",3640.0,"2021-11-24 23:21:56.520585","","","","","","",""
3.0,0.05876960977911949,0.0003143411047252722,"train",3660.0,"2021-11-24 23:21:59.986097","","","","","","",""
3.0,0.05343102291226387,0.0003167980532643691,"train",3680.0,"2021-11-24 23:22:03.857943","","","","","","",""
3.0,0.0735362321138382,0.0003192660040560141,"train",3700.0,"2021-11-24 23:22:07.445698","","","","","","",""
3.0,0.07714422792196274,0.0003217449195546528,"train",3720.0,"2021-11-24 23:22:11.063499","","","","","","",""
3.0,0.07141877710819244,0.00032423476204792244,"train",3740.0,"2021-11-24 23:22:14.928746","","","","","","",""
3.0,0.08620515465736389,0.0003267354936572248,"train",3760.0,"2021-11-24 23:22:18.445481","","","","","","",""
3.0,0.058571670204401016,0.0003292470763383026,"train",3780.0,"2021-11-24 23:22:21.970766","","","","","","",""
3.0,0.09449706226587296,0.0003317694718818192,"train",3800.0,"2021-11-24 23:22:25.915270","","","","","","",""
3.0,0.0690571665763855,0.00033430264191393853,"train",3820.0,"2021-11-24 23:22:29.420254","","","","","","",""
3.0,0.07631181925535202,0.0003368465478969097,"train",3840.0,"2021-11-24 23:22:33.001311","","","","","","",""
3.0,0.060673948377370834,0.0003394011511296533,"train",3860.0,"2021-11-24 23:22:36.974462","","","","","","",""
3.0,0.07174201309680939,0.0003419664127483496,"train",3880.0,"2021-11-24 23:22:40.552298","","","","","","",""
3.0,0.07049304246902466,0.00034454229372703074,"train",3900.0,"2021-11-24 23:22:44.120141","","","","","","",""
3.0,0.07098697125911713,0.00034712875487817314,"train",3920.0,"2021-11-24 23:22:48.143244","","","","","","",""
3.0,0.06654912233352661,0.00034972575685329526,"train",3940.0,"2021-11-24 23:22:51.712072","","","","","","",""
3.0,0.08928925544023514,0.0003523332601435541,"train",3960.0,"2021-11-24 23:22:55.256210","","","","","","",""
3.0,0.09572459757328033,0.00035495122508034916,"train",3980.0,"2021-11-24 23:22:59.300926","","","","","","",""
3.0,0.08543378114700317,0.0003575796118359231,"train",4000.0,"2021-11-24 23:23:02.791562","","","","","","",""
3.0,0.10967248678207397,0.00036021838042396906,"train",4020.0,"2021-11-24 23:23:06.276651","","","","","","",""
3.0,0.06850661337375641,0.0003628674907002389,"train",4040.0,"2021-11-24 23:23:10.089911","","","","","","",""
3.0,0.09288201481103897,0.00036552690236315395,"train",4060.0,"2021-11-24 23:23:13.385903","","","","","","",""
3.0,0.07566307485103607,0.00036819657495441773,"train",4080.0,"2021-11-24 23:23:16.827867","","","","","","",""
3.0,0.07845616340637207,0.0003708764678596317,"train",4100.0,"2021-11-24 23:23:20.710069","","","","","","",""
3.0,0.08665896952152252,0.00037356654030891293,"train",4120.0,"2021-11-24 23:23:24.169590","","","","","","",""
3.0,0.05817379802465439,0.0003762667513775148,"train",4140.0,"2021-11-24 23:23:27.642902","","","","","","",""
3.0,0.06366220861673355,0.0003789770599864498,"train",4160.0,"2021-11-24 23:23:31.507821","","","","","","",""
3.0,0.07388012111186981,0.000381697424903113,"train",4180.0,"2021-11-24 23:23:35.183417","","","","","","",""
3.0,0.07475070655345917,0.0003844278047419108,"train",4200.0,"2021-11-24 23:23:38.691546","","","","","","",""
3.0,0.08496345579624176,0.0003871681579648903,"train",4220.0,"2021-11-24 23:23:42.557196","","","","","","",""
3.0,0.06550721824169159,0.0003899184428823709,"train",4240.0,"2021-11-24 23:23:46.037657","","","","","","",""
3.0,0.10859626531600952,0.0003926786176535783,"train",4260.0,"2021-11-24 23:23:49.513633","","","","","","",""
3.0,0.07356271147727966,0.0003954486402872818,"train",4280.0,"2021-11-24 23:23:53.318692","","","","","","",""
3.0,"","","train",4296.0,"2021-11-24 23:25:38.074170",0.51314851196973,0.4930976346048318,0.9344736332453979,0.5360777142393165,0.40965703121723085,0.4180532941086185,0.2644784076243811
3.0,"","","val",4296.0,"2021-11-24 23:26:04.518580",0.5020294561057637,0.4668998134905219,0.9242421656209345,0.5183039093706784,0.3919782325155863,0.39717024744327983,0.2502915248185316
4.0,0.07190994173288345,0.0003982284686424324,"train",4300.0,"2021-11-24 23:26:07.572220","","","","","","",""
4.0,0.0879102274775505,0.0004010180604288045,"train",4320.0,"2021-11-24 23:26:11.016135","","","","","","",""
4.0,0.0912192091345787,0.00040381737320763873,"train",4340.0,"2021-11-24 23:26:15.067467","","","","","","",""
4.0,0.056594498455524445,0.0004066263643922878,"train",4360.0,"2021-11-24 23:26:18.579098","","","","","","",""
4.0,0.10143207013607025,0.0004094449912488646,"train",4380.0,"2021-11-24 23:26:22.124498","","","","","","",""
4.0,0.08489631116390228,0.0004122732108968923,"train",4400.0,"2021-11-24 23:26:26.116535","","","","","","",""
4.0,0.0706816092133522,0.0004151109803099558,"train",4420.0,"2021-11-24 23:26:29.580061","","","","","","",""
4.0,0.06143808737397194,0.00041795825631635764,"train",4440.0,"2021-11-24 23:26:33.194848","","","","","","",""
4.0,0.0697464570403099,0.0004208149955997739,"train",4460.0,"2021-11-24 23:26:37.258668","","","","","","",""
4.0,0.07895393669605255,0.0004236811546999141,"train",4480.0,"2021-11-24 23:26:40.934457","","","","","","",""
4.0,0.07357198745012283,0.0004265566900131805,"train",4500.0,"2021-11-24 23:26:44.499452","","","","","","",""
4.0,0.06058192625641823,0.0004294415577933337,"train",4520.0,"2021-11-24 23:26:48.499266","","","","","","",""
4.0,0.08643293380737305,0.00043233571415215717,"train",4540.0,"2021-11-24 23:26:52.059756","","","","","","",""
4.0,0.06807325780391693,0.0004352391150601242,"train",4560.0,"2021-11-24 23:26:55.583679","","","","","","",""
4.0,0.07140541076660156,0.0004381517163470684,"train",4580.0,"2021-11-24 23:26:59.490228","","","","","","",""
4.0,0.0810907632112503,0.00044107347370285683,"train",4600.0,"2021-11-24 23:27:03.159506","","","","","","",""
4.0,0.06459087133407593,0.00044400434267806194,"train",4620.0,"2021-11-24 23:27:06.696366","","","","","","",""
4.0,0.08014106005430222,0.00044694427868463907,"train",4640.0,"2021-11-24 23:27:10.562234","","","","","","",""
4.0,0.07743100076913834,0.00044989323699660467,"train",4660.0,"2021-11-24 23:27:14.006141","","","","","","",""
4.0,0.07169404625892639,0.0004528511727507165,"train",4680.0,"2021-11-24 23:27:17.454549","","","","","","",""
4.0,0.06819286942481995,0.00045581804094715645,"train",4700.0,"2021-11-24 23:27:21.386058","","","","","","",""
4.0,0.0567597933113575,0.00045879379645021425,"train",4720.0,"2021-11-24 23:27:24.898921","","","","","","",""
4.0,0.06384085863828659,0.0004617783939889759,"train",4740.0,"2021-11-24 23:27:28.438084","","","","","","",""
4.0,0.06937349587678909,0.0004647717881580103,"train",4760.0,"2021-11-24 23:27:32.315180","","","","","","",""
4.0,0.06612744182348251,0.0004677739334180617,"train",4780.0,"2021-11-24 23:27:35.903831","","","","","","",""
4.0,0.08162081241607666,0.00047078478409674144,"train",4800.0,"2021-11-24 23:27:39.411216","","","","","","",""
4.0,0.06026965752243996,0.00047380429438922305,"train",4820.0,"2021-11-24 23:27:43.293611","","","","","","",""
4.0,0.09148341417312622,0.00047683241835893946,"train",4840.0,"2021-11-24 23:27:46.848823","","","","","","",""
4.0,0.06619706004858017,0.0004798691099382815,"train",4860.0,"2021-11-24 23:27:50.448852","","","","","","",""
4.0,0.07977911084890366,0.0004829143229292986,"train",4880.0,"2021-11-24 23:27:54.394783","","","","","","",""
4.0,0.0478050671517849,0.0004859680110044023,"train",4900.0,"2021-11-24 23:27:57.868069","","","","","","",""
4.0,0.08369361609220505,0.0004890301277070699,"train",4920.0,"2021-11-24 23:28:01.386413","","","","","","",""
4.0,0.08362191170454025,0.0004921006264525525,"train",4940.0,"2021-11-24 23:28:05.319658","","","","","","",""
4.0,0.06562213599681854,0.0004951794605285824,"train",4960.0,"2021-11-24 23:28:08.803190","","","","","","",""
4.0,0.04731593281030655,0.0004982665830960853,"train",4980.0,"2021-11-24 23:28:12.224375","","","","","","",""
4.0,0.08123651146888733,0.0005013619471898913,"train",5000.0,"2021-11-24 23:28:16.037266","","","","","","",""
4.0,0.05323933809995651,0.0005044655057194504,"train",5020.0,"2021-11-24 23:28:19.545193","","","","","","",""
4.0,0.06832970678806305,0.0005075772114695486,"train",5040.0,"2021-11-24 23:28:23.130792","","","","","","",""
4.0,0.07570648193359375,0.0005106970171010257,"train",5060.0,"2021-11-24 23:28:27.131395","","","","","","",""
4.0,0.06953679025173187,0.0005138248751514966,"train",5080.0,"2021-11-24 23:28:30.616783","","","","","","",""
4.0,0.08522199094295502,0.0005169607380360731,"train",5100.0,"2021-11-24 23:28:34.127708","","","","","","",""
4.0,0.0680578351020813,0.000520104558048086,"train",5120.0,"2021-11-24 23:28:37.962936","","","","","","",""
4.0,0.05832308158278465,0.0005232562873598136,"train",5140.0,"2021-11-24 23:28:41.447707","","","","","","",""
4.0,0.05269079655408859,0.0005264158780232072,"train",5160.0,"2021-11-24 23:28:44.969217","","","","","","",""
4.0,0.06502179801464081,0.0005295832819706228,"train",5180.0,"2021-11-24 23:28:48.840570","","","","","","",""
4.0,0.08621018379926682,0.0005327584510155488,"train",5200.0,"2021-11-24 23:28:52.337528","","","","","","",""
4.0,0.06654642522335052,0.000535941336853343,"train",5220.0,"2021-11-24 23:28:55.865747","","","","","","",""
4.0,0.06292500346899033,0.0005391318910619655,"train",5240.0,"2021-11-24 23:28:59.808853","","","","","","",""
4.0,0.06731760501861572,0.0005423300651027144,"train",5260.0,"2021-11-24 23:29:03.274171","","","","","","",""
4.0,0.07379410415887833,0.0005455358103209663,"train",5280.0,"2021-11-24 23:29:06.870865","","","","","","",""
4.0,0.0724884569644928,0.0005487490779469157,"train",5300.0,"2021-11-24 23:29:10.791535","","","","","","",""
4.0,0.07461795210838318,0.000551969819096316,"train",5320.0,"2021-11-24 23:29:14.293587","","","","","","",""
4.0,0.05241180583834648,0.0005551979847712252,"train",5340.0,"2021-11-24 23:29:17.766703","","","","","","",""
4.0,0.06802010536193848,0.0005584335258607489,"train",5360.0,"2021-11-24 23:29:21.630800","","","","","","",""
4.0,"","","train",5370.0,"2021-11-24 23:31:04.625236",0.5076766353780107,0.5328897186694521,0.9453976683687486,0.5497440179860871,0.43094113788449767,0.4404642697378559,0.2753953594595503
4.0,"","","val",5370.0,"2021-11-24 23:31:31.262293",0.4964049634697901,0.49898742548142483,0.9357788869484073,0.5350669266856445,0.41336085792573635,0.4183680528116174,0.26029229118034
5.0,0.06459158658981323,0.0005616763931417894,"train",5380.0,"2021-11-24 23:31:35.303767","","","","","","",""
5.0,0.09119398146867752,0.0005649265372797939,"train",5400.0,"2021-11-24 23:31:38.759603","","","","","","",""
5.0,0.07448194175958633,0.0005681839088295046,"train",5420.0,"2021-11-24 23:31:42.717097","","","","","","",""
5.0,0.06892969459295273,0.0005714484582357109,"train",5440.0,"2021-11-24 23:31:46.162646","","","","","","",""
5.0,0.05654465779662132,0.0005747201358340048,"train",5460.0,"2021-11-24 23:31:49.545167","","","","","","",""
5.0,0.07366776466369629,0.0005779988918515344,"train",5480.0,"2021-11-24 23:31:53.311894","","","","","","",""
5.0,0.0544382706284523,0.0005812846764077623,"train",5500.0,"2021-11-24 23:31:56.799430","","","","","","",""
5.0,0.06093863025307655,0.0005845774395152243,"train",5520.0,"2021-11-24 23:32:00.381476","","","","","","",""
5.0,0.06965634971857071,0.0005878771310802895,"train",5540.0,"2021-11-24 23:32:04.201870","","","","","","",""
5.0,0.05729101598262787,0.0005911837009039229,"train",5560.0,"2021-11-24 23:32:07.706688","","","","","","",""
5.0,0.06212732568383217,0.0005944970986824485,"train",5580.0,"2021-11-24 23:32:11.191342","","","","","","",""
5.0,0.06452379375696182,0.000597817274008315,"train",5600.0,"2021-11-24 23:32:15.106986","","","","","","",""
5.0,0.06587108224630356,0.0006011441763708635,"train",5620.0,"2021-11-24 23:32:18.624117","","","","","","",""
5.0,0.08839430660009384,0.0006044777551570929,"train",5640.0,"2021-11-24 23:32:22.306647","","","","","","",""
5.0,0.07852081209421158,0.000607817959652434,"train",5660.0,"2021-11-24 23:32:26.158141","","","","","","",""
5.0,0.07724629342556,0.0006111647390415189,"train",5680.0,"2021-11-24 23:32:29.641631","","","","","","",""
5.0,0.05792088434100151,0.0006145180424089525,"train",5700.0,"2021-11-24 23:32:33.183392","","","","","","",""
5.0,0.05867575854063034,0.0006178778187400902,"train",5720.0,"2021-11-24 23:32:37.109479","","","","","","",""
5.0,0.056189410388469696,0.0006212440169218129,"train",5740.0,"2021-11-24 23:32:40.719127","","","","","","",""
5.0,0.08598628640174866,0.0006246165857433027,"train",5760.0,"2021-11-24 23:32:44.252370","","","","","","",""
5.0,0.08916348963975906,0.0006279954738968251,"train",5780.0,"2021-11-24 23:32:48.189401","","","","","","",""
5.0,0.0630643218755722,0.0006313806299785075,"train",5800.0,"2021-11-24 23:32:51.720657","","","","","","",""
5.0,0.049503181129693985,0.0006347720024891209,"train",5820.0,"2021-11-24 23:32:55.237132","","","","","","",""
5.0,0.06559570133686066,0.0006381695398348657,"train",5840.0,"2021-11-24 23:32:59.140712","","","","","","",""
5.0,0.07825877517461777,0.0006415731903281542,"train",5860.0,"2021-11-24 23:33:02.738470","","","","","","",""
5.0,0.07656090706586838,0.0006449829021883979,"train",5880.0,"2021-11-24 23:33:06.278846","","","","","","",""
5.0,0.04632851853966713,0.0006483986235427956,"train",5900.0,"2021-11-24 23:33:10.144880","","","","","","",""
5.0,0.073239266872406,0.0006518203024271213,"train",5920.0,"2021-11-24 23:33:13.632370","","","","","","",""
5.0,0.09423929452896118,0.0006552478867865169,"train",5940.0,"2021-11-24 23:33:17.199701","","","","","","",""
5.0,0.0691249668598175,0.0006586813244762815,"train",5960.0,"2021-11-24 23:33:21.152995","","","","","","",""
5.0,0.07801338285207748,0.0006621205632626672,"train",5980.0,"2021-11-24 23:33:24.632892","","","","","","",""
5.0,0.0584961473941803,0.0006655655508236717,"train",6000.0,"2021-11-24 23:33:28.178133","","","","","","",""
5.0,0.0770549327135086,0.0006690162347498356,"train",6020.0,"2021-11-24 23:33:32.117670","","","","","","",""
5.0,0.08428676426410675,0.0006724725625450389,"train",6040.0,"2021-11-24 23:33:35.709227","","","","","","",""
5.0,0.0758923664689064,0.0006759344816273003,"train",6060.0,"2021-11-24 23:33:39.207528","","","","","","",""
5.0,0.05898553505539894,0.0006794019393295771,"train",6080.0,"2021-11-24 23:33:43.062168","","","","","","",""
5.0,0.056991882622241974,0.0006828748829005654,"train",6100.0,"2021-11-24 23:33:46.546616","","","","","","",""
5.0,0.08293885737657547,0.0006863532595055041,"train",6120.0,"2021-11-24 23:33:50.023754","","","","","","",""
5.0,0.0721910297870636,0.0006898370162269777,"train",6140.0,"2021-11-24 23:33:53.939099","","","","","","",""
5.0,0.05655033886432648,0.0006933261000657217,"train",6160.0,"2021-11-24 23:33:57.387965","","","","","","",""
5.0,0.08003193885087967,0.000696820457941429,"train",6180.0,"2021-11-24 23:34:00.837879","","","","","","",""
5.0,0.0745375007390976,0.000700320036693557,"train",6200.0,"2021-11-24 23:34:04.713291","","","","","","",""
5.0,0.0848337784409523,0.0007038247830821358,"train",6220.0,"2021-11-24 23:34:08.218643","","","","","","",""
5.0,0.06675722450017929,0.0007073346437885815,"train",6240.0,"2021-11-24 23:34:11.736582","","","","","","",""
5.0,0.06719480454921722,0.000710849565416502,"train",6260.0,"2021-11-24 23:34:15.663924","","","","","","",""
5.0,0.06348763406276703,0.0007143694944925134,"train",6280.0,"2021-11-24 23:34:19.212662","","","","","","",""
5.0,0.06752334535121918,0.0007178943774670524,"train",6300.0,"2021-11-24 23:34:22.726651","","","","","","",""
5.0,0.08485748618841171,0.0007214241607151901,"train",6320.0,"2021-11-24 23:34:26.684912","","","","","","",""
5.0,0.0944857969880104,0.000724958790537449,"train",6340.0,"2021-11-24 23:34:30.256669","","","","","","",""
5.0,0.053773432970047,0.0007284982131606195,"train",6360.0,"2021-11-24 23:34:33.831601","","","","","","",""
5.0,0.0842343121767044,0.0007320423747385781,"train",6380.0,"2021-11-24 23:34:37.752521","","","","","","",""
5.0,0.07915865629911423,0.0007355912213531054,"train",6400.0,"2021-11-24 23:34:41.241333","","","","","","",""
5.0,0.07130161672830582,0.000739144699014708,"train",6420.0,"2021-11-24 23:34:44.704724","","","","","","",""
5.0,0.07381267845630646,0.0007427027536634401,"train",6440.0,"2021-11-24 23:34:48.584232","","","","","","",""
5.0,"","","train",6444.0,"2021-11-24 23:36:30.937581",0.5518736811467656,0.5679342701507781,0.9494236746002241,0.5734600355844371,0.4449076465799742,0.46823650872119865,0.29335210957202695
5.0,"","","val",6444.0,"2021-11-24 23:36:57.613042",0.5383277281688508,0.5230418532965291,0.9371847597858085,0.5520624550509663,0.4226976135556904,0.4393452267589066,0.27591237844161387
6.0,0.09182039648294449,0.0007462653311697235,"train",6460.0,"2021-11-24 23:37:02.817336","","","","","","",""
6.0,0.08815355598926544,0.0007498323773351733,"train",6480.0,"2021-11-24 23:37:06.483943","","","","","","",""
6.0,0.05402139201760292,0.0007534038378934223,"train",6500.0,"2021-11-24 23:37:10.097438","","","","","","",""
6.0,0.07895805686712265,0.0007569796585109453,"train",6520.0,"2021-11-24 23:37:14.053225","","","","","","",""
6.0,0.06163570657372475,0.0007605597847878862,"train",6540.0,"2021-11-24 23:37:17.376803","","","","","","",""
6.0,0.08884879946708679,0.0007641441622588871,"train",6560.0,"2021-11-24 23:37:20.695038","","","","","","",""
6.0,0.04706684127449989,0.0007677327363939143,"train",6580.0,"2021-11-24 23:37:24.452504","","","","","","",""
6.0,0.04385577142238617,0.0007713254525990895,"train",6600.0,"2021-11-24 23:37:27.970318","","","","","","",""
6.0,0.07566483318805695,0.0007749222562175211,"train",6620.0,"2021-11-24 23:37:31.538377","","","","","","",""
6.0,0.07447817176580429,0.000778523092530133,"train",6640.0,"2021-11-24 23:37:35.470966","","","","","","",""
6.0,0.05941937863826752,0.0007821279067564996,"train",6660.0,"2021-11-24 23:37:39.068993","","","","","","",""
6.0,0.05564506724476814,0.0007857366440556786,"train",6680.0,"2021-11-24 23:37:42.581613","","","","","","",""
6.0,0.04688050225377083,0.0007893492495270442,"train",6700.0,"2021-11-24 23:37:46.479059","","","","","","",""
6.0,0.0734441801905632,0.0007929656682111239,"train",6720.0,"2021-11-24 23:37:49.961860","","","","","","",""
6.0,0.05706936493515968,0.0007965858450904332,"train",6740.0,"2021-11-24 23:37:53.429031","","","","","","",""
6.0,0.06397926062345505,0.000800209725090314,"train",6760.0,"2021-11-24 23:37:57.233615","","","","","","",""
6.0,0.05363616719841957,0.0008038372530797706,"train",6780.0,"2021-11-24 23:38:00.724255","","","","","","",""
6.0,0.08040060102939606,0.0008074683738723109,"train",6800.0,"2021-11-24 23:38:04.196055","","","","","","",""
6.0,0.07841537147760391,0.0008111030322267832,"train",6820.0,"2021-11-24 23:38:08.049814","","","","","","",""
6.0,0.057613570243120193,0.0008147411728482187,"train",6840.0,"2021-11-24 23:38:11.545969","","","","","","",""
6.0,0.05890737846493721,0.0008183827403886721,"train",6860.0,"2021-11-24 23:38:15.154021","","","","","","",""
6.0,0.04644555598497391,0.0008220276794480633,"train",6880.0,"2021-11-24 23:38:19.140853","","","","","","",""
6.0,0.08342073857784271,0.0008256759345750203,"train",6900.0,"2021-11-24 23:38:22.566273","","","","","","",""
6.0,0.06712094694375992,0.0008293274502677234,"train",6920.0,"2021-11-24 23:38:26.055497","","","","","","",""
6.0,0.08264022320508957,0.0008329821709747486,"train",6940.0,"2021-11-24 23:38:29.962461","","","","","","",""
6.0,0.05707274749875069,0.0008366400410959136,"train",6960.0,"2021-11-24 23:38:33.433548","","","","","","",""
6.0,0.03874850273132324,0.000840301004983123,"train",6980.0,"2021-11-24 23:38:36.879279","","","","","","",""
6.0,0.07467474043369293,0.0008439650069412147,"train",7000.0,"2021-11-24 23:38:40.834503","","","","","","",""
6.0,0.06711780279874802,0.0008476319912288095,"train",7020.0,"2021-11-24 23:38:44.294660","","","","","","",""
6.0,0.06263910979032516,0.0008513019020591544,"train",7040.0,"2021-11-24 23:38:47.777788","","","","","","",""
6.0,0.07786941528320312,0.0008549746836009771,"train",7060.0,"2021-11-24 23:38:51.620204","","","","","","",""
6.0,0.06561245769262314,0.0008586502799793306,"train",7080.0,"2021-11-24 23:38:55.072195","","","","","","",""
6.0,0.0633106604218483,0.0008623286352764453,"train",7100.0,"2021-11-24 23:38:58.591280","","","","","","",""
6.0,0.056840743869543076,0.0008660096935325802,"train",7120.0,"2021-11-24 23:39:02.477287","","","","","","",""
6.0,0.05790942162275314,0.0008696933987468731,"train",7140.0,"2021-11-24 23:39:05.870639","","","","","","",""
6.0,0.08548076450824738,0.0008733796948781924,"train",7160.0,"2021-11-24 23:39:09.388158","","","","","","",""
6.0,0.05206529051065445,0.0008770685258459915,"train",7180.0,"2021-11-24 23:39:13.259843","","","","","","",""
6.0,0.07943028956651688,0.0008807598355311595,"train",7200.0,"2021-11-24 23:39:16.805147","","","","","","",""
6.0,0.0825386717915535,0.0008844535677768764,"train",7220.0,"2021-11-24 23:39:20.352799","","","","","","",""
6.0,0.06030387431383133,0.0008881496663894681,"train",7240.0,"2021-11-24 23:39:24.266644","","","","","","",""
6.0,0.0793694481253624,0.0008918480751392592,"train",7260.0,"2021-11-24 23:39:27.789241","","","","","","",""
6.0,0.08952668309211731,0.00089554873776143,"train",7280.0,"2021-11-24 23:39:31.245197","","","","","","",""
6.0,0.057593848556280136,0.0008992515979568724,"train",7300.0,"2021-11-24 23:39:35.171760","","","","","","",""
6.0,0.07476289570331573,0.0009029565993930457,"train",7320.0,"2021-11-24 23:39:38.651334","","","","","","",""
6.0,0.06779094785451889,0.0009066636857048339,"train",7340.0,"2021-11-24 23:39:42.104556","","","","","","",""
6.0,0.0567767359316349,0.0009103728004954039,"train",7360.0,"2021-11-24 23:39:45.897263","","","","","","",""
6.0,0.04559268057346344,0.0009140838873370617,"train",7380.0,"2021-11-24 23:39:49.342465","","","","","","",""
6.0,0.043096594512462616,0.0009177968897721136,"train",7400.0,"2021-11-24 23:39:52.854973","","","","","","",""
6.0,0.07809650152921677,0.0009215117513137218,"train",7420.0,"2021-11-24 23:39:56.661226","","","","","","",""
6.0,0.06085815653204918,0.0009252284154467663,"train",7440.0,"2021-11-24 23:40:00.101618","","","","","","",""
6.0,0.056103020906448364,0.0009289468256287042,"train",7460.0,"2021-11-24 23:40:03.519308","","","","","","",""
6.0,0.09866785258054733,0.0009326669252904287,"train",7480.0,"2021-11-24 23:40:07.214297","","","","","","",""
6.0,0.06532789766788483,0.0009363886578371307,"train",7500.0,"2021-11-24 23:40:10.580182","","","","","","",""
6.0,"","","train",7518.0,"2021-11-24 23:41:55.615244",0.5798733900895001,0.600946223017207,0.9584887533805925,0.6156394872311993,0.5003439491860135,0.5163541539794662,0.33636579286367574
6.0,"","","val",7518.0,"2021-11-24 23:42:22.067468",0.5570567088020411,0.5581368852445697,0.9459535034489529,0.5845636840985365,0.47228953785750954,0.48531017309607016,0.3090079126987297
7.0,0.05525745823979378,0.0009401119666491604,"train",7520.0,"2021-11-24 23:42:24.728905","","","","","","",""
7.0,0.04804058000445366,0.0009438367950828869,"train",7540.0,"2021-11-24 23:42:28.710420","","","","","","",""
7.0,0.06136281043291092,0.000947563086471561,"train",7560.0,"2021-11-24 23:42:32.104556","","","","","","",""
7.0,0.06994354724884033,0.0009512907841261783,"train",7580.0,"2021-11-24 23:42:35.670844","","","","","","",""
7.0,0.0583825409412384,0.0009550198313363391,"train",7600.0,"2021-11-24 23:42:39.578522","","","","","","",""
7.0,0.06297125667333603,0.0009587501713711128,"train",7620.0,"2021-11-24 23:42:43.171228","","","","","","",""
7.0,0.07012676447629929,0.0009624817474799023,"train",7640.0,"2021-11-24 23:42:46.732399","","","","","","",""
7.0,0.03817220404744148,0.0009662145028933038,"train",7660.0,"2021-11-24 23:42:50.614137","","","","","","",""
7.0,0.0538032092154026,0.0009699483808239733,"train",7680.0,"2021-11-24 23:42:54.163661","","","","","","",""
7.0,0.03962043672800064,0.0009736833244674895,"train",7700.0,"2021-11-24 23:42:57.725265","","","","","","",""
7.0,0.045303311198949814,0.0009774192770032192,"train",7720.0,"2021-11-24 23:43:01.867856","","","","","","",""
7.0,0.04380934312939644,0.0009811561815951785,"train",7740.0,"2021-11-24 23:43:05.389913","","","","","","",""
7.0,0.08643990010023117,0.0009848939813929015,"train",7760.0,"2021-11-24 23:43:08.922146","","","","","","",""
7.0,0.055340543389320374,0.0009886326195323026,"train",7780.0,"2021-11-24 23:43:12.997286","","","","","","",""
7.0,0.06853029876947403,0.0009923720391365428,"train",7800.0,"2021-11-24 23:43:16.584880","","","","","","",""
7.0,0.07154082506895065,0.000996112183316893,"train",7820.0,"2021-11-24 23:43:20.164309","","","","","","",""
7.0,0.06434423476457596,0.0009998529951736029,"train",7840.0,"2021-11-24 23:43:24.202562","","","","","","",""
7.0,0.05363219603896141,0.0010035944177967638,"train",7860.0,"2021-11-24 23:43:27.670475","","","","","","",""
7.0,0.07375778257846832,0.0010073363942671744,"train",7880.0,"2021-11-24 23:43:31.132825","","","","","","",""
7.0,0.0637696385383606,0.0010110788676572094,"train",7900.0,"2021-11-24 23:43:35.078021","","","","","","",""
7.0,0.06031953543424606,0.0010148217810316822,"train",7920.0,"2021-11-24 23:43:38.522226","","","","","","",""
7.0,0.06615996360778809,0.0010185650774487127,"train",7940.0,"2021-11-24 23:43:42.011917","","","","","","",""
7.0,0.054963368922472,0.0010223086999605951,"train",7960.0,"2021-11-24 23:43:46.070842","","","","","","",""
7.0,0.05963613837957382,0.0010260525916146609,"train",7980.0,"2021-11-24 23:43:49.495159","","","","","","",""
7.0,0.08777422457933426,0.0010297966954541469,"train",8000.0,"2021-11-24 23:43:52.917845","","","","","","",""
7.0,0.04986337572336197,0.001033540954519064,"train",8020.0,"2021-11-24 23:43:56.894499","","","","","","",""
7.0,0.06333337724208832,0.0010372853118470592,"train",8040.0,"2021-11-24 23:44:00.388166","","","","","","",""
7.0,0.05510390177369118,0.0010410297104742857,"train",8060.0,"2021-11-24 23:44:03.892232","","","","","","",""
7.0,0.07030855864286423,0.0010447740934362692,"train",8080.0,"2021-11-24 23:44:07.901932","","","","","","",""
7.0,0.05102866515517235,0.0010485184037687715,"train",8100.0,"2021-11-24 23:44:11.333924","","","","","","",""
7.0,0.04456684738397598,0.0010522625845086615,"train",8120.0,"2021-11-24 23:44:14.786867","","","","","","",""
7.0,0.07390692085027695,0.0010560065786947796,"train",8140.0,"2021-11-24 23:44:18.799623","","","","","","",""
7.0,0.04576638340950012,0.0010597503293688013,"train",8160.0,"2021-11-24 23:44:22.305725","","","","","","",""
7.0,0.04455740004777908,0.001063493779576111,"train",8180.0,"2021-11-24 23:44:25.803096","","","","","","",""
7.0,0.0564192570745945,0.0010672368723666614,"train",8200.0,"2021-11-24 23:44:29.798349","","","","","","",""
7.0,0.09184576570987701,0.0010709795507958426,"train",8220.0,"2021-11-24 23:44:33.291969","","","","","","",""
7.0,0.05553121119737625,0.0010747217579253504,"train",8240.0,"2021-11-24 23:44:36.841234","","","","","","",""
7.0,0.07394541800022125,0.0010784634368240487,"train",8260.0,"2021-11-24 23:44:40.896672","","","","","","",""
7.0,0.04872903600335121,0.0010822045305688382,"train",8280.0,"2021-11-24 23:44:44.426618","","","","","","",""
7.0,0.06458692252635956,0.0010859449822455227,"train",8300.0,"2021-11-24 23:44:47.829336","","","","","","",""
7.0,0.07530402392148972,0.001089684734949672,"train",8320.0,"2021-11-24 23:44:51.772789","","","","","","",""
7.0,0.05620311200618744,0.00109342373178749,"train",8340.0,"2021-11-24 23:44:55.231623","","","","","","",""
7.0,0.049970842897892,0.0010971619158766821,"train",8360.0,"2021-11-24 23:44:58.795638","","","","","","",""
7.0,0.052449025213718414,0.0011008992303473152,"train",8380.0,"2021-11-24 23:45:02.616621","","","","","","",""
7.0,0.050681326538324356,0.001104635618342687,"train",8400.0,"2021-11-24 23:45:06.146948","","","","","","",""
7.0,0.04665466025471687,0.001108371023020191,"train",8420.0,"2021-11-24 23:45:09.694495","","","","","","",""
7.0,0.07169755548238754,0.0011121053875521787,"train",8440.0,"2021-11-24 23:45:13.567744","","","","","","",""
7.0,0.06697094440460205,0.0011158386551268257,"train",8460.0,"2021-11-24 23:45:17.060333","","","","","","",""
7.0,0.06521564722061157,0.0011195707689489972,"train",8480.0,"2021-11-24 23:45:20.620286","","","","","","",""
7.0,0.04859530180692673,0.0011233016722411097,"train",8500.0,"2021-11-24 23:45:24.474184","","","","","","",""
7.0,0.06520756334066391,0.0011270313082439951,"train",8520.0,"2021-11-24 23:45:27.952072","","","","","","",""
7.0,0.059441063553094864,0.001130759620217767,"train",8540.0,"2021-11-24 23:45:31.507681","","","","","","",""
7.0,0.04364454001188278,0.0011344865514426794,"train",8560.0,"2021-11-24 23:45:35.369912","","","","","","",""
7.0,0.09940536320209503,0.0011382120452199938,"train",8580.0,"2021-11-24 23:45:38.855183","","","","","","",""
7.0,"","","train",8592.0,"2021-11-24 23:47:21.451676",0.6051371607363749,0.6348025498858637,0.963307307921744,0.6279487747015852,0.518244343914299,0.5308586828271957,0.3532945393639636
7.0,"","","val",8592.0,"2021-11-24 23:47:48.138424",0.5786269279833005,0.5836050654336605,0.9506577542770297,0.5950851131014461,0.49017580095668295,0.499982422770242,0.3237444555868239
8.0,0.06932147592306137,0.001141936044872839,"train",8600.0,"2021-11-24 23:47:51.981526","","","","","","",""
8.0,0.042816951870918274,0.0011456584937470744,"train",8620.0,"2021-11-24 23:47:56.069451","","","","","","",""
8.0,0.05071850121021271,0.0011493793352121522,"train",8640.0,"2021-11-24 23:47:59.560046","","","","","","",""
8.0,0.05097724497318268,0.0011530985126619784,"train",8660.0,"2021-11-24 23:48:02.996861","","","","","","",""
8.0,0.03862685710191727,0.001156815969515773,"train",8680.0,"2021-11-24 23:48:06.859206","","","","","","",""
8.0,0.05876556783914566,0.001160531649218934,"train",8700.0,"2021-11-24 23:48:10.391632","","","","","","",""
8.0,0.07657939195632935,0.001164245495243894,"train",8720.0,"2021-11-24 23:48:13.858826","","","","","","",""
8.0,0.06439623981714249,0.0011679574510909817,"train",8740.0,"2021-11-24 23:48:17.837215","","","","","","",""
8.0,0.0654933825135231,0.0011716674602892828,"train",8760.0,"2021-11-24 23:48:21.397295","","","","","","",""
8.0,0.05050971731543541,0.0011753754663974968,"train",8780.0,"2021-11-24 23:48:25.015051","","","","","","",""
8.0,0.06293857097625732,0.0011790814130047968,"train",8800.0,"2021-11-24 23:48:28.914939","","","","","","",""
8.0,0.07131829112768173,0.001182785243731688,"train",8820.0,"2021-11-24 23:48:32.531518","","","","","","",""
8.0,0.04711482301354408,0.0011864869022308656,"train",8840.0,"2021-11-24 23:48:36.126380","","","","","","",""
8.0,0.06841392070055008,0.0011901863321880693,"train",8860.0,"2021-11-24 23:48:40.090173","","","","","","",""
8.0,0.04714178293943405,0.001193883477322945,"train",8880.0,"2021-11-24 23:48:43.660169","","","","","","",""
8.0,0.06071082130074501,0.0011975782813898961,"train",8900.0,"2021-11-24 23:48:47.167858","","","","","","",""
8.0,0.060700301080942154,0.0012012706881789417,"train",8920.0,"2021-11-24 23:48:51.053817","","","","","","",""
8.0,0.050072211772203445,0.001204960641516572,"train",8940.0,"2021-11-24 23:48:54.537121","","","","","","",""
8.0,0.06295568495988846,0.0012086480852666014,"train",8960.0,"2021-11-24 23:48:58.012614","","","","","","",""
8.0,0.11471815407276154,0.0012123329633310235,"train",8980.0,"2021-11-24 23:49:01.849109","","","","","","",""
8.0,0.048071909695863724,0.0012160152196508643,"train",9000.0,"2021-11-24 23:49:05.420603","","","","","","",""
8.0,0.07077612727880478,0.0012196947982070355,"train",9020.0,"2021-11-24 23:49:08.916595","","","","","","",""
8.0,0.06188983470201492,0.0012233716430211856,"train",9040.0,"2021-11-24 23:49:12.782588","","","","","","",""
8.0,0.05586307495832443,0.001227045698156553,"train",9060.0,"2021-11-24 23:49:16.290062","","","","","","",""
8.0,0.07379024475812912,0.0012307169077188148,"train",9080.0,"2021-11-24 23:49:19.796686","","","","","","",""
8.0,0.055086009204387665,0.0012343852158569401,"train",9100.0,"2021-11-24 23:49:23.662068","","","","","","",""
8.0,0.08778464049100876,0.0012380505667640377,"train",9120.0,"2021-11-24 23:49:27.254057","","","","","","",""
8.0,0.06670517474412918,0.0012417129046782046,"train",9140.0,"2021-11-24 23:49:30.754000","","","","","","",""
8.0,0.061601683497428894,0.0012453721738833758,"train",9160.0,"2021-11-24 23:49:34.650489","","","","","","",""
8.0,0.05523224174976349,0.001249028318710172,"train",9180.0,"2021-11-24 23:49:38.204950","","","","","","",""
8.0,0.059092532843351364,0.0012526812835367447,"train",9200.0,"2021-11-24 23:49:41.765125","","","","","","",""
8.0,0.06232926622033119,0.0012563310127896242,"train",9220.0,"2021-11-24 23:49:45.876204","","","","","","",""
8.0,0.08237415552139282,0.0012599774509445645,"train",9240.0,"2021-11-24 23:49:49.368615","","","","","","",""
8.0,0.07626928389072418,0.0012636205425273874,"train",9260.0,"2021-11-24 23:49:52.962379","","","","","","",""
8.0,0.05393007770180702,0.0012672602321148268,"train",9280.0,"2021-11-24 23:49:56.879304","","","","","","",""
8.0,0.043134428560733795,0.0012708964643353732,"train",9300.0,"2021-11-24 23:50:00.298304","","","","","","",""
8.0,0.04897259920835495,0.001274529183870114,"train",9320.0,"2021-11-24 23:50:03.750297","","","","","","",""
8.0,0.049686480313539505,0.0012781583354535748,"train",9340.0,"2021-11-24 23:50:07.535673","","","","","","",""
8.0,0.04256292060017586,0.0012817838638745646,"train",9360.0,"2021-11-24 23:50:11.059536","","","","","","",""
8.0,0.050780802965164185,0.001285405713977009,"train",9380.0,"2021-11-24 23:50:14.558830","","","","","","",""
8.0,0.06749431043863297,0.0012890238306607947,"train",9400.0,"2021-11-24 23:50:18.412246","","","","","","",""
8.0,0.0536932498216629,0.001292638158882606,"train",9420.0,"2021-11-24 23:50:21.865036","","","","","","",""
8.0,0.05826165899634361,0.0012962486436567603,"train",9440.0,"2021-11-24 23:50:25.472429","","","","","","",""
8.0,0.0591663233935833,0.0012998552300560484,"train",9460.0,"2021-11-24 23:50:29.425880","","","","","","",""
8.0,0.06869455426931381,0.0013034578632125668,"train",9480.0,"2021-11-24 23:50:33.000335","","","","","","",""
8.0,0.05292157083749771,0.0013070564883185534,"train",9500.0,"2021-11-24 23:50:36.600192","","","","","","",""
8.0,0.045011769980192184,0.001310651050627223,"train",9520.0,"2021-11-24 23:50:40.557037","","","","","","",""
8.0,0.0794486328959465,0.001314241495453598,"train",9540.0,"2021-11-24 23:50:44.080966","","","","","","",""
8.0,0.05001378431916237,0.00131782776817534,"train",9560.0,"2021-11-24 23:50:47.535400","","","","","","",""
8.0,0.0898653194308281,0.0013214098142335837,"train",9580.0,"2021-11-24 23:50:51.367509","","","","","","",""
8.0,0.06884756684303284,0.001324987579133764,"train",9600.0,"2021-11-24 23:50:54.882559","","","","","","",""
8.0,0.040897682309150696,0.0013285610084464463,"train",9620.0,"2021-11-24 23:50:58.474438","","","","","","",""
8.0,0.059293895959854126,0.001332130047808155,"train",9640.0,"2021-11-24 23:51:02.406438","","","","","","",""
8.0,0.04824008420109749,0.001335694642922199,"train",9660.0,"2021-11-24 23:51:05.933422","","","","","","",""
8.0,"","","train",9666.0,"2021-11-24 23:52:49.919556",0.597002110165175,0.6477538662805252,0.9658158539363447,0.6321698077292153,0.5202245716698902,0.534849864878189,0.3578881847552497
8.0,"","","val",9666.0,"2021-11-24 23:53:16.415195",0.573524295488809,0.5847692582615364,0.9503262251110933,0.5996295056241643,0.4772252761988209,0.4886136552011549,0.3188792753816007
9.0,0.04836549982428551,0.0013392547395594985,"train",9680.0,"2021-11-24 23:53:21.266093","","","","","","",""
9.0,0.06511998176574707,0.001342810283559412,"train",9700.0,"2021-11-24 23:53:25.365338","","","","","","",""
9.0,0.053003791719675064,0.0013463612208305564,"train",9720.0,"2021-11-24 23:53:28.901896","","","","","","",""
9.0,0.06396748870611191,0.0013499074973516321,"train",9740.0,"2021-11-24 23:53:32.452058","","","","","","",""
9.0,0.04959367960691452,0.0013534490591722464,"train",9760.0,"2021-11-24 23:53:36.406851","","","","","","",""
9.0,0.05122587829828262,0.0013569858524137305,"train",9780.0,"2021-11-24 23:53:39.998716","","","","","","",""
9.0,0.035233985632658005,0.001360517823269962,"train",9800.0,"2021-11-24 23:53:43.453069","","","","","","",""
9.0,0.056258425116539,0.0013640449180081834,"train",9820.0,"2021-11-24 23:53:46.948836","","","","","","",""
9.0,0.050753429532051086,0.0013675670829698173,"train",9840.0,"2021-11-24 23:53:50.829555","","","","","","",""
9.0,0.04037557169795036,0.0013710842645712853,"train",9860.0,"2021-11-24 23:53:54.259806","","","","","","",""
9.0,0.046941887587308884,0.0013745964093048219,"train",9880.0,"2021-11-24 23:53:57.747457","","","","","","",""
9.0,0.058174602687358856,0.0013781034637392886,"train",9900.0,"2021-11-24 23:54:01.642404","","","","","","",""
9.0,0.07718969881534576,0.0013816053745209864,"train",9920.0,"2021-11-24 23:54:05.154962","","","","","","",""
9.0,0.04727231338620186,0.0013851020883744697,"train",9940.0,"2021-11-24 23:54:08.669453","","","","","","",""
9.0,0.05126252770423889,0.001388593552103353,"train",9960.0,"2021-11-24 23:54:12.638695","","","","","","",""
9.0,0.08238638937473297,0.0013920797125911233,"train",9980.0,"2021-11-24 23:54:16.213208","","","","","","",""
9.0,0.05546344444155693,0.001395560516801947,"train",10000.0,"2021-11-24 23:54:19.808642","","","","","","",""
9.0,0.05824127420783043,0.0013990359117814774,"train",10020.0,"2021-11-24 23:54:23.731085","","","","","","",""
9.0,0.029252249747514725,0.0014025058446576583,"train",10040.0,"2021-11-24 23:54:27.203544","","","","","","",""
9.0,0.0627284049987793,0.0014059702626415317,"train",10060.0,"2021-11-24 23:54:30.635953","","","","","","",""
9.0,0.04500174522399902,0.0014094291130280377,"train",10080.0,"2021-11-24 23:54:34.438111","","","","","","",""
9.0,0.04364794120192528,0.0014128823431968183,"train",10100.0,"2021-11-24 23:54:37.892852","","","","","","",""
9.0,0.054586149752140045,0.001416329900613017,"train",10120.0,"2021-11-24 23:54:41.416266","","","","","","",""
9.0,0.048489104956388474,0.0014197717328280782,"train",10140.0,"2021-11-24 23:54:45.339900","","","","","","",""
9.0,0.04482056573033333,0.0014232077874805457,"train",10160.0,"2021-11-24 23:54:48.844815","","","","","","",""
9.0,0.04674145206809044,0.0014266380122968589,"train",10180.0,"2021-11-24 23:54:52.385782","","","","","","",""
9.0,0.08126532286405563,0.0014300623550921468,"train",10200.0,"2021-11-24 23:54:56.363627","","","","","","",""
9.0,0.0461585633456707,0.0014334807637710243,"train",10220.0,"2021-11-24 23:54:59.945120","","","","","","",""
9.0,0.040173642337322235,0.0014368931863283831,"train",10240.0,"2021-11-24 23:55:03.431033","","","","","","",""
9.0,0.06633810698986053,0.0014402995708501826,"train",10260.0,"2021-11-24 23:55:07.394850","","","","","","",""
9.0,0.06026304513216019,0.0014436998655142422,"train",10280.0,"2021-11-24 23:55:10.934367","","","","","","",""
9.0,0.07538721710443497,0.0014470940185910258,"train",10300.0,"2021-11-24 23:55:14.511051","","","","","","",""
9.0,0.040274180471897125,0.001450481978444431,"train",10320.0,"2021-11-24 23:55:18.487628","","","","","","",""
9.0,0.08083164691925049,0.0014538636935325763,"train",10340.0,"2021-11-24 23:55:22.065585","","","","","","",""
9.0,0.04199296981096268,0.0014572391124085817,"train",10360.0,"2021-11-24 23:55:25.627894","","","","","","",""
9.0,0.05228792503476143,0.0014606081837213525,"train",10380.0,"2021-11-24 23:55:29.490147","","","","","","",""
9.0,0.08143418282270432,0.0014639708562163639,"train",10400.0,"2021-11-24 23:55:33.002143","","","","","","",""
9.0,0.04422389715909958,0.001467327078736435,"train",10420.0,"2021-11-24 23:55:36.441477","","","","","","",""
9.0,0.048168715089559555,0.0014706768002225108,"train",10440.0,"2021-11-24 23:55:40.325141","","","","","","",""
9.0,0.04315388202667236,0.0014740199697144392,"train",10460.0,"2021-11-24 23:55:43.892964","","","","","","",""
9.0,0.03579217940568924,0.0014773565363517442,"train",10480.0,"2021-11-24 23:55:47.502083","","","","","","",""
9.0,0.046284157782793045,0.0014806864493744007,"train",10500.0,"2021-11-24 23:55:51.420131","","","","","","",""
9.0,0.037824977189302444,0.0014840096581236072,"train",10520.0,"2021-11-24 23:55:54.956631","","","","","","",""
9.0,0.07273385673761368,0.001487326112042556,"train",10540.0,"2021-11-24 23:55:58.494853","","","","","","",""
9.0,0.05715087801218033,0.0014906357606772013,"train",10560.0,"2021-11-24 23:56:02.447527","","","","","","",""
9.0,0.04556968808174133,0.0014939385536770291,"train",10580.0,"2021-11-24 23:56:05.918034","","","","","","",""
9.0,0.03967282548546791,0.0014972344407958218,"train",10600.0,"2021-11-24 23:56:09.407302","","","","","","",""
9.0,0.07223040610551834,0.0015005233718924213,"train",10620.0,"2021-11-24 23:56:13.313998","","","","","","",""
9.0,0.0455637089908123,0.0015038052969314946,"train",10640.0,"2021-11-24 23:56:16.808757","","","","","","",""
9.0,0.044042475521564484,0.0015070801659842939,"train",10660.0,"2021-11-24 23:56:20.398911","","","","","","",""
9.0,0.03946729376912117,0.001510347929229414,"train",10680.0,"2021-11-24 23:56:24.410847","","","","","","",""
9.0,0.06185324490070343,0.0015136085369535537,"train",10700.0,"2021-11-24 23:56:27.894891","","","","","","",""
9.0,0.07604657858610153,0.0015168619395522708,"train",10720.0,"2021-11-24 23:56:31.440072","","","","","","",""
9.0,0.0934387594461441,0.0015201080875307349,"train",10740.0,"2021-11-24 23:56:35.487968","","","","","","",""
9.0,"","","train",10740.0,"2021-11-24 23:58:16.697880",0.628814669286182,0.6743316984820217,0.9706005831188521,0.6553040502702047,0.5590424890821722,0.573976166861419,0.38342505698522433
9.0,"","","val",10740.0,"2021-11-24 23:58:42.993219",0.598747535660443,0.6049453875189713,0.9561109285479854,0.6157210536988373,0.5183372453258754,0.528404653719943,0.3426626785112896
10.0,0.03728987276554108,0.0015233469315044834,"train",10760.0,"2021-11-24 23:58:48.795958","","","","","","",""
10.0,0.09286783635616302,0.0015265784222001709,"train",10780.0,"2021-11-24 23:58:52.353000","","","","","","",""
10.0,0.058865442872047424,0.0015298025104563185,"train",10800.0,"2021-11-24 23:58:56.449536","","","","","","",""
10.0,0.08646044880151749,0.001533019147224064,"train",10820.0,"2021-11-24 23:59:00.052495","","","","","","",""
10.0,0.04505041241645813,0.0015362282835679054,"train",10840.0,"2021-11-24 23:59:03.583121","","","","","","",""
10.0,0.044663358479738235,0.0015394298706664469,"train",10860.0,"2021-11-24 23:59:07.547281","","","","","","",""
10.0,0.035745762288570404,0.001542623859813141,"train",10880.0,"2021-11-24 23:59:11.047650","","","","","","",""
10.0,0.04234045371413231,0.00154581020241703,"train",10900.0,"2021-11-24 23:59:14.515307","","","","","","",""
10.0,0.056576117873191833,0.0015489888500034858,"train",10920.0,"2021-11-24 23:59:18.374101","","","","","","",""
10.0,0.04574297368526459,0.0015521597542149444,"train",10940.0,"2021-11-24 23:59:21.974755","","","","","","",""
10.0,0.03815261647105217,0.0015553228668116455,"train",10960.0,"2021-11-24 23:59:25.503127","","","","","","",""
10.0,0.04289586842060089,0.0015584781396723642,"train",10980.0,"2021-11-24 23:59:29.471377","","","","","","",""
10.0,0.07443622499704361,0.0015616255247951432,"train",11000.0,"2021-11-24 23:59:32.854847","","","","","","",""
10.0,0.04474648833274841,0.0015647649742980233,"train",11020.0,"2021-11-24 23:59:36.259955","","","","","","",""
10.0,0.08212795853614807,0.0015678964404197727,"train",11040.0,"2021-11-24 23:59:40.187005","","","","","","",""
10.0,0.058269284665584564,0.0015710198755206112,"train",11060.0,"2021-11-24 23:59:43.543562","","","","","","",""
10.0,0.06088605523109436,0.0015741352320829379,"train",11080.0,"2021-11-24 23:59:47.095845","","","","","","",""
10.0,0.04845886677503586,0.0015772424627120527,"train",11100.0,"2021-11-24 23:59:51.274955","","","","","","",""
10.0,0.08381274342536926,0.0015803415201368761,"train",11120.0,"2021-11-24 23:59:54.878415","","","","","","",""
10.0,0.0552322156727314,0.001583432357210671,"train",11140.0,"2021-11-24 23:59:58.439047","","","","","","",""
10.0,0.045818109065294266,0.001586514926911758,"train",11160.0,"2021-11-25 00:00:02.446903","","","","","","",""
10.0,0.043629154562950134,0.0015895891823442313,"train",11180.0,"2021-11-25 00:00:05.965745","","","","","","",""
10.0,0.0802810788154602,0.0015926550767386717,"train",11200.0,"2021-11-25 00:00:09.509838","","","","","","",""
10.0,0.05511104315519333,0.0015957125634528599,"train",11220.0,"2021-11-25 00:00:13.553423","","","","","","",""
10.0,0.050766993314027786,0.0015987615959724836,"train",11240.0,"2021-11-25 00:00:17.078284","","","","","","",""
10.0,0.03980691730976105,0.0016018021279118457,"train",11260.0,"2021-11-25 00:00:20.674001","","","","","","",""
10.0,0.07841777801513672,0.0016048341130145728,"train",11280.0,"2021-11-25 00:00:24.577697","","","","","","",""
10.0,0.045225877314805984,0.0016078575051543145,"train",11300.0,"2021-11-25 00:00:28.073589","","","","","","",""
10.0,0.047095805406570435,0.0016108722583354478,"train",11320.0,"2021-11-25 00:00:31.584156","","","","","","",""
10.0,0.04858751595020294,0.0016138783266937777,"train",11340.0,"2021-11-25 00:00:35.455431","","","","","","",""
10.0,0.07093542814254761,0.0016168756644972322,"train",11360.0,"2021-11-25 00:00:39.071651","","","","","","",""
10.0,0.03698449581861496,0.0016198642261465587,"train",11380.0,"2021-11-25 00:00:42.634639","","","","","","",""
10.0,0.05463236942887306,0.0016228439661760208,"train",11400.0,"2021-11-25 00:00:46.560905","","","","","","",""
10.0,0.04704172909259796,0.001625814839254086,"train",11420.0,"2021-11-25 00:00:50.165965","","","","","","",""
10.0,0.06906906515359879,0.0016287768001841164,"train",11440.0,"2021-11-25 00:00:53.808982","","","","","","",""
10.0,0.07453089952468872,0.001631729803905059,"train",11460.0,"2021-11-25 00:00:57.768890","","","","","","",""
10.0,0.05151335150003433,0.0016346738054921273,"train",11480.0,"2021-11-25 00:01:01.290914","","","","","","",""
10.0,0.06816023588180542,0.001637608760157486,"train",11500.0,"2021-11-25 00:01:04.819732","","","","","","",""
10.0,0.06869859248399734,0.0016405346232509356,"train",11520.0,"2021-11-25 00:01:08.728962","","","","","","",""
10.0,0.04234650731086731,0.0016434513502605861,"train",11540.0,"2021-11-25 00:01:12.305046","","","","","","",""
10.0,0.06318837404251099,0.0016463588968135383,"train",11560.0,"2021-11-25 00:01:15.789398","","","","","","",""
10.0,0.043585289269685745,0.0016492572186765577,"train",11580.0,"2021-11-25 00:01:19.658657","","","","","","",""
10.0,0.06681174784898758,0.001652146271756747,"train",11600.0,"2021-11-25 00:01:23.195986","","","","","","",""
10.0,0.050805360078811646,0.0016550260121022172,"train",11620.0,"2021-11-25 00:01:26.680776","","","","","","",""
10.0,0.06515194475650787,0.0016578963959027562,"train",11640.0,"2021-11-25 00:01:30.516763","","","","","","",""
10.0,0.07815220952033997,0.001660757379490496,"train",11660.0,"2021-11-25 00:01:34.025472","","","","","","",""
10.0,0.04524765908718109,0.0016636089193405761,"train",11680.0,"2021-11-25 00:01:37.604447","","","","","","",""
10.0,0.04191194102168083,0.0016664509720718049,"train",11700.0,"2021-11-25 00:01:41.496271","","","","","","",""
10.0,0.06468882411718369,0.0016692834944473224,"train",11720.0,"2021-11-25 00:01:45.000749","","","","","","",""
10.0,0.05673879012465477,0.0016721064433752554,"train",11740.0,"2021-11-25 00:01:48.584752","","","","","","",""
10.0,0.03460117056965828,0.0016749197759093734,"train",11760.0,"2021-11-25 00:01:52.398694","","","","","","",""
10.0,0.04553988203406334,0.0016777234492497436,"train",11780.0,"2021-11-25 00:01:55.896830","","","","","","",""
10.0,0.05199892818927765,0.0016805174207433808,"train",11800.0,"2021-11-25 00:01:59.506243","","","","","","",""
10.0,"","","train",11814.0,"2021-11-25 00:03:43.300020",0.6191806737975697,0.6867547464565809,0.9713479489799763,0.6733919488646699,0.5790124792583545,0.5986683174444758,0.3893642314192126
10.0,"","","val",11814.0,"2021-11-25 00:04:09.928041",0.5850052186014149,0.6089066083965954,0.9564686459533696,0.6282226241869587,0.5260275589018009,0.5377310398063462,0.33981971051792736
11.0,0.06010425463318825,0.0016833016478848956,"train",11820.0,"2021-11-25 00:04:13.781734","","","","","","",""
11.0,0.06475912779569626,0.0016860760883171426,"train",11840.0,"2021-11-25 00:04:17.276009","","","","","","",""
11.0,0.05178124085068703,0.001688840699831864,"train",11860.0,"2021-11-25 00:04:20.728821","","","","","","",""
11.0,0.08110996335744858,0.0016915954403703313,"train",11880.0,"2021-11-25 00:04:24.558458","","","","","","",""
11.0,0.05903354659676552,0.0016943402680239862,"train",11900.0,"2021-11-25 00:04:28.041154","","","","","","",""
11.0,0.04428071901202202,0.0016970751410350774,"train",11920.0,"2021-11-25 00:04:31.551582","","","","","","",""
11.0,0.05457537993788719,0.001699800017797296,"train",11940.0,"2021-11-25 00:04:35.395111","","","","","","",""
11.0,0.0714985728263855,0.0017025148568564086,"train",11960.0,"2021-11-25 00:04:38.916783","","","","","","",""
11.0,0.047707412391901016,0.001705219616910888,"train",11980.0,"2021-11-25 00:04:42.397573","","","","","","",""
11.0,0.07038380205631256,0.001707914256812541,"train",12000.0,"2021-11-25 00:04:46.307283","","","","","","",""
11.0,0.0412888340651989,0.0017105987355671352,"train",12020.0,"2021-11-25 00:04:49.826848","","","","","","",""
11.0,0.07878120243549347,0.0017132730123350227,"train",12040.0,"2021-11-25 00:04:53.365703","","","","","","",""
11.0,0.06389962136745453,0.00171593704643176,"train",12060.0,"2021-11-25 00:04:57.309817","","","","","","",""
11.0,0.09306667745113373,0.0017185907973287285,"train",12080.0,"2021-11-25 00:05:00.886327","","","","","","",""
11.0,0.07453256100416183,0.0017212342246537506,"train",12100.0,"2021-11-25 00:05:04.442850","","","","","","",""
11.0,0.03829873725771904,0.0017238672881917032,"train",12120.0,"2021-11-25 00:05:08.104760","","","","","","",""
11.0,0.06937149912118912,0.001726489947885131,"train",12140.0,"2021-11-25 00:05:11.597759","","","","","","",""
11.0,0.059612032026052475,0.0017291021638348543,"train",12160.0,"2021-11-25 00:05:15.171182","","","","","","",""
11.0,0.07753229141235352,0.0017317038963005765,"train",12180.0,"2021-11-25 00:05:19.043182","","","","","","",""
11.0,0.04885571822524071,0.00173429510570149,"train",12200.0,"2021-11-25 00:05:22.527361","","","","","","",""
11.0,0.04968121647834778,0.0017368757526168759,"train",12220.0,"2021-11-25 00:05:26.103994","","","","","","",""
11.0,0.043584346771240234,0.0017394457977867057,"train",12240.0,"2021-11-25 00:05:30.121756","","","","","","",""
11.0,0.05584574118256569,0.0017420052021122378,"train",12260.0,"2021-11-25 00:05:33.723755","","","","","","",""
11.0,0.06931082159280777,0.0017445539266566128,"train",12280.0,"2021-11-25 00:05:37.238904","","","","","","",""
11.0,0.05040745809674263,0.001747091932645445,"train",12300.0,"2021-11-25 00:05:41.103465","","","","","","",""
11.0,0.03432885557413101,0.0017496191814674125,"train",12320.0,"2021-11-25 00:05:44.568404","","","","","","",""
11.0,0.06889179348945618,0.001752135634674846,"train",12340.0,"2021-11-25 00:05:48.040104","","","","","","",""
11.0,0.057023998349905014,0.0017546412539843118,"train",12360.0,"2021-11-25 00:05:51.962830","","","","","","",""
11.0,0.031077835708856583,0.001757136001277194,"train",12380.0,"2021-11-25 00:05:55.435274","","","","","","",""
11.0,0.04662666097283363,0.001759619838600278,"train",12400.0,"2021-11-25 00:05:58.894396","","","","","","",""
11.0,0.06011278182268143,0.0017620927281663229,"train",12420.0,"2021-11-25 00:06:02.697320","","","","","","",""
11.0,0.03240551799535751,0.0017645546323546398,"train",12440.0,"2021-11-25 00:06:06.133478","","","","","","",""
11.0,0.0411352775990963,0.0017670055137116636,"train",12460.0,"2021-11-25 00:06:09.675639","","","","","","",""
11.0,0.05311143770813942,0.0017694453349515209,"train",12480.0,"2021-11-25 00:06:13.626632","","","","","","",""
11.0,0.07331513613462448,0.0017718740589566,"train",12500.0,"2021-11-25 00:06:17.135519","","","","","","",""
11.0,0.05106343701481819,0.0017742916487781134,"train",12520.0,"2021-11-25 00:06:20.690012","","","","","","",""
11.0,0.08889775723218918,0.0017766980676366608,"train",12540.0,"2021-11-25 00:06:24.600010","","","","","","",""
11.0,0.03954276815056801,0.001779093278922789,"train",12560.0,"2021-11-25 00:06:28.064955","","","","","","",""
11.0,0.035874877125024796,0.001781477246197548,"train",12580.0,"2021-11-25 00:06:31.522677","","","","","","",""
11.0,0.04509199783205986,0.0017838499331930462,"train",12600.0,"2021-11-25 00:06:35.382519","","","","","","",""
11.0,0.04812811315059662,0.001786211303813001,"train",12620.0,"2021-11-25 00:06:38.835940","","","","","","",""
11.0,0.056803617626428604,0.0017885613221332894,"train",12640.0,"2021-11-25 00:06:42.312036","","","","","","",""
11.0,0.05168367177248001,0.0017908999524024931,"train",12660.0,"2021-11-25 00:06:46.150920","","","","","","",""
11.0,0.08098582178354263,0.0017932271590424438,"train",12680.0,"2021-11-25 00:06:49.657379","","","","","","",""
11.0,0.06123296171426773,0.0017955429066487635,"train",12700.0,"2021-11-25 00:06:53.267556","","","","","","",""
11.0,0.0685424655675888,0.0017978471599914025,"train",12720.0,"2021-11-25 00:06:57.239988","","","","","","",""
11.0,0.058758653700351715,0.0018001398840151778,"train",12740.0,"2021-11-25 00:07:00.813228","","","","","","",""
11.0,0.05743696913123131,0.0018024210438403031,"train",12760.0,"2021-11-25 00:07:04.364177","","","","","","",""
11.0,0.06751357764005661,0.0018046906047629228,"train",12780.0,"2021-11-25 00:07:08.285683","","","","","","",""
11.0,0.05446755141019821,0.0018069485322556372,"train",12800.0,"2021-11-25 00:07:11.865389","","","","","","",""
11.0,0.04925858974456787,0.001809194791968029,"train",12820.0,"2021-11-25 00:07:15.409590","","","","","","",""
11.0,0.045054566115140915,0.0018114293497271863,"train",12840.0,"2021-11-25 00:07:19.404799","","","","","","",""
11.0,0.0348733551800251,0.0018136521715382218,"train",12860.0,"2021-11-25 00:07:22.930073","","","","","","",""
11.0,0.04074477404356003,0.0018158632235847892,"train",12880.0,"2021-11-25 00:07:26.506470","","","","","","",""
11.0,"","","train",12888.0,"2021-11-25 00:09:08.200259",0.6374445172087608,0.706850144825213,0.9752689591336986,0.6986382589888407,0.593622213985818,0.6164537668336663,0.4093004165575246
11.0,"","","val",12888.0,"2021-11-25 00:09:34.766649",0.5965441261741853,0.6170376126273787,0.9594783430384187,0.6476748679026494,0.5262582166330838,0.543495315935041,0.349593788437442
12.0,0.02665605954825878,0.0018180624722295999,"train",12900.0,"2021-11-25 00:09:39.672234","","","","","","",""
12.0,0.04046807438135147,0.001820249884014933,"train",12920.0,"2021-11-25 00:09:43.179594","","","","","","",""
12.0,0.05138889700174332,0.001822425425663144,"train",12940.0,"2021-11-25 00:09:46.686800","","","","","","",""
12.0,0.0470503494143486,0.0018245890640771725,"train",12960.0,"2021-11-25 00:09:50.555441","","","","","","",""
12.0,0.05962672829627991,0.0018267407663410452,"train",12980.0,"2021-11-25 00:09:54.131394","","","","","","",""
12.0,0.06657017022371292,0.0018288804997203755,"train",13000.0,"2021-11-25 00:09:57.675325","","","","","","",""
12.0,0.0392945297062397,0.0018310082316628634,"train",13020.0,"2021-11-25 00:10:01.585625","","","","","","",""
12.0,0.07126247137784958,0.0018331239297987893,"train",13040.0,"2021-11-25 00:10:05.153095","","","","","","",""
12.0,0.05808142572641373,0.0018352275619415066,"train",13060.0,"2021-11-25 00:10:08.681815","","","","","","",""
12.0,0.0538770854473114,0.0018373190960879326,"train",13080.0,"2021-11-25 00:10:12.614950","","","","","","",""
12.0,0.04184343293309212,0.0018393985004190336,"train",13100.0,"2021-11-25 00:10:16.173248","","","","","","",""
12.0,0.06305216252803802,0.00184146574330031,"train",13120.0,"2021-11-25 00:10:19.675885","","","","","","",""
12.0,0.102775938808918,0.001843520793282278,"train",13140.0,"2021-11-25 00:10:23.525177","","","","","","",""
12.0,0.04137004539370537,0.0018455636191009464,"train",13160.0,"2021-11-25 00:10:26.974656","","","","","","",""
12.0,0.045737821608781815,0.001847594189678294,"train",13180.0,"2021-11-25 00:10:30.504320","","","","","","",""
12.0,0.045005254447460175,0.0018496124741227415,"train",13200.0,"2021-11-25 00:10:34.148299","","","","","","",""
12.0,0.061507586389780045,0.001851618441729622,"train",13220.0,"2021-11-25 00:10:38.003455","","","","","","",""
12.0,0.0458909273147583,0.0018536120619816467,"train",13240.0,"2021-11-25 00:10:41.442522","","","","","","",""
12.0,0.06786487251520157,0.0018555933045493712,"train",13260.0,"2021-11-25 00:10:44.933132","","","","","","",""
12.0,0.0830666646361351,0.0018575621392916554,"train",13280.0,"2021-11-25 00:10:48.864081","","","","","","",""
12.0,0.07865279912948608,0.0018595185362561225,"train",13300.0,"2021-11-25 00:10:52.349435","","","","","","",""
12.0,0.03935758396983147,0.0018614624656796155,"train",13320.0,"2021-11-25 00:10:55.831799","","","","","","",""
12.0,0.04485199227929115,0.0018633938979886484,"train",13340.0,"2021-11-25 00:10:59.646702","","","","","","",""
12.0,0.038744304329156876,0.0018653128037998568,"train",13360.0,"2021-11-25 00:11:03.189286","","","","","","",""
12.0,0.03789656609296799,0.0018672191539204459,"train",13380.0,"2021-11-25 00:11:06.678197","","","","","","",""
12.0,0.043588221073150635,0.0018691129193486335,"train",13400.0,"2021-11-25 00:11:10.731230","","","","","","",""
12.0,0.04370824247598648,0.0018709940712740908,"train",13420.0,"2021-11-25 00:11:14.253843","","","","","","",""
12.0,0.06640318781137466,0.0018728625810783823,"train",13440.0,"2021-11-25 00:11:17.690032","","","","","","",""
12.0,0.07470935583114624,0.0018747184203353996,"train",13460.0,"2021-11-25 00:11:21.534499","","","","","","",""
12.0,0.062139950692653656,0.0018765615608117947,"train",13480.0,"2021-11-25 00:11:25.013781","","","","","","",""
12.0,0.049259498715400696,0.0018783919744674096,"train",13500.0,"2021-11-25 00:11:28.660728","","","","","","",""
12.0,0.06507167220115662,0.0018802096334557027,"train",13520.0,"2021-11-25 00:11:32.598121","","","","","","",""
12.0,0.05236779525876045,0.0018820145101241712,"train",13540.0,"2021-11-25 00:11:36.086803","","","","","","",""
12.0,0.08334957808256149,0.0018838065770147745,"train",13560.0,"2021-11-25 00:11:39.579939","","","","","","",""
12.0,0.059296879917383194,0.0018855858068643496,"train",13580.0,"2021-11-25 00:11:43.469660","","","","","","",""
12.0,0.06448246538639069,0.001887352172605026,"train",13600.0,"2021-11-25 00:11:46.797050","","","","","","",""
12.0,0.039674144238233566,0.0018891056473646398,"train",13620.0,"2021-11-25 00:11:50.303604","","","","","","",""
12.0,0.057324010878801346,0.0018908462044671395,"train",13640.0,"2021-11-25 00:11:54.237763","","","","","","",""
12.0,0.03947971388697624,0.001892573817432993,"train",13660.0,"2021-11-25 00:11:57.804392","","","","","","",""
12.0,0.06790553778409958,0.0018942884599795914,"train",13680.0,"2021-11-25 00:12:01.168788","","","","","","",""
12.0,0.04518134891986847,0.001895990106021648,"train",13700.0,"2021-11-25 00:12:05.065623","","","","","","",""
12.0,0.05347650125622749,0.0018976787296715943,"train",13720.0,"2021-11-25 00:12:08.628180","","","","","","",""
12.0,0.03826860710978508,0.0018993543052399757,"train",13740.0,"2021-11-25 00:12:12.142123","","","","","","",""
12.0,0.02950640209019184,0.0019010168072358413,"train",13760.0,"2021-11-25 00:12:16.048489","","","","","","",""
12.0,0.04315752908587456,0.0019026662103671305,"train",13780.0,"2021-11-25 00:12:19.616001","","","","","","",""
12.0,0.032227933406829834,0.0019043024895410605,"train",13800.0,"2021-11-25 00:12:23.091336","","","","","","",""
12.0,0.04134153574705124,0.001905925619864506,"train",13820.0,"2021-11-25 00:12:27.000635","","","","","","",""
12.0,0.0497446209192276,0.001907535576644378,"train",13840.0,"2021-11-25 00:12:30.509931","","","","","","",""
12.0,0.0299393218010664,0.0019091323353880008,"train",13860.0,"2021-11-25 00:12:33.940952","","","","","","",""
12.0,0.06282024830579758,0.0019107158718034828,"train",13880.0,"2021-11-25 00:12:37.776129","","","","","","",""
12.0,0.04486018419265747,0.001912286161800088,"train",13900.0,"2021-11-25 00:12:41.321534","","","","","","",""
12.0,0.03141133114695549,0.0019138431814886008,"train",13920.0,"2021-11-25 00:12:44.792456","","","","","","",""
12.0,0.05065028741955757,0.0019153869071816896,"train",13940.0,"2021-11-25 00:12:48.671282","","","","","","",""
12.0,0.057786181569099426,0.0019169173153942693,"train",13960.0,"2021-11-25 00:12:52.080419","","","","","","",""
12.0,"","","train",13962.0,"2021-11-25 00:14:32.499466",0.637619151568071,0.7234039310074257,0.977396338428377,0.7268633804277764,0.6342593907999066,0.6579071128708323,0.43752890046866616
12.0,"","","val",13962.0,"2021-11-25 00:14:58.451468",0.5880783949901427,0.6277535109192797,0.9606791044566259,0.6704135862038391,0.5645496883587606,0.5841829393093053,0.3704265804733699
13.0,0.050103362649679184,0.0019184343828438557,"train",13980.0,"2021-11-25 00:15:03.819523","","","","","","",""
13.0,0.04231424257159233,0.0019199380864509208,"train",14000.0,"2021-11-25 00:15:07.745141","","","","","","",""
13.0,0.06825914978981018,0.0019214284033392457,"train",14020.0,"2021-11-25 00:15:11.211585","","","","","","",""
13.0,0.059439074248075485,0.0019229053108362649,"train",14040.0,"2021-11-25 00:15:14.665793","","","","","","",""
13.0,0.05456645041704178,0.0019243687864734145,"train",14060.0,"2021-11-25 00:15:18.472931","","","","","","",""
13.0,0.04625125229358673,0.0019258188079864732,"train",14080.0,"2021-11-25 00:15:21.943703","","","","","","",""
13.0,0.08390571922063828,0.0019272553533158999,"train",14100.0,"2021-11-25 00:15:25.519044","","","","","","",""
13.0,0.05365241318941116,0.0019286784006071697,"train",14120.0,"2021-11-25 00:15:29.431035","","","","","","",""
13.0,0.06320614367723465,0.0019300879282111083,"train",14140.0,"2021-11-25 00:15:32.932102","","","","","","",""
13.0,0.03823114559054375,0.0019314839146842185,"train",14160.0,"2021-11-25 00:15:36.403335","","","","","","",""
13.0,0.03438075631856918,0.0019328663387890076,"train",14180.0,"2021-11-25 00:15:40.246022","","","","","","",""
13.0,0.04443841800093651,0.0019342351794943119,"train",14200.0,"2021-11-25 00:15:43.740401","","","","","","",""
13.0,0.0626874640583992,0.0019355904159756138,"train",14220.0,"2021-11-25 00:15:47.231458","","","","","","",""
13.0,0.05836821720004082,0.0019369320276153613,"train",14240.0,"2021-11-25 00:15:51.119945","","","","","","",""
13.0,0.04293471574783325,0.00193825999400328,"train",14260.0,"2021-11-25 00:15:54.653596","","","","","","",""
13.0,0.04573535919189453,0.0019395742949366843,"train",14280.0,"2021-11-25 00:15:58.134098","","","","","","",""
13.0,0.045742347836494446,0.0019408749104207845,"train",14300.0,"2021-11-25 00:16:01.980057","","","","","","",""
13.0,0.0770469456911087,0.0019421618206689913,"train",14320.0,"2021-11-25 00:16:05.447806","","","","","","",""
13.0,0.041025470942258835,0.0019434350061032163,"train",14340.0,"2021-11-25 00:16:08.985192","","","","","","",""
13.0,0.05543670430779457,0.0019446944473541703,"train",14360.0,"2021-11-25 00:16:12.890093","","","","","","",""
13.0,0.04672452434897423,0.0019459401252616573,"train",14380.0,"2021-11-25 00:16:16.411258","","","","","","",""
13.0,0.04204089939594269,0.001947172020874868,"train",14400.0,"2021-11-25 00:16:19.920533","","","","","","",""
13.0,0.04960907623171806,0.0019483901154526647,"train",14420.0,"2021-11-25 00:16:23.762457","","","","","","",""
13.0,0.07092326134443283,0.0019495943904638694,"train",14440.0,"2021-11-25 00:16:27.234838","","","","","","",""
13.0,0.034995075315237045,0.0019507848275875444,"train",14460.0,"2021-11-25 00:16:30.803878","","","","","","",""
13.0,0.04104980453848839,0.0019519614087132712,"train",14480.0,"2021-11-25 00:16:34.735771","","","","","","",""
13.0,0.060406677424907684,0.0019531241159414263,"train",14500.0,"2021-11-25 00:16:38.347156","","","","","","",""
13.0,0.0512884147465229,0.001954272931583453,"train",14520.0,"2021-11-25 00:16:41.916159","","","","","","",""
13.0,0.0388646200299263,0.0019554078381621306,"train",14540.0,"2021-11-25 00:16:45.793888","","","","","","",""
13.0,0.0869905948638916,0.0019565288184118417,"train",14560.0,"2021-11-25 00:16:49.272436","","","","","","",""
13.0,0.04671624302864075,0.0019576358552788314,"train",14580.0,"2021-11-25 00:16:52.764861","","","","","","",""
13.0,0.06549163162708282,0.0019587289319214713,"train",14600.0,"2021-11-25 00:16:56.612045","","","","","","",""
13.0,0.0457727387547493,0.0019598080317105113,"train",14620.0,"2021-11-25 00:17:00.093380","","","","","","",""
13.0,0.04246297478675842,0.001960873138229337,"train",14640.0,"2021-11-25 00:17:03.598884","","","","","","",""
13.0,0.06352211534976959,0.0019619242352742153,"train",14660.0,"2021-11-25 00:17:07.514671","","","","","","",""
13.0,0.035421475768089294,0.001962961306854543,"train",14680.0,"2021-11-25 00:17:11.079312","","","","","","",""
13.0,0.05293143168091774,0.0019639843371930905,"train",14700.0,"2021-11-25 00:17:14.600129","","","","","","",""
13.0,0.050274163484573364,0.001964993310726241,"train",14720.0,"2021-11-25 00:17:18.547752","","","","","","",""
13.0,0.0475994348526001,0.0019659882121042262,"train",14740.0,"2021-11-25 00:17:22.074496","","","","","","",""
13.0,0.042999476194381714,0.001966969026191363,"train",14760.0,"2021-11-25 00:17:25.649187","","","","","","",""
13.0,0.06959980726242065,0.0019679357380662805,"train",14780.0,"2021-11-25 00:17:29.553957","","","","","","",""
13.0,0.035125475376844406,0.001968888333022148,"train",14800.0,"2021-11-25 00:17:33.108668","","","","","","",""
13.0,0.04891841486096382,0.0019698267965669,"train",14820.0,"2021-11-25 00:17:36.643181","","","","","","",""
13.0,0.043058786541223526,0.0019707511144234557,"train",14840.0,"2021-11-25 00:17:40.557659","","","","","","",""
13.0,0.04060836508870125,0.001971661272529935,"train",14860.0,"2021-11-25 00:17:44.019274","","","","","","",""
13.0,0.07987753301858902,0.001972557257039875,"train",14880.0,"2021-11-25 00:17:47.460926","","","","","","",""
13.0,0.060723498463630676,0.0019734390543224385,"train",14900.0,"2021-11-25 00:17:51.236992","","","","","","",""
13.0,0.04971547797322273,0.001974306650962622,"train",14920.0,"2021-11-25 00:17:54.716378","","","","","","",""
13.0,0.036962442100048065,0.0019751600337614608,"train",14940.0,"2021-11-25 00:17:58.272605","","","","","","",""
13.0,0.04782486706972122,0.0019759991897362284,"train",14960.0,"2021-11-25 00:18:02.107842","","","","","","",""
13.0,0.040853191167116165,0.0019768241061206343,"train",14980.0,"2021-11-25 00:18:05.556904","","","","","","",""
13.0,0.06946291029453278,0.0019776347703650186,"train",15000.0,"2021-11-25 00:18:09.018741","","","","","","",""
13.0,0.05663764849305153,0.001978431170136543,"train",15020.0,"2021-11-25 00:18:12.817602","","","","","","",""
13.0,"","","train",15036.0,"2021-11-25 00:19:55.344315",0.650396565524267,0.736827026728369,0.9789537783146097,0.6938059521730392,0.595651565190323,0.6199710766095881,0.41783932940249985
13.0,"","","val",15036.0,"2021-11-25 00:20:21.907474",0.6038501681549345,0.635031779048708,0.9599324464985399,0.6369059240286653,0.5282731645083175,0.5490611995920169,0.34964674690555814
14.0,0.041348665952682495,0.0019792132933193784,"train",15040.0,"2021-11-25 00:20:24.924642","","","","","","",""
14.0,0.039212457835674286,0.001979981128014888,"train",15060.0,"2021-11-25 00:20:28.375352","","","","","","",""
14.0,0.08364881575107574,0.001980734662541811,"train",15080.0,"2021-11-25 00:20:32.293337","","","","","","",""
14.0,0.05974249914288521,0.0019814738854364374,"train",15100.0,"2021-11-25 00:20:35.791711","","","","","","",""
14.0,0.06510523706674576,0.0019821987854527832,"train",15120.0,"2021-11-25 00:20:39.266671","","","","","","",""
14.0,0.03958289697766304,0.0019829093515627634,"train",15140.0,"2021-11-25 00:20:43.098126","","","","","","",""
14.0,0.042706262320280075,0.001983605572956358,"train",15160.0,"2021-11-25 00:20:46.577055","","","","","","",""
14.0,0.09055352210998535,0.001984287439041775,"train",15180.0,"2021-11-25 00:20:50.046493","","","","","","",""
14.0,0.05625276640057564,0.001984954939445616,"train",15200.0,"2021-11-25 00:20:53.846135","","","","","","",""
14.0,0.04282441735267639,0.0019856080640130295,"train",15220.0,"2021-11-25 00:20:57.303719","","","","","","",""
14.0,0.05304677039384842,0.0019862468028078676,"train",15240.0,"2021-11-25 00:21:00.806609","","","","","","",""
14.0,0.06003430485725403,0.001986871146112837,"train",15260.0,"2021-11-25 00:21:04.702824","","","","","","",""
14.0,0.042582917958498,0.0019874810844296466,"train",15280.0,"2021-11-25 00:21:08.193296","","","","","","",""
14.0,0.06903205066919327,0.0019880766084791517,"train",15300.0,"2021-11-25 00:21:11.632980","","","","","","",""
14.0,0.03722315654158592,0.0019886577092014953,"train",15320.0,"2021-11-25 00:21:15.521667","","","","","","",""
14.0,0.04432697594165802,0.001989224377756247,"train",15340.0,"2021-11-25 00:21:19.014019","","","","","","",""
14.0,0.0360930860042572,0.0019897766055225353,"train",15360.0,"2021-11-25 00:21:22.555824","","","","","","",""
14.0,0.02779223769903183,0.0019903143840991813,"train",15380.0,"2021-11-25 00:21:26.441793","","","","","","",""
14.0,0.041365861892700195,0.0019908377053048246,"train",15400.0,"2021-11-25 00:21:29.961979","","","","","","",""
14.0,0.08191615343093872,0.001991346561178048,"train",15420.0,"2021-11-25 00:21:33.520305","","","","","","",""
14.0,0.08239569514989853,0.0019918409439775003,"train",15440.0,"2021-11-25 00:21:37.382244","","","","","","",""
14.0,0.06936856359243393,0.0019923208461820117,"train",15460.0,"2021-11-25 00:21:40.878171","","","","","","",""
14.0,0.03877847269177437,0.001992786260490709,"train",15480.0,"2021-11-25 00:21:44.310357","","","","","","",""
14.0,0.04616273567080498,0.0019932371798231287,"train",15500.0,"2021-11-25 00:21:48.138259","","","","","","",""
14.0,0.046111274510622025,0.0019936735973193212,"train",15520.0,"2021-11-25 00:21:51.686586","","","","","","",""
14.0,0.03991275653243065,0.001994095506339958,"train",15540.0,"2021-11-25 00:21:55.228953","","","","","","",""
14.0,0.057768162339925766,0.001994502900466431,"train",15560.0,"2021-11-25 00:21:59.110957","","","","","","",""
14.0,0.04708406329154968,0.0019948957735009517,"train",15580.0,"2021-11-25 00:22:02.671626","","","","","","",""
14.0,0.07049384713172913,0.0019952741194666436,"train",15600.0,"2021-11-25 00:22:06.229288","","","","","","",""
14.0,0.060813795775175095,0.0019956379326076354,"train",15620.0,"2021-11-25 00:22:10.235980","","","","","","",""
14.0,0.04066081345081329,0.001995987207389146,"train",15640.0,"2021-11-25 00:22:13.795137","","","","","","",""
14.0,0.06595946848392487,0.0019963219384975706,"train",15660.0,"2021-11-25 00:22:17.354135","","","","","","",""
14.0,0.06572815030813217,0.001996642120840561,"train",15680.0,"2021-11-25 00:22:21.289399","","","","","","",""
14.0,0.057653479278087616,0.001996947749547103,"train",15700.0,"2021-11-25 00:22:24.843994","","","","","","",""
14.0,0.030952291563153267,0.0019972388199675905,"train",15720.0,"2021-11-25 00:22:28.384524","","","","","","",""
14.0,0.03260461613535881,0.001997515327673896,"train",15740.0,"2021-11-25 00:22:32.288801","","","","","","",""
14.0,0.03902425244450569,0.0019977772684594388,"train",15760.0,"2021-11-25 00:22:35.867750","","","","","","",""
14.0,0.06261570006608963,0.0019980246383392475,"train",15780.0,"2021-11-25 00:22:39.392561","","","","","","",""
14.0,0.04903987795114517,0.0019982574335500225,"train",15800.0,"2021-11-25 00:22:43.195590","","","","","","",""
14.0,0.03792713209986687,0.001998475650550192,"train",15820.0,"2021-11-25 00:22:46.665970","","","","","","",""
14.0,0.04120612144470215,0.0019986792860199657,"train",15840.0,"2021-11-25 00:22:50.123236","","","","","","",""
14.0,0.042905744165182114,0.001998868336861386,"train",15860.0,"2021-11-25 00:22:53.927733","","","","","","",""
14.0,0.06700059026479721,0.001999042800198376,"train",15880.0,"2021-11-25 00:22:57.362402","","","","","","",""
14.0,0.045907288789749146,0.00199920267337678,"train",15900.0,"2021-11-25 00:23:00.802411","","","","","","",""
14.0,0.049067601561546326,0.0019993479539644077,"train",15920.0,"2021-11-25 00:23:04.595454","","","","","","",""
14.0,0.04689544439315796,0.0019994786397510697,"train",15940.0,"2021-11-25 00:23:08.029917","","","","","","",""
14.0,0.032993488013744354,0.0019995947287486096,"train",15960.0,"2021-11-25 00:23:11.484845","","","","","","",""
14.0,0.047464676201343536,0.0019996962191909367,"train",15980.0,"2021-11-25 00:23:15.317072","","","","","","",""
14.0,0.06295931339263916,0.0019997831095340513,"train",16000.0,"2021-11-25 00:23:18.764474","","","","","","",""
14.0,0.035512059926986694,0.001999855398456069,"train",16020.0,"2021-11-25 00:23:22.170913","","","","","","",""
14.0,0.05867669731378555,0.00199991308485724,"train",16040.0,"2021-11-25 00:23:26.024700","","","","","","",""
14.0,0.0471465140581131,0.001999956167859967,"train",16060.0,"2021-11-25 00:23:29.563921","","","","","","",""
14.0,0.033961232751607895,0.0019999846468088172,"train",16080.0,"2021-11-25 00:23:32.998571","","","","","","",""
14.0,0.0795995369553566,0.0019999985212705335,"train",16100.0,"2021-11-25 00:23:36.816135","","","","","","",""
14.0,"","","train",16110.0,"2021-11-25 00:25:19.409240",0.6652841446554609,0.7505170568779168,0.9809367986802703,0.714594870747853,0.641923542301249,0.6671174097422832,0.44628983918766624
14.0,"","","val",16110.0,"2021-11-25 00:25:45.800400",0.6142873709845761,0.6373914828322265,0.9626670912480446,0.6529853887990051,0.5609669756945077,0.5838515900478802,0.3688423974741651
15.0,0.042749278247356415,0.0019999995774202316,"train",16120.0,"2021-11-25 00:25:49.819802","","","","","","",""
15.0,0.03936760500073433,0.0019999966438102564,"train",16140.0,"2021-11-25 00:25:53.266808","","","","","","",""
15.0,0.036362506449222565,0.0019999909162942875,"train",16160.0,"2021-11-25 00:25:57.161563","","","","","","",""
15.0,0.06530630588531494,0.001999982394888327,"train",16180.0,"2021-11-25 00:26:00.624265","","","","","","",""
15.0,0.03403943032026291,0.0019999710796161823,"train",16200.0,"2021-11-25 00:26:04.090808","","","","","","",""
15.0,0.07901566475629807,0.0019999569705094686,"train",16220.0,"2021-11-25 00:26:07.959866","","","","","","",""
15.0,0.06598176807165146,0.001999940067607605,"train",16240.0,"2021-11-25 00:26:11.493977","","","","","","",""
15.0,0.05490857735276222,0.001999920370957817,"train",16260.0,"2021-11-25 00:26:15.029630","","","","","","",""
15.0,0.059573981910943985,0.0019998978806151355,"train",16280.0,"2021-11-25 00:26:19.015816","","","","","","",""
15.0,0.05702488124370575,0.0019998725966423976,"train",16300.0,"2021-11-25 00:26:22.546841","","","","","","",""
15.0,0.05189014598727226,0.001999844519110244,"train",16320.0,"2021-11-25 00:26:26.025880","","","","","","",""
15.0,0.03818396478891373,0.001999813648097122,"train",16340.0,"2021-11-25 00:26:29.977123","","","","","","",""
15.0,0.0507144033908844,0.001999779983689282,"train",16360.0,"2021-11-25 00:26:33.628992","","","","","","",""
15.0,0.06372702121734619,0.0019997435259807806,"train",16380.0,"2021-11-25 00:26:37.278377","","","","","","",""
15.0,0.07092266529798508,0.001999704275073478,"train",16400.0,"2021-11-25 00:26:41.282815","","","","","","",""
15.0,0.05020966753363609,0.0019996622310770383,"train",16420.0,"2021-11-25 00:26:44.819618","","","","","","",""
15.0,0.03683905676007271,0.0019996173941089286,"train",16440.0,"2021-11-25 00:26:48.374743","","","","","","",""
15.0,0.06499280035495758,0.0019995697642944212,"train",16460.0,"2021-11-25 00:26:52.313107","","","","","","",""
15.0,0.043451614677906036,0.0019995193417665894,"train",16480.0,"2021-11-25 00:26:55.715775","","","","","","",""
15.0,0.032302308827638626,0.0019994661266663108,"train",16500.0,"2021-11-25 00:26:59.120729","","","","","","",""
15.0,0.0582660548388958,0.001999410119142264,"train",16520.0,"2021-11-25 00:27:02.834086","","","","","","",""
15.0,0.06047055497765541,0.0019993513193509297,"train",16540.0,"2021-11-25 00:27:06.230587","","","","","","",""
15.0,0.04076718911528587,0.0019992897274565906,"train",16560.0,"2021-11-25 00:27:09.737450","","","","","","",""
15.0,0.08026541769504547,0.0019992253436313303,"train",16580.0,"2021-11-25 00:27:13.579053","","","","","","",""
15.0,0.07289856672286987,0.0019991581680550313,"train",16600.0,"2021-11-25 00:27:17.106536","","","","","","",""
15.0,0.03558555990457535,0.0019990882009153785,"train",16620.0,"2021-11-25 00:27:20.588973","","","","","","",""
15.0,0.033311162143945694,0.001999015442407854,"train",16640.0,"2021-11-25 00:27:24.436321","","","","","","",""
15.0,0.07155552506446838,0.0019989398927357403,"train",16660.0,"2021-11-25 00:27:27.953139","","","","","","",""
15.0,0.08716439455747604,0.0019988615521101174,"train",16680.0,"2021-11-25 00:27:31.497323","","","","","","",""
15.0,0.0272102989256382,0.0019987804207498637,"train",16700.0,"2021-11-25 00:27:35.429994","","","","","","",""
15.0,0.04016026481986046,0.0019986964988816533,"train",16720.0,"2021-11-25 00:27:38.993374","","","","","","",""
15.0,0.04551950842142105,0.0019986097867399585,"train",16740.0,"2021-11-25 00:27:42.550034","","","","","","",""
15.0,0.0326433964073658,0.0019985202845670463,"train",16760.0,"2021-11-25 00:27:46.502885","","","","","","",""
15.0,0.04513922333717346,0.0019984279926129798,"train",16780.0,"2021-11-25 00:27:50.029013","","","","","","",""
15.0,0.029626838862895966,0.001998332911135615,"train",16800.0,"2021-11-25 00:27:53.531176","","","","","","",""
15.0,0.05884477123618126,0.0019982350404006036,"train",16820.0,"2021-11-25 00:27:57.413959","","","","","","",""
15.0,0.0518663115799427,0.0019981343806813883,"train",16840.0,"2021-11-25 00:28:00.895698","","","","","","",""
15.0,0.03855959698557854,0.001998030932259205,"train",16860.0,"2021-11-25 00:28:04.377614","","","","","","",""
15.0,0.03344422206282616,0.0019979246954230823,"train",16880.0,"2021-11-25 00:28:08.263347","","","","","","",""
15.0,0.0558936782181263,0.0019978156704698363,"train",16900.0,"2021-11-25 00:28:11.806773","","","","","","",""
15.0,0.04577883705496788,0.001997703857704076,"train",16920.0,"2021-11-25 00:28:15.350726","","","","","","",""
15.0,0.03726138919591904,0.0019975892574381976,"train",16940.0,"2021-11-25 00:28:19.234714","","","","","","",""
15.0,0.0850665494799614,0.001997471869992386,"train",16960.0,"2021-11-25 00:28:22.697781","","","","","","",""
15.0,0.035106856375932693,0.0019973516956946127,"train",16980.0,"2021-11-25 00:28:26.111479","","","","","","",""
15.0,0.0324447825551033,0.0019972287348806366,"train",17000.0,"2021-11-25 00:28:29.890597","","","","","","",""
15.0,0.038662731647491455,0.0019971029878940003,"train",17020.0,"2021-11-25 00:28:33.339801","","","","","","",""
15.0,0.06182635948061943,0.0019969744550860317,"train",17040.0,"2021-11-25 00:28:36.794687","","","","","","",""
15.0,0.037380099296569824,0.0019968431368158433,"train",17060.0,"2021-11-25 00:28:40.602214","","","","","","",""
15.0,0.044221214950084686,0.001996709033450327,"train",17080.0,"2021-11-25 00:28:44.104608","","","","","","",""
15.0,0.04029987379908562,0.0019965721453641585,"train",17100.0,"2021-11-25 00:28:47.541310","","","","","","",""
15.0,0.030840661376714706,0.0019964324729397935,"train",17120.0,"2021-11-25 00:28:51.305321","","","","","","",""
15.0,0.07381147891283035,0.0019962900165674657,"train",17140.0,"2021-11-25 00:28:54.769645","","","","","","",""
15.0,0.07293341308832169,0.0019961447766451887,"train",17160.0,"2021-11-25 00:28:58.294435","","","","","","",""
15.0,0.048217520117759705,0.001995996753578751,"train",17180.0,"2021-11-25 00:29:02.138065","","","","","","",""
15.0,"","","train",17184.0,"2021-11-25 00:30:44.359597",0.6764461907880376,0.7729573546137488,0.983201715402958,0.7230815757967134,0.6443623813638497,0.6694734699627479,0.4601255887893107
15.0,"","","val",17184.0,"2021-11-25 00:31:10.717618",0.6183462831961034,0.6488003551027881,0.9648185243275412,0.6545730762976238,0.5662447004643341,0.5856052737433826,0.37983610048836647
16.0,0.03591392561793327,0.001995845947781719,"train",17200.0,"2021-11-25 00:31:15.774889","","","","","","",""
16.0,0.03964661434292793,0.001995692359675433,"train",17220.0,"2021-11-25 00:31:19.317086","","","","","","",""
16.0,0.07863163203001022,0.0019955359896890066,"train",17240.0,"2021-11-25 00:31:22.879433","","","","","","",""
16.0,0.052119798958301544,0.0019953768382593258,"train",17260.0,"2021-11-25 00:31:26.899322","","","","","","",""
16.0,0.03741462901234627,0.0019952149058310486,"train",17280.0,"2021-11-25 00:31:30.497282","","","","","","",""
16.0,0.032568562775850296,0.001995050192856602,"train",17300.0,"2021-11-25 00:31:34.010970","","","","","","",""
16.0,0.044220101088285446,0.001994882699796182,"train",17320.0,"2021-11-25 00:31:37.799941","","","","","","",""
16.0,0.037086039781570435,0.001994712427117752,"train",17340.0,"2021-11-25 00:31:41.214893","","","","","","",""
16.0,0.02703108824789524,0.0019945393752970413,"train",17360.0,"2021-11-25 00:31:44.744403","","","","","","",""
16.0,0.03989500552415848,0.001994363544817544,"train",17380.0,"2021-11-25 00:31:48.621140","","","","","","",""
16.0,0.055369243025779724,0.001994184936170517,"train",17400.0,"2021-11-25 00:31:52.094759","","","","","","",""
16.0,0.04936676844954491,0.0019940035498549804,"train",17420.0,"2021-11-25 00:31:55.610301","","","","","","",""
16.0,0.06828316301107407,0.0019938193863777145,"train",17440.0,"2021-11-25 00:31:59.525058","","","","","","",""
16.0,0.04206635430455208,0.001993632446253258,"train",17460.0,"2021-11-25 00:32:03.080360","","","","","","",""
16.0,0.06306348741054535,0.0019934427300039074,"train",17480.0,"2021-11-25 00:32:06.630308","","","","","","",""
16.0,0.03223911300301552,0.001993250238159717,"train",17500.0,"2021-11-25 00:32:10.630273","","","","","","",""
16.0,0.07653699815273285,0.0019930549712584944,"train",17520.0,"2021-11-25 00:32:14.215780","","","","","","",""
16.0,0.03853534907102585,0.001992856929845801,"train",17540.0,"2021-11-25 00:32:17.770922","","","","","","",""
16.0,0.046525683254003525,0.0019926561144749497,"train",17560.0,"2021-11-25 00:32:21.750364","","","","","","",""
16.0,0.06654255092144012,0.001992452525707004,"train",17580.0,"2021-11-25 00:32:25.308671","","","","","","",""
16.0,0.05384131893515587,0.0019922461641107767,"train",17600.0,"2021-11-25 00:32:28.860141","","","","","","",""
16.0,0.04602533206343651,0.001992037030262826,"train",17620.0,"2021-11-25 00:32:32.775140","","","","","","",""
16.0,0.0793987289071083,0.0019918251247474567,"train",17640.0,"2021-11-25 00:32:36.342886","","","","","","",""
16.0,0.03583408147096634,0.001991610448156718,"train",17660.0,"2021-11-25 00:32:39.918622","","","","","","",""
16.0,0.04208947345614433,0.0019913930010903996,"train",17680.0,"2021-11-25 00:32:43.841065","","","","","","",""
16.0,0.035376183688640594,0.001991172784156033,"train",17700.0,"2021-11-25 00:32:47.376094","","","","","","",""
16.0,0.04496122524142265,0.0019909497979688877,"train",17720.0,"2021-11-25 00:32:50.960372","","","","","","",""
16.0,0.03409591689705849,0.0019907240431519713,"train",17740.0,"2021-11-25 00:32:54.941213","","","","","","",""
16.0,0.05009111762046814,0.001990495520336026,"train",17760.0,"2021-11-25 00:32:58.511865","","","","","","",""
16.0,0.06290841102600098,0.0019902642301595284,"train",17780.0,"2021-11-25 00:33:01.857175","","","","","","",""
16.0,0.045593637973070145,0.001990030173268685,"train",17800.0,"2021-11-25 00:33:05.676916","","","","","","",""
16.0,0.05550836771726608,0.0019897933503174345,"train",17820.0,"2021-11-25 00:33:09.098475","","","","","","",""
16.0,0.03922553360462189,0.0019895537619674425,"train",17840.0,"2021-11-25 00:33:12.517280","","","","","","",""
16.0,0.053448889404535294,0.001989311408888101,"train",17860.0,"2021-11-25 00:33:16.316530","","","","","","",""
16.0,0.033038754016160965,0.001989066291756527,"train",17880.0,"2021-11-25 00:33:19.742619","","","","","","",""
16.0,0.042017873376607895,0.00198881841125756,"train",17900.0,"2021-11-25 00:33:23.159725","","","","","","",""
16.0,0.04729543998837471,0.0019885677680837595,"train",17920.0,"2021-11-25 00:33:26.994027","","","","","","",""
16.0,0.07889201492071152,0.001988314362935404,"train",17940.0,"2021-11-25 00:33:30.544550","","","","","","",""
16.0,0.05521819368004799,0.0019880581965204896,"train",17960.0,"2021-11-25 00:33:34.094952","","","","","","",""
16.0,0.032618649303913116,0.0019877992695547255,"train",17980.0,"2021-11-25 00:33:37.963218","","","","","","",""
16.0,0.047512054443359375,0.0019875375827615354,"train",18000.0,"2021-11-25 00:33:41.474176","","","","","","",""
16.0,0.04088445380330086,0.0019872731368720527,"train",18020.0,"2021-11-25 00:33:44.994346","","","","","","",""
16.0,0.04734218120574951,0.00198700593262512,"train",18040.0,"2021-11-25 00:33:48.882596","","","","","","",""
16.0,0.03902125358581543,0.001986735970767286,"train",18060.0,"2021-11-25 00:33:52.423733","","","","","","",""
16.0,0.04588627070188522,0.001986463252052804,"train",18080.0,"2021-11-25 00:33:55.895583","","","","","","",""
16.0,0.04134373739361763,0.0019861877772436305,"train",18100.0,"2021-11-25 00:33:59.706441","","","","","","",""
16.0,0.07475197315216064,0.001985909547109422,"train",18120.0,"2021-11-25 00:34:03.216343","","","","","","",""
16.0,0.057376231998205185,0.001985628562427533,"train",18140.0,"2021-11-25 00:34:06.705948","","","","","","",""
16.0,0.05309680476784706,0.001985344823983014,"train",18160.0,"2021-11-25 00:34:10.527529","","","","","","",""
16.0,0.048325035721063614,0.001985058332568609,"train",18180.0,"2021-11-25 00:34:14.000186","","","","","","",""
16.0,0.03253360465168953,0.001984769088984755,"train",18200.0,"2021-11-25 00:34:17.442091","","","","","","",""
16.0,0.03809719532728195,0.001984477094039576,"train",18220.0,"2021-11-25 00:34:21.331443","","","","","","",""
16.0,0.027460116893053055,0.001984182348548885,"train",18240.0,"2021-11-25 00:34:24.815906","","","","","","",""
16.0,"","","train",18258.0,"2021-11-25 00:36:08.355937",0.6908971840209561,0.7828539964628652,0.9843570361483316,0.7335361733137616,0.6507104819422415,0.6819255541104515,0.47120103838093047
16.0,"","","val",18258.0,"2021-11-25 00:36:34.684783",0.6240287602922416,0.6489832304542917,0.965254347851139,0.6587426944410295,0.561967861082507,0.5852440992425135,0.3816204388438538
17.0,0.03331681340932846,0.00198388485333618,"train",18260.0,"2021-11-25 00:36:37.380476","","","","","","",""
17.0,0.06844137609004974,0.0019835846092326396,"train",18280.0,"2021-11-25 00:36:41.319263","","","","","","",""
17.0,0.06905118376016617,0.0019832816170771246,"train",18300.0,"2021-11-25 00:36:44.844996","","","","","","",""
17.0,0.051161255687475204,0.001982975877716172,"train",18320.0,"2021-11-25 00:36:48.306662","","","","","","",""
17.0,0.055244941264390945,0.0019826673920039957,"train",18340.0,"2021-11-25 00:36:52.092426","","","","","","",""
17.0,0.05552331358194351,0.0019823561608024822,"train",18360.0,"2021-11-25 00:36:55.556875","","","","","","",""
17.0,0.06466111540794373,0.0019820421849811886,"train",18380.0,"2021-11-25 00:36:59.114970","","","","","","",""
17.0,0.058100465685129166,0.0019817254654173402,"train",18400.0,"2021-11-25 00:37:03.015950","","","","","","",""
17.0,0.050240952521562576,0.0019814060029958278,"train",18420.0,"2021-11-25 00:37:06.595168","","","","","","",""
17.0,0.039251960813999176,0.001981083798609206,"train",18440.0,"2021-11-25 00:37:10.191010","","","","","","",""
17.0,0.03314092755317688,0.0019807588531576908,"train",18460.0,"2021-11-25 00:37:14.318344","","","","","","",""
17.0,0.04010150954127312,0.0019804311675491555,"train",18480.0,"2021-11-25 00:37:17.891236","","","","","","",""
17.0,0.041249360889196396,0.00198010074269913,"train",18500.0,"2021-11-25 00:37:21.455182","","","","","","",""
17.0,0.025626741349697113,0.0019797675795307965,"train",18520.0,"2021-11-25 00:37:25.513603","","","","","","",""
17.0,0.034681227058172226,0.0019794316789749885,"train",18540.0,"2021-11-25 00:37:28.941639","","","","","","",""
17.0,0.09531842172145844,0.0019790930419701877,"train",18560.0,"2021-11-25 00:37:32.288086","","","","","","",""
17.0,0.03630663454532623,0.0019787516694625214,"train",18580.0,"2021-11-25 00:37:36.132390","","","","","","",""
17.0,0.03319157287478447,0.0019784075624057584,"train",18600.0,"2021-11-25 00:37:39.448174","","","","","","",""
17.0,0.08187323808670044,0.0019780607217613094,"train",18620.0,"2021-11-25 00:37:42.784055","","","","","","",""
17.0,0.026099253445863724,0.001977711148498221,"train",18640.0,"2021-11-25 00:37:46.613514","","","","","","",""
17.0,0.06029779091477394,0.0019773588435931756,"train",18660.0,"2021-11-25 00:37:49.867008","","","","","","",""
17.0,0.03382418677210808,0.0019770038080304873,"train",18680.0,"2021-11-25 00:37:53.123823","","","","","","",""
17.0,0.051136564463377,0.001976646042802099,"train",18700.0,"2021-11-25 00:37:56.951817","","","","","","",""
17.0,0.02979825623333454,0.0019762855489075808,"train",18720.0,"2021-11-25 00:38:00.479767","","","","","","",""
17.0,0.04000416770577431,0.001975922327354126,"train",18740.0,"2021-11-25 00:38:04.045251","","","","","","",""
17.0,0.025790633633732796,0.001975556379156549,"train",18760.0,"2021-11-25 00:38:08.109502","","","","","","",""
17.0,0.0452907532453537,0.0019751877053372823,"train",18780.0,"2021-11-25 00:38:11.673588","","","","","","",""
17.0,0.050615645945072174,0.001974816306926373,"train",18800.0,"2021-11-25 00:38:15.192034","","","","","","",""
17.0,0.08194031566381454,0.001974442184961482,"train",18820.0,"2021-11-25 00:38:19.254457","","","","","","",""
17.0,0.062281981110572815,0.0019740653404878776,"train",18840.0,"2021-11-25 00:38:22.798434","","","","","","",""
17.0,0.06940622627735138,0.0019736857745584362,"train",18860.0,"2021-11-25 00:38:26.346630","","","","","","",""
17.0,0.07368367910385132,0.0019733034882336367,"train",18880.0,"2021-11-25 00:38:29.830959","","","","","","",""
17.0,0.06093836575746536,0.0019729184825815586,"train",18900.0,"2021-11-25 00:38:33.822727","","","","","","",""
17.0,0.05121529474854469,0.0019725307586778806,"train",18920.0,"2021-11-25 00:38:37.315351","","","","","","",""
17.0,0.04678908362984657,0.001972140317605874,"train",18940.0,"2021-11-25 00:38:40.828245","","","","","","",""
17.0,0.05658610165119171,0.0019717471604564028,"train",18960.0,"2021-11-25 00:38:44.802525","","","","","","",""
17.0,0.03943286091089249,0.0019713512883279185,"train",18980.0,"2021-11-25 00:38:48.282723","","","","","","",""
17.0,0.05694940686225891,0.00197095270232646,"train",19000.0,"2021-11-25 00:38:51.747511","","","","","","",""
17.0,0.031114840880036354,0.001970551403565646,"train",19020.0,"2021-11-25 00:38:55.706694","","","","","","",""
17.0,0.04861602187156677,0.0019701473931666765,"train",19040.0,"2021-11-25 00:38:59.196872","","","","","","",""
17.0,0.045044973492622375,0.001969740672258327,"train",19060.0,"2021-11-25 00:39:02.731125","","","","","","",""
17.0,0.041439395397901535,0.0019693312419769454,"train",19080.0,"2021-11-25 00:39:06.730370","","","","","","",""
17.0,0.06531526893377304,0.0019689191034664498,"train",19100.0,"2021-11-25 00:39:10.198298","","","","","","",""
17.0,0.06916914880275726,0.0019685042578783257,"train",19120.0,"2021-11-25 00:39:13.651182","","","","","","",""
17.0,0.05040603503584862,0.00196808670637162,"train",19140.0,"2021-11-25 00:39:17.639173","","","","","","",""
17.0,0.05498576536774635,0.001967666450112942,"train",19160.0,"2021-11-25 00:39:21.090704","","","","","","",""
17.0,0.03387188911437988,0.001967243490276456,"train",19180.0,"2021-11-25 00:39:24.624541","","","","","","",""
17.0,0.03444750979542732,0.0019668178280438818,"train",19200.0,"2021-11-25 00:39:28.598924","","","","","","",""
17.0,0.04569371044635773,0.0019663894646044875,"train",19220.0,"2021-11-25 00:39:32.094397","","","","","","",""
17.0,0.05351902171969414,0.001965958401155089,"train",19240.0,"2021-11-25 00:39:35.693556","","","","","","",""
17.0,0.045991964638233185,0.0019655246389000463,"train",19260.0,"2021-11-25 00:39:39.664362","","","","","","",""
17.0,0.03683389350771904,0.0019650881790512597,"train",19280.0,"2021-11-25 00:39:43.134590","","","","","","",""
17.0,0.05205219238996506,0.001964649022828165,"train",19300.0,"2021-11-25 00:39:46.588815","","","","","","",""
17.0,0.053404342383146286,0.0019642071714577325,"train",19320.0,"2021-11-25 00:39:50.576862","","","","","","",""
17.0,"","","train",19332.0,"2021-11-25 00:41:32.868482",0.697591501127847,0.7960165675168154,0.9855776516808017,0.7479688950219892,0.6825666155568475,0.7112115038007476,0.49482790945096633
17.0,"","","val",19332.0,"2021-11-25 00:41:59.275868",0.6278557346631103,0.6509642969053522,0.9644687606436594,0.6706231742273886,0.5838783633363317,0.6058062469048299,0.39415564972306877
18.0,0.05805978178977966,0.0019637626261744634,"train",19340.0,"2021-11-25 00:42:02.960730","","","","","","",""
18.0,0.05844920501112938,0.001963315388220384,"train",19360.0,"2021-11-25 00:42:06.485785","","","","","","",""
18.0,0.03542550280690193,0.0019628654588450443,"train",19380.0,"2021-11-25 00:42:10.522523","","","","","","",""
18.0,0.07329732179641724,0.001962412839305514,"train",19400.0,"2021-11-25 00:42:14.057541","","","","","","",""
18.0,0.05514884740114212,0.0019619575308663785,"train",19420.0,"2021-11-25 00:42:17.621118","","","","","","",""
18.0,0.05827027186751366,0.001961499534799737,"train",19440.0,"2021-11-25 00:42:21.447479","","","","","","",""
18.0,0.07825984805822372,0.001961038852385196,"train",19460.0,"2021-11-25 00:42:24.931008","","","","","","",""
18.0,0.0435660257935524,0.0019605754849098683,"train",19480.0,"2021-11-25 00:42:28.470373","","","","","","",""
18.0,0.05278701335191727,0.0019601094336683693,"train",19500.0,"2021-11-25 00:42:32.389966","","","","","","",""
18.0,0.061006978154182434,0.0019596406999628116,"train",19520.0,"2021-11-25 00:42:36.040151","","","","","","",""
18.0,0.051053084433078766,0.0019591692851028022,"train",19540.0,"2021-11-25 00:42:39.643899","","","","","","",""
18.0,0.04069473221898079,0.001958695190405441,"train",19560.0,"2021-11-25 00:42:43.598862","","","","","","",""
18.0,0.02884175255894661,0.001958218417195312,"train",19580.0,"2021-11-25 00:42:47.211445","","","","","","",""
18.0,0.05449539050459862,0.001957738966804486,"train",19600.0,"2021-11-25 00:42:50.762517","","","","","","",""
18.0,0.057598259299993515,0.001957256840572511,"train",19620.0,"2021-11-25 00:42:54.671497","","","","","","",""
18.0,0.03418143093585968,0.0019567720398464133,"train",19640.0,"2021-11-25 00:42:58.175481","","","","","","",""
18.0,0.037757616490125656,0.00195628456598069,"train",19660.0,"2021-11-25 00:43:01.706116","","","","","","",""
18.0,0.030186545103788376,0.001955794420337307,"train",19680.0,"2021-11-25 00:43:05.642967","","","","","","",""
18.0,0.040381304919719696,0.0019553016042856957,"train",19700.0,"2021-11-25 00:43:09.189069","","","","","","",""
18.0,0.04714922979474068,0.001954806119202748,"train",19720.0,"2021-11-25 00:43:12.862887","","","","","","",""
18.0,0.055595431476831436,0.001954307966472812,"train",19740.0,"2021-11-25 00:43:16.937895","","","","","","",""
18.0,0.03686751797795296,0.0019538071474876914,"train",19760.0,"2021-11-25 00:43:20.532589","","","","","","",""
18.0,0.054653018712997437,0.001953303663646636,"train",19780.0,"2021-11-25 00:43:24.126331","","","","","","",""
18.0,0.03012235276401043,0.0019527975163563436,"train",19800.0,"2021-11-25 00:43:28.078095","","","","","","",""
18.0,0.02526484802365303,0.0019522887070309524,"train",19820.0,"2021-11-25 00:43:31.706788","","","","","","",""
18.0,0.06645075976848602,0.0019517772370920379,"train",19840.0,"2021-11-25 00:43:35.322080","","","","","","",""
18.0,0.05100526288151741,0.0019512631079686104,"train",19860.0,"2021-11-25 00:43:39.265538","","","","","","",""
18.0,0.0488366037607193,0.001950746321097108,"train",19880.0,"2021-11-25 00:43:42.863533","","","","","","",""
18.0,0.05633186548948288,0.0019502268779213957,"train",19900.0,"2021-11-25 00:43:46.318122","","","","","","",""
18.0,0.03307250514626503,0.0019497047798927598,"train",19920.0,"2021-11-25 00:43:50.136949","","","","","","",""
18.0,0.0405111238360405,0.001949180028469903,"train",19940.0,"2021-11-25 00:43:53.634024","","","","","","",""
18.0,0.04177216440439224,0.0019486526251189435,"train",19960.0,"2021-11-25 00:43:57.110237","","","","","","",""
18.0,0.036288224160671234,0.0019481225713134064,"train",19980.0,"2021-11-25 00:44:00.980235","","","","","","",""
18.0,0.07164813578128815,0.0019475898685342235,"train",20000.0,"2021-11-25 00:44:04.499993","","","","","","",""
18.0,0.020242664963006973,0.0019470545182697272,"train",20020.0,"2021-11-25 00:44:08.089291","","","","","","",""
18.0,0.05388147756457329,0.001946516522015647,"train",20040.0,"2021-11-25 00:44:12.094890","","","","","","",""
18.0,0.06481742113828659,0.0019459758812751047,"train",20060.0,"2021-11-25 00:44:15.653063","","","","","","",""
18.0,0.02437036670744419,0.0019454325975586106,"train",20080.0,"2021-11-25 00:44:19.140121","","","","","","",""
18.0,0.04669683054089546,0.0019448866723840602,"train",20100.0,"2021-11-25 00:44:23.005124","","","","","","",""
18.0,0.061155762523412704,0.001944338107276728,"train",20120.0,"2021-11-25 00:44:26.579714","","","","","","",""
18.0,0.08262549340724945,0.0019437869037692644,"train",20140.0,"2021-11-25 00:44:30.136449","","","","","","",""
18.0,0.03523252159357071,0.0019432330634016912,"train",20160.0,"2021-11-25 00:44:33.994978","","","","","","",""
18.0,0.04217572137713432,0.0019426765877213986,"train",20180.0,"2021-11-25 00:44:37.588770","","","","","","",""
18.0,0.043169207870960236,0.0019421174782831383,"train",20200.0,"2021-11-25 00:44:41.231012","","","","","","",""
18.0,0.03483828529715538,0.0019415557366490208,"train",20220.0,"2021-11-25 00:44:44.804899","","","","","","",""
