"epoch","loss","lr","part","step","time","accuracy","auprc","auroc","challenge_metric","f_beta_measure","f_measure","g_beta_measure"
0.0,0.378002405166626,8.000730236035311e-05,"train",20.0,"2021-11-30 12:59:09.604428","","","","","","",""
0.0,0.13610640168190002,8.002920933031948e-05,"train",40.0,"2021-11-30 12:59:13.565331","","","","","","",""
0.0,0.15891189873218536,8.006572057662293e-05,"train",60.0,"2021-11-30 12:59:17.567313","","","","","","",""
0.0,0.13957896828651428,8.011683554380914e-05,"train",80.0,"2021-11-30 12:59:21.942673","","","","","","",""
0.0,0.13316713273525238,8.018255345425274e-05,"train",100.0,"2021-11-30 12:59:25.968206","","","","","","",""
0.0,0.12538452446460724,8.026287330817079e-05,"train",120.0,"2021-11-30 12:59:29.966805","","","","","","",""
0.0,0.13808980584144592,8.03577938836373e-05,"train",140.0,"2021-11-30 12:59:34.345380","","","","","","",""
0.0,0.1428072303533554,8.04673137366021e-05,"train",160.0,"2021-11-30 12:59:38.313797","","","","","","",""
0.0,0.13976961374282837,8.059143120091187e-05,"train",180.0,"2021-11-30 12:59:42.269341","","","","","","",""
0.0,0.1611633002758026,8.073014438833613e-05,"train",200.0,"2021-11-30 12:59:46.736761","","","","","","",""
0.0,0.14065785706043243,8.088345118859724e-05,"train",220.0,"2021-11-30 12:59:50.711280","","","","","","",""
0.0,0.15478633344173431,8.10513492693996e-05,"train",240.0,"2021-11-30 12:59:54.683962","","","","","","",""
0.0,0.15018640458583832,8.123383607646804e-05,"train",260.0,"2021-11-30 12:59:59.097022","","","","","","",""
0.0,0.14724448323249817,8.143090883358495e-05,"train",280.0,"2021-11-30 13:00:03.158744","","","","","","",""
0.0,0.15608446300029755,8.164256454263295e-05,"train",300.0,"2021-11-30 13:00:07.193654","","","","","","",""
0.0,0.1363450437784195,8.186879998364088e-05,"train",320.0,"2021-11-30 13:00:11.591256","","","","","","",""
0.0,0.12225250899791718,8.210961171483213e-05,"train",340.0,"2021-11-30 13:00:15.593260","","","","","","",""
0.0,0.13601863384246826,8.236499607267717e-05,"train",360.0,"2021-11-30 13:00:19.577717","","","","","","",""
0.0,0.16289177536964417,8.26349491719505e-05,"train",380.0,"2021-11-30 13:00:24.004441","","","","","","",""
0.0,0.13728168606758118,8.291946690578713e-05,"train",400.0,"2021-11-30 13:00:28.153241","","","","","","",""
0.0,0.16195885837078094,8.321854494574774e-05,"train",420.0,"2021-11-30 13:00:32.240723","","","","","","",""
0.0,0.13208170235157013,8.353217874188293e-05,"train",440.0,"2021-11-30 13:00:36.600727","","","","","","",""
0.0,0.13963228464126587,8.38603635228035e-05,"train",460.0,"2021-11-30 13:00:40.614816","","","","","","",""
0.0,0.13398267328739166,8.420309429575212e-05,"train",480.0,"2021-11-30 13:00:44.719463","","","","","","",""
0.0,0.13449349999427795,8.456036584667914e-05,"train",500.0,"2021-11-30 13:00:49.337238","","","","","","",""
0.0,0.11554142832756042,8.493217274032315e-05,"train",520.0,"2021-11-30 13:00:53.266413","","","","","","",""
0.0,0.12291561812162399,8.531850932029235e-05,"train",540.0,"2021-11-30 13:00:57.275274","","","","","","",""
0.0,0.11570311337709427,8.571936970915212e-05,"train",560.0,"2021-11-30 13:01:01.643990","","","","","","",""
0.0,0.11809659749269485,8.613474780851246e-05,"train",580.0,"2021-11-30 13:01:05.666601","","","","","","",""
0.0,0.11359235644340515,8.656463729912224e-05,"train",600.0,"2021-11-30 13:01:09.655084","","","","","","",""
0.0,0.12894785404205322,8.700903164096468e-05,"train",620.0,"2021-11-30 13:01:14.014253","","","","","","",""
0.0,0.10058018565177917,8.746792407335769e-05,"train",640.0,"2021-11-30 13:01:18.068942","","","","","","",""
0.0,0.11404556781053543,8.794130761505497e-05,"train",660.0,"2021-11-30 13:01:22.102832","","","","","","",""
0.0,0.11786983907222748,8.842917506435462e-05,"train",680.0,"2021-11-30 13:01:26.494398","","","","","","",""
0.0,0.11986314505338669,8.893151899920645e-05,"train",700.0,"2021-11-30 13:01:30.673660","","","","","","",""
0.0,0.1415247768163681,8.944833177732632e-05,"train",720.0,"2021-11-30 13:01:34.715801","","","","","","",""
0.0,0.12061364948749542,8.997960553631186e-05,"train",740.0,"2021-11-30 13:01:39.103596","","","","","","",""
0.0,0.11060716211795807,9.052533219376224e-05,"train",760.0,"2021-11-30 13:01:43.146425","","","","","","",""
0.0,0.13643230497837067,9.108550344740104e-05,"train",780.0,"2021-11-30 13:01:47.238594","","","","","","",""
0.0,0.11591002345085144,9.166011077520208e-05,"train",800.0,"2021-11-30 13:01:51.781249","","","","","","",""
0.0,0.13349899649620056,9.224914543552059e-05,"train",820.0,"2021-11-30 13:01:55.848644","","","","","","",""
0.0,0.10389156639575958,9.285259846722417e-05,"train",840.0,"2021-11-30 13:01:59.885526","","","","","","",""
0.0,0.10872671008110046,9.34704606898307e-05,"train",860.0,"2021-11-30 13:02:04.295227","","","","","","",""
0.0,0.11931975185871124,9.410272270364735e-05,"train",880.0,"2021-11-30 13:02:08.278168","","","","","","",""
0.0,0.10419787466526031,9.474937488991348e-05,"train",900.0,"2021-11-30 13:02:12.214188","","","","","","",""
0.0,0.14562499523162842,9.541040741094719e-05,"train",920.0,"2021-11-30 13:02:16.617668","","","","","","",""
0.0,0.11140111088752747,9.608581021029522e-05,"train",940.0,"2021-11-30 13:02:20.662485","","","","","","",""
0.0,0.10396169126033783,9.677557301288509e-05,"train",960.0,"2021-11-30 13:02:24.634709","","","","","","",""
0.0,0.12473370879888535,9.747968532518238e-05,"train",980.0,"2021-11-30 13:02:28.957563","","","","","","",""
0.0,0.12511569261550903,9.819813643535029e-05,"train",1000.0,"2021-11-30 13:02:32.901063","","","","","","",""
0.0,0.10521282255649567,9.893091541341185e-05,"train",1020.0,"2021-11-30 13:02:36.863460","","","","","","",""
0.0,0.0881250873208046,9.967801111141644e-05,"train",1040.0,"2021-11-30 13:02:41.123376","","","","","","",""
0.0,0.1030837893486023,0.00010043941216361023,"train",1060.0,"2021-11-30 13:02:45.070234","","","","","","",""
0.0,"","","train",1074.0,"2021-11-30 13:04:29.985789",0.42495816051808194,0.2502187240367211,0.8073245511045682,0.3224393531736455,0.16443401489606618,0.15679054012123952,0.10893136892257838
0.0,"","","val",1074.0,"2021-11-30 13:04:58.268428",0.4197495071320886,0.24618440509146028,0.8054565079656152,0.31672958567074955,0.16203763522696268,0.15408535250233243,0.10635432695168025
1.0,0.09645799547433853,0.00010121510698660771,"train",1080.0,"2021-11-30 13:05:02.870505","","","","","","",""
1.0,0.11573661863803864,0.00010200508377956928,"train",1100.0,"2021-11-30 13:05:07.459295","","","","","","",""
1.0,0.12389548122882843,0.00010280933052437993,"train",1120.0,"2021-11-30 13:05:11.527663","","","","","","",""
1.0,0.09921394288539886,0.00010362783498583223,"train",1140.0,"2021-11-30 13:05:15.585027","","","","","","",""
1.0,0.09626856446266174,0.0001044605847118124,"train",1160.0,"2021-11-30 13:05:19.985905","","","","","","",""
1.0,0.1063513234257698,0.0001053075670334907,"train",1180.0,"2021-11-30 13:05:24.040783","","","","","","",""
1.0,0.08428522199392319,0.00010616876906551181,"train",1200.0,"2021-11-30 13:05:28.026715","","","","","","",""
1.0,0.0999675989151001,0.0001070441777061941,"train",1220.0,"2021-11-30 13:05:32.444612","","","","","","",""
1.0,0.1258428543806076,0.00010793377963772563,"train",1240.0,"2021-11-30 13:05:36.457495","","","","","","",""
1.0,0.08975114673376083,0.0001088375613263698,"train",1260.0,"2021-11-30 13:05:40.427960","","","","","","",""
1.0,0.10606830567121506,0.00010975550902266908,"train",1280.0,"2021-11-30 13:05:44.725678","","","","","","",""
1.0,0.1061481386423111,0.00011068760876165474,"train",1300.0,"2021-11-30 13:05:48.678144","","","","","","",""
1.0,0.11107207089662552,0.0001116338463630598,"train",1320.0,"2021-11-30 13:05:52.627421","","","","","","",""
1.0,0.08330491185188293,0.00011259420743153455,"train",1340.0,"2021-11-30 13:05:56.935190","","","","","","",""
1.0,0.11475538462400436,0.00011356867735686535,"train",1360.0,"2021-11-30 13:06:00.904587","","","","","","",""
1.0,0.11714330315589905,0.00011455724131419621,"train",1380.0,"2021-11-30 13:06:04.849307","","","","","","",""
1.0,0.09302939474582672,0.00011555988426425654,"train",1400.0,"2021-11-30 13:06:09.146771","","","","","","",""
1.0,0.09146954119205475,0.00011657659095358746,"train",1420.0,"2021-11-30 13:06:13.103472","","","","","","",""
1.0,0.12220016121864319,0.00011760734591477516,"train",1440.0,"2021-11-30 13:06:17.058296","","","","","","",""
1.0,0.11582092940807343,0.00011865213346668618,"train",1460.0,"2021-11-30 13:06:21.419261","","","","","","",""
1.0,0.08640530705451965,0.00011971093771470502,"train",1480.0,"2021-11-30 13:06:25.462078","","","","","","",""
1.0,0.10656982660293579,0.0001207837425509777,"train",1500.0,"2021-11-30 13:06:29.387420","","","","","","",""
1.0,0.101935975253582,0.00012187053165465503,"train",1520.0,"2021-11-30 13:06:33.673333","","","","","","",""
1.0,0.11264225840568542,0.000122971288492142,"train",1540.0,"2021-11-30 13:06:37.731449","","","","","","",""
1.0,0.10397954285144806,0.00012408599631734863,"train",1560.0,"2021-11-30 13:06:41.760823","","","","","","",""
1.0,0.0951797291636467,0.00012521463817194542,"train",1580.0,"2021-11-30 13:06:46.040406","","","","","","",""
1.0,0.11132048070430756,0.00012635719688562077,"train",1600.0,"2021-11-30 13:06:50.053904","","","","","","",""
1.0,0.11033865809440613,0.00012751365507634267,"train",1620.0,"2021-11-30 13:06:54.088322","","","","","","",""
1.0,0.0725422278046608,0.0001286839951506226,"train",1640.0,"2021-11-30 13:06:58.406473","","","","","","",""
1.0,0.07538390159606934,0.00012986819930378333,"train",1660.0,"2021-11-30 13:07:02.315440","","","","","","",""
1.0,0.10442747175693512,0.00013106624952023064,"train",1680.0,"2021-11-30 13:07:06.201761","","","","","","",""
1.0,0.09312855452299118,0.00013227812757372545,"train",1700.0,"2021-11-30 13:07:10.462105","","","","","","",""
1.0,0.10209523141384125,0.00013350381502766394,"train",1720.0,"2021-11-30 13:07:14.368762","","","","","","",""
1.0,0.10219845920801163,0.00013474329323535494,"train",1740.0,"2021-11-30 13:07:18.269836","","","","","","",""
1.0,0.11029583215713501,0.0001359965433403059,"train",1760.0,"2021-11-30 13:07:22.516337","","","","","","",""
1.0,0.07866030931472778,0.00013726354627650872,"train",1780.0,"2021-11-30 13:07:26.471407","","","","","","",""
1.0,0.07798972725868225,0.00013854428276873052,"train",1800.0,"2021-11-30 13:07:30.502486","","","","","","",""
1.0,0.09239739924669266,0.00013983873333280506,"train",1820.0,"2021-11-30 13:07:34.940631","","","","","","",""
1.0,0.09751258045434952,0.00014114687827593156,"train",1840.0,"2021-11-30 13:07:39.000597","","","","","","",""
1.0,0.10703016817569733,0.00014246869769697352,"train",1860.0,"2021-11-30 13:07:43.115959","","","","","","",""
1.0,0.10308298468589783,0.00014380417148676054,"train",1880.0,"2021-11-30 13:07:47.512376","","","","","","",""
1.0,0.08211885392665863,0.00014515327932839404,"train",1900.0,"2021-11-30 13:07:51.568443","","","","","","",""
1.0,0.09634900093078613,0.0001465160006975598,"train",1920.0,"2021-11-30 13:07:55.625537","","","","","","",""
1.0,0.10232056677341461,0.00014789231486283454,"train",1940.0,"2021-11-30 13:08:00.110048","","","","","","",""
1.0,0.10296787321567535,0.00014928220088600633,"train",1960.0,"2021-11-30 13:08:04.207130","","","","","","",""
1.0,0.08278626948595047,0.00015068563762239045,"train",1980.0,"2021-11-30 13:08:08.225449","","","","","","",""
1.0,0.10209283232688904,0.00015210260372115238,"train",2000.0,"2021-11-30 13:08:12.598400","","","","","","",""
1.0,0.09228231012821198,0.00015353307762563115,"train",2020.0,"2021-11-30 13:08:16.637953","","","","","","",""
1.0,0.10273457318544388,0.00015497703757366872,"train",2040.0,"2021-11-30 13:08:20.657207","","","","","","",""
1.0,0.10694368183612823,0.00015643446159794,"train",2060.0,"2021-11-30 13:08:25.037727","","","","","","",""
1.0,0.08563663065433502,0.0001579053275262887,"train",2080.0,"2021-11-30 13:08:28.996935","","","","","","",""
1.0,0.11685416847467422,0.00015938961298206183,"train",2100.0,"2021-11-30 13:08:32.936672","","","","","","",""
1.0,0.10921338945627213,0.00016088729538445297,"train",2120.0,"2021-11-30 13:08:37.418015","","","","","","",""
1.0,0.06636913865804672,0.000162398351948844,"train",2140.0,"2021-11-30 13:08:41.475614","","","","","","",""
1.0,"","","train",2148.0,"2021-11-30 13:10:24.597385",0.39364039874845375,0.31174583941913675,0.8509579439738998,0.37500709309429897,0.21036028941422436,0.20881017164432586,0.1343132357146997
1.0,"","","val",2148.0,"2021-11-30 13:10:52.399706",0.3930766554563377,0.3055882557286582,0.8460386749294219,0.37040011941929735,0.2069272555914629,0.20442118730113185,0.13191303411592642
2.0,0.1140216514468193,0.00016392275968715297,"train",2160.0,"2021-11-30 13:10:58.159004","","","","","","",""
2.0,0.0795573815703392,0.00016546049540818223,"train",2180.0,"2021-11-30 13:11:02.613139","","","","","","",""
2.0,0.08869897574186325,0.00016701153571797313,"train",2200.0,"2021-11-30 13:11:06.693708","","","","","","",""
2.0,0.10486981272697449,0.00016857585702016015,"train",2220.0,"2021-11-30 13:11:10.882917","","","","","","",""
2.0,0.11139644682407379,0.00017015343551633126,"train",2240.0,"2021-11-30 13:11:15.308190","","","","","","",""
2.0,0.10800092667341232,0.0001717442472063892,"train",2260.0,"2021-11-30 13:11:19.269084","","","","","","",""
2.0,0.1343347728252411,0.00017334826788891681,"train",2280.0,"2021-11-30 13:11:23.288039","","","","","","",""
2.0,0.10629373043775558,0.00017496547316154555,"train",2300.0,"2021-11-30 13:11:27.632816","","","","","","",""
2.0,0.07951582968235016,0.00017659583842132573,"train",2320.0,"2021-11-30 13:11:31.621027","","","","","","",""
2.0,0.08809076994657516,0.00017823933886510217,"train",2340.0,"2021-11-30 13:11:35.740829","","","","","","",""
2.0,0.11528028547763824,0.00017989594948989015,"train",2360.0,"2021-11-30 13:11:40.333605","","","","","","",""
2.0,0.0839776024222374,0.00018156564509325753,"train",2380.0,"2021-11-30 13:11:44.294922","","","","","","",""
2.0,0.11567765474319458,0.0001832484002737059,"train",2400.0,"2021-11-30 13:11:48.273639","","","","","","",""
2.0,0.09419339150190353,0.00018494418943105877,"train",2420.0,"2021-11-30 13:11:52.586320","","","","","","",""
2.0,0.09042538702487946,0.00018665298676685078,"train",2440.0,"2021-11-30 13:11:56.652498","","","","","","",""
2.0,0.09498071670532227,0.0001883747662847191,"train",2460.0,"2021-11-30 13:12:00.754764","","","","","","",""
2.0,0.08777245879173279,0.00019010950179080112,"train",2480.0,"2021-11-30 13:12:05.038282","","","","","","",""
2.0,0.09382125735282898,0.00019185716689412995,"train",2500.0,"2021-11-30 13:12:09.115139","","","","","","",""
2.0,0.0953894853591919,0.00019361773500703797,"train",2520.0,"2021-11-30 13:12:13.194556","","","","","","",""
2.0,0.08712376654148102,0.00019539117934556168,"train",2540.0,"2021-11-30 13:12:17.506666","","","","","","",""
2.0,0.09224847704172134,0.00019717747292984696,"train",2560.0,"2021-11-30 13:12:21.393325","","","","","","",""
2.0,0.082559734582901,0.0001989765885845624,"train",2580.0,"2021-11-30 13:12:25.369211","","","","","","",""
2.0,0.09168945252895355,0.00020078849893931014,"train",2600.0,"2021-11-30 13:12:29.707597","","","","","","",""
2.0,0.10117241740226746,0.0002026131764290434,"train",2620.0,"2021-11-30 13:12:33.773699","","","","","","",""
2.0,0.06994789838790894,0.00020445059329448614,"train",2640.0,"2021-11-30 13:12:37.689543","","","","","","",""
2.0,0.10894829034805298,0.00020630072158255497,"train",2660.0,"2021-11-30 13:12:42.011782","","","","","","",""
2.0,0.10775047540664673,0.00020816353314678467,"train",2680.0,"2021-11-30 13:12:46.006972","","","","","","",""
2.0,0.0862172544002533,0.00021003899964775505,"train",2700.0,"2021-11-30 13:12:50.012582","","","","","","",""
2.0,0.07423930615186691,0.00021192709255352473,"train",2720.0,"2021-11-30 13:12:54.358541","","","","","","",""
2.0,0.088881716132164,0.00021382778314006255,"train",2740.0,"2021-11-30 13:12:58.227820","","","","","","",""
2.0,0.09092942625284195,0.00021574104249168615,"train",2760.0,"2021-11-30 13:13:02.093491","","","","","","",""
2.0,0.10849194973707199,0.00021766684150150133,"train",2780.0,"2021-11-30 13:13:06.298955","","","","","","",""
2.0,0.08534974604845047,0.00021960515087184485,"train",2800.0,"2021-11-30 13:13:10.212434","","","","","","",""
2.0,0.09086361527442932,0.00022155594111472978,"train",2820.0,"2021-11-30 13:13:14.144020","","","","","","",""
2.0,0.1018766462802887,0.0002235191825522959,"train",2840.0,"2021-11-30 13:13:18.443049","","","","","","",""
2.0,0.10334794968366623,0.00022549484531725838,"train",2860.0,"2021-11-30 13:13:22.419078","","","","","","",""
2.0,0.08395470678806305,0.00022748289935336434,"train",2880.0,"2021-11-30 13:13:26.363687","","","","","","",""
2.0,0.10106959193944931,0.00022948331441584964,"train",2900.0,"2021-11-30 13:13:30.713030","","","","","","",""
2.0,0.08575533330440521,0.00023149606007189785,"train",2920.0,"2021-11-30 13:13:34.729793","","","","","","",""
2.0,0.09706085920333862,0.00023352110570110476,"train",2940.0,"2021-11-30 13:13:38.633502","","","","","","",""
2.0,0.11638650298118591,0.00023555842049594305,"train",2960.0,"2021-11-30 13:13:42.893307","","","","","","",""
2.0,0.10378512740135193,0.00023760797346223305,"train",2980.0,"2021-11-30 13:13:46.791686","","","","","","",""
2.0,0.08824214339256287,0.00023966973341961028,"train",3000.0,"2021-11-30 13:13:50.692432","","","","","","",""
2.0,0.09965163469314575,0.0002417436690020044,"train",3020.0,"2021-11-30 13:13:54.970417","","","","","","",""
2.0,0.0920749083161354,0.00024382974865811325,"train",3040.0,"2021-11-30 13:13:58.869382","","","","","","",""
2.0,0.09423917531967163,0.000245927940651884,"train",3060.0,"2021-11-30 13:14:02.778946","","","","","","",""
2.0,0.09371589124202728,0.0002480382130629953,"train",3080.0,"2021-11-30 13:14:07.023516","","","","","","",""
2.0,0.07371289283037186,0.0002501605337873443,"train",3100.0,"2021-11-30 13:14:10.973781","","","","","","",""
2.0,0.09063953161239624,0.0002522948705375337,"train",3120.0,"2021-11-30 13:14:14.894186","","","","","","",""
2.0,0.09959644824266434,0.00025444119084336303,"train",3140.0,"2021-11-30 13:14:19.206665","","","","","","",""
2.0,0.10496395081281662,0.00025659946205232364,"train",3160.0,"2021-11-30 13:14:23.156046","","","","","","",""
2.0,0.10651446878910065,0.0002587696513300941,"train",3180.0,"2021-11-30 13:14:26.970018","","","","","","",""
2.0,0.075895756483078,0.0002609517256610412,"train",3200.0,"2021-11-30 13:14:31.168514","","","","","","",""
2.0,0.11586503684520721,0.00026314565184872084,"train",3220.0,"2021-11-30 13:14:35.071157","","","","","","",""
2.0,"","","train",3222.0,"2021-11-30 13:16:19.379965",0.49376409808629845,0.3995066202481489,0.8867703286436696,0.48147434770989156,0.31937849192532874,0.3136133969424409,0.20974641236504604
2.0,"","","val",3222.0,"2021-11-30 13:16:47.284876",0.49141829989562796,0.39194033730939437,0.8803345391843169,0.47511688331439006,0.3161792661995962,0.30839647775878565,0.2057654494693106
3.0,0.11930633336305618,0.0002653513965163838,"train",3240.0,"2021-11-30 13:16:54.341929","","","","","","",""
3.0,0.08625765144824982,0.0002675689261074836,"train",3260.0,"2021-11-30 13:16:58.942286","","","","","","",""
3.0,0.07065918296575546,0.00026979820688618605,"train",3280.0,"2021-11-30 13:17:03.018112","","","","","","",""
3.0,0.09239664673805237,0.00027203920493788433,"train",3300.0,"2021-11-30 13:17:07.085511","","","","","","",""
3.0,0.09729637205600739,0.00027429188616971277,"train",3320.0,"2021-11-30 13:17:11.493077","","","","","","",""
3.0,0.07094234228134155,0.0002765562163110668,"train",3340.0,"2021-11-30 13:17:15.370006","","","","","","",""
3.0,0.09342389553785324,0.00027883216091412503,"train",3360.0,"2021-11-30 13:17:19.274840","","","","","","",""
3.0,0.09193339198827744,0.0002811196853543707,"train",3380.0,"2021-11-30 13:17:23.665621","","","","","","",""
3.0,0.09496992826461792,0.00028341875483112134,"train",3400.0,"2021-11-30 13:17:27.725088","","","","","","",""
3.0,0.06973673403263092,0.00028572933436805644,"train",3420.0,"2021-11-30 13:17:31.709345","","","","","","",""
3.0,0.08082674443721771,0.0002880513888137504,"train",3440.0,"2021-11-30 13:17:36.167402","","","","","","",""
3.0,0.08010142296552658,0.0002903848828422063,"train",3460.0,"2021-11-30 13:17:40.256714","","","","","","",""
3.0,0.06282640993595123,0.00029272978095339465,"train",3480.0,"2021-11-30 13:17:44.325416","","","","","","",""
3.0,0.0852200835943222,0.00029508604747379243,"train",3500.0,"2021-11-30 13:17:48.752998","","","","","","",""
3.0,0.09815289825201035,0.00029745364655692653,"train",3520.0,"2021-11-30 13:17:52.787508","","","","","","",""
3.0,0.111357182264328,0.0002998325421839181,"train",3540.0,"2021-11-30 13:17:56.829595","","","","","","",""
3.0,0.06559933722019196,0.0003022226981640318,"train",3560.0,"2021-11-30 13:18:01.203621","","","","","","",""
3.0,0.08713192492723465,0.00030462407813522494,"train",3580.0,"2021-11-30 13:18:05.199501","","","","","","",""
3.0,0.07132454961538315,0.0003070366455647027,"train",3600.0,"2021-11-30 13:18:09.201490","","","","","","",""
3.0,0.113135926425457,0.000309460363749471,"train",3620.0,"2021-11-30 13:18:13.530602","","","","","","",""
3.0,0.08979050070047379,0.0003118951958168978,"train",3640.0,"2021-11-30 13:18:17.623389","","","","","","",""
3.0,0.09615458548069,0.0003143411047252722,"train",3660.0,"2021-11-30 13:18:21.611833","","","","","","",""
3.0,0.08014605194330215,0.0003167980532643691,"train",3680.0,"2021-11-30 13:18:26.000492","","","","","","",""
3.0,0.07680251449346542,0.0003192660040560141,"train",3700.0,"2021-11-30 13:18:30.011712","","","","","","",""
3.0,0.0891660824418068,0.0003217449195546528,"train",3720.0,"2021-11-30 13:18:34.004365","","","","","","",""
3.0,0.07553855329751968,0.00032423476204792244,"train",3740.0,"2021-11-30 13:18:38.400095","","","","","","",""
3.0,0.07789478451013565,0.0003267354936572248,"train",3760.0,"2021-11-30 13:18:42.379296","","","","","","",""
3.0,0.07613799721002579,0.0003292470763383026,"train",3780.0,"2021-11-30 13:18:46.447543","","","","","","",""
3.0,0.08044103533029556,0.0003317694718818192,"train",3800.0,"2021-11-30 13:18:50.742558","","","","","","",""
3.0,0.08285123109817505,0.00033430264191393853,"train",3820.0,"2021-11-30 13:18:54.696198","","","","","","",""
3.0,0.08802804350852966,0.0003368465478969097,"train",3840.0,"2021-11-30 13:18:58.626251","","","","","","",""
3.0,0.09715429693460464,0.0003394011511296533,"train",3860.0,"2021-11-30 13:19:02.908114","","","","","","",""
3.0,0.06475033611059189,0.0003419664127483496,"train",3880.0,"2021-11-30 13:19:06.820294","","","","","","",""
3.0,0.08798566460609436,0.00034454229372703074,"train",3900.0,"2021-11-30 13:19:10.777516","","","","","","",""
3.0,0.09217412769794464,0.00034712875487817314,"train",3920.0,"2021-11-30 13:19:15.046232","","","","","","",""
3.0,0.07033701986074448,0.00034972575685329526,"train",3940.0,"2021-11-30 13:19:19.236773","","","","","","",""
3.0,0.08917222172021866,0.0003523332601435541,"train",3960.0,"2021-11-30 13:19:23.274520","","","","","","",""
3.0,0.0721474215388298,0.00035495122508034916,"train",3980.0,"2021-11-30 13:19:27.671181","","","","","","",""
3.0,0.09262533485889435,0.0003575796118359231,"train",4000.0,"2021-11-30 13:19:31.567941","","","","","","",""
3.0,0.08973751962184906,0.00036021838042396906,"train",4020.0,"2021-11-30 13:19:35.505059","","","","","","",""
3.0,0.07668288797140121,0.0003628674907002389,"train",4040.0,"2021-11-30 13:19:39.786491","","","","","","",""
3.0,0.06933402270078659,0.00036552690236315395,"train",4060.0,"2021-11-30 13:19:43.785901","","","","","","",""
3.0,0.09554144740104675,0.00036819657495441773,"train",4080.0,"2021-11-30 13:19:48.055260","","","","","","",""
3.0,0.08599092811346054,0.0003708764678596317,"train",4100.0,"2021-11-30 13:19:52.397517","","","","","","",""
3.0,0.06526125222444534,0.00037356654030891293,"train",4120.0,"2021-11-30 13:19:56.367666","","","","","","",""
3.0,0.11619839817285538,0.0003762667513775148,"train",4140.0,"2021-11-30 13:20:00.428120","","","","","","",""
3.0,0.08932697027921677,0.0003789770599864498,"train",4160.0,"2021-11-30 13:20:04.941948","","","","","","",""
3.0,0.08090610802173615,0.000381697424903113,"train",4180.0,"2021-11-30 13:20:08.992998","","","","","","",""
3.0,0.06524712592363358,0.0003844278047419108,"train",4200.0,"2021-11-30 13:20:12.943921","","","","","","",""
3.0,0.08716771006584167,0.0003871681579648903,"train",4220.0,"2021-11-30 13:20:17.239249","","","","","","",""
3.0,0.07442300766706467,0.0003899184428823709,"train",4240.0,"2021-11-30 13:20:21.207826","","","","","","",""
3.0,0.08567486703395844,0.0003926786176535783,"train",4260.0,"2021-11-30 13:20:25.307393","","","","","","",""
3.0,0.06873396039009094,0.0003954486402872818,"train",4280.0,"2021-11-30 13:20:29.716334","","","","","","",""
3.0,"","","train",4296.0,"2021-11-30 13:22:15.731487",0.519537218947828,0.4448413788288793,0.9052201200077049,0.5190308303097978,0.34522658432350906,0.34545267041794864,0.2333511078285963
3.0,"","","val",4296.0,"2021-11-30 13:22:43.561246",0.5161196799257799,0.43203595239475145,0.8994543722228343,0.5072594414265117,0.3373457568076985,0.33409542952580207,0.2255340978247545
4.0,0.10319342464208603,0.0003982284686424324,"train",4300.0,"2021-11-30 13:22:47.746573","","","","","","",""
4.0,0.08552970737218857,0.0004010180604288045,"train",4320.0,"2021-11-30 13:22:51.843702","","","","","","",""
4.0,0.07213538140058517,0.00040381737320763873,"train",4340.0,"2021-11-30 13:22:56.382493","","","","","","",""
4.0,0.08646103739738464,0.0004066263643922878,"train",4360.0,"2021-11-30 13:23:00.461318","","","","","","",""
4.0,0.10133478045463562,0.0004094449912488646,"train",4380.0,"2021-11-30 13:23:04.540285","","","","","","",""
4.0,0.07386000454425812,0.0004122732108968923,"train",4400.0,"2021-11-30 13:23:09.003092","","","","","","",""
4.0,0.086313396692276,0.0004151109803099558,"train",4420.0,"2021-11-30 13:23:13.116435","","","","","","",""
4.0,0.09414815902709961,0.00041795825631635764,"train",4440.0,"2021-11-30 13:23:17.162640","","","","","","",""
4.0,0.08331920206546783,0.0004208149955997739,"train",4460.0,"2021-11-30 13:23:21.570567","","","","","","",""
4.0,0.08762422949075699,0.0004236811546999141,"train",4480.0,"2021-11-30 13:23:25.608898","","","","","","",""
4.0,0.0841018483042717,0.0004265566900131805,"train",4500.0,"2021-11-30 13:23:29.683733","","","","","","",""
4.0,0.07502830773591995,0.0004294415577933337,"train",4520.0,"2021-11-30 13:23:34.177241","","","","","","",""
4.0,0.10256561636924744,0.00043233571415215717,"train",4540.0,"2021-11-30 13:23:38.241104","","","","","","",""
4.0,0.07105915248394012,0.0004352391150601242,"train",4560.0,"2021-11-30 13:23:42.326302","","","","","","",""
4.0,0.0780855268239975,0.0004381517163470684,"train",4580.0,"2021-11-30 13:23:46.842841","","","","","","",""
4.0,0.07294893264770508,0.00044107347370285683,"train",4600.0,"2021-11-30 13:23:50.946554","","","","","","",""
4.0,0.08377490937709808,0.00044400434267806194,"train",4620.0,"2021-11-30 13:23:54.965355","","","","","","",""
4.0,0.08128982037305832,0.00044694427868463907,"train",4640.0,"2021-11-30 13:23:59.382480","","","","","","",""
4.0,0.05387434735894203,0.00044989323699660467,"train",4660.0,"2021-11-30 13:24:03.369055","","","","","","",""
4.0,0.076972596347332,0.0004528511727507165,"train",4680.0,"2021-11-30 13:24:07.321874","","","","","","",""
4.0,0.09294132143259048,0.00045581804094715645,"train",4700.0,"2021-11-30 13:24:11.678742","","","","","","",""
4.0,0.0886140838265419,0.00045879379645021425,"train",4720.0,"2021-11-30 13:24:15.707476","","","","","","",""
4.0,0.07526105642318726,0.0004617783939889759,"train",4740.0,"2021-11-30 13:24:19.734770","","","","","","",""
4.0,0.0798027366399765,0.0004647717881580103,"train",4760.0,"2021-11-30 13:24:24.095385","","","","","","",""
4.0,0.08402420580387115,0.0004677739334180617,"train",4780.0,"2021-11-30 13:24:28.132077","","","","","","",""
4.0,0.07555267959833145,0.00047078478409674144,"train",4800.0,"2021-11-30 13:24:32.182643","","","","","","",""
4.0,0.0828014388680458,0.00047380429438922305,"train",4820.0,"2021-11-30 13:24:36.584676","","","","","","",""
4.0,0.08096769452095032,0.00047683241835893946,"train",4840.0,"2021-11-30 13:24:40.618531","","","","","","",""
4.0,0.06794873625040054,0.0004798691099382815,"train",4860.0,"2021-11-30 13:24:44.617829","","","","","","",""
4.0,0.0804569274187088,0.0004829143229292986,"train",4880.0,"2021-11-30 13:24:48.935736","","","","","","",""
4.0,0.08565862476825714,0.0004859680110044023,"train",4900.0,"2021-11-30 13:24:52.899474","","","","","","",""
4.0,0.08467207849025726,0.0004890301277070699,"train",4920.0,"2021-11-30 13:24:56.981954","","","","","","",""
4.0,0.08987004309892654,0.0004921006264525525,"train",4940.0,"2021-11-30 13:25:01.430484","","","","","","",""
4.0,0.07122451812028885,0.0004951794605285824,"train",4960.0,"2021-11-30 13:25:05.419900","","","","","","",""
4.0,0.10592658817768097,0.0004982665830960853,"train",4980.0,"2021-11-30 13:25:09.385091","","","","","","",""
4.0,0.07543734461069107,0.0005013619471898913,"train",5000.0,"2021-11-30 13:25:13.679540","","","","","","",""
4.0,0.10175611078739166,0.0005044655057194504,"train",5020.0,"2021-11-30 13:25:17.558896","","","","","","",""
4.0,0.0685742124915123,0.0005075772114695486,"train",5040.0,"2021-11-30 13:25:21.435774","","","","","","",""
4.0,0.083009272813797,0.0005106970171010257,"train",5060.0,"2021-11-30 13:25:25.749729","","","","","","",""
4.0,0.07699228823184967,0.0005138248751514966,"train",5080.0,"2021-11-30 13:25:29.799462","","","","","","",""
4.0,0.09133630990982056,0.0005169607380360731,"train",5100.0,"2021-11-30 13:25:33.865363","","","","","","",""
4.0,0.08267971128225327,0.000520104558048086,"train",5120.0,"2021-11-30 13:25:38.331668","","","","","","",""
4.0,0.08894770592451096,0.0005232562873598136,"train",5140.0,"2021-11-30 13:25:42.381137","","","","","","",""
4.0,0.06745298951864243,0.0005264158780232072,"train",5160.0,"2021-11-30 13:25:46.440590","","","","","","",""
4.0,0.07868047803640366,0.0005295832819706228,"train",5180.0,"2021-11-30 13:25:50.850083","","","","","","",""
4.0,0.08814205229282379,0.0005327584510155488,"train",5200.0,"2021-11-30 13:25:54.886179","","","","","","",""
4.0,0.0915992259979248,0.000535941336853343,"train",5220.0,"2021-11-30 13:25:58.942752","","","","","","",""
4.0,0.07016106694936752,0.0005391318910619655,"train",5240.0,"2021-11-30 13:26:03.502557","","","","","","",""
4.0,0.10117322206497192,0.0005423300651027144,"train",5260.0,"2021-11-30 13:26:07.562147","","","","","","",""
4.0,0.11423445492982864,0.0005455358103209663,"train",5280.0,"2021-11-30 13:26:11.559333","","","","","","",""
4.0,0.1118650734424591,0.0005487490779469157,"train",5300.0,"2021-11-30 13:26:15.946344","","","","","","",""
4.0,0.06755514442920685,0.000551969819096316,"train",5320.0,"2021-11-30 13:26:19.982651","","","","","","",""
4.0,0.0757376030087471,0.0005551979847712252,"train",5340.0,"2021-11-30 13:26:24.024694","","","","","","",""
4.0,0.05673576146364212,0.0005584335258607489,"train",5360.0,"2021-11-30 13:26:28.389304","","","","","","",""
4.0,"","","train",5370.0,"2021-11-30 13:28:12.703457",0.5400858618933275,0.48355236382029126,0.9155031647496231,0.5362767496145653,0.36683337939105837,0.37523620404837627,0.2534082472831688
4.0,"","","val",5370.0,"2021-11-30 13:28:40.649944",0.5307317638872782,0.470480886623944,0.9072027353793695,0.5203736182800563,0.3579057868252852,0.3615785741653829,0.24292618054226933
5.0,0.08676152676343918,0.0005616763931417894,"train",5380.0,"2021-11-30 13:28:46.051572","","","","","","",""
5.0,0.07759066671133041,0.0005649265372797939,"train",5400.0,"2021-11-30 13:28:49.993461","","","","","","",""
5.0,0.063093401491642,0.0005681839088295046,"train",5420.0,"2021-11-30 13:28:54.365089","","","","","","",""
5.0,0.09813676029443741,0.0005714484582357109,"train",5440.0,"2021-11-30 13:28:58.291420","","","","","","",""
5.0,0.05563035607337952,0.0005747201358340048,"train",5460.0,"2021-11-30 13:29:02.205261","","","","","","",""
5.0,0.06736958026885986,0.0005779988918515344,"train",5480.0,"2021-11-30 13:29:06.441191","","","","","","",""
5.0,0.07740402221679688,0.0005812846764077623,"train",5500.0,"2021-11-30 13:29:10.344070","","","","","","",""
5.0,0.09674830734729767,0.0005845774395152243,"train",5520.0,"2021-11-30 13:29:14.230354","","","","","","",""
5.0,0.07897880673408508,0.0005878771310802895,"train",5540.0,"2021-11-30 13:29:18.482112","","","","","","",""
5.0,0.0736662819981575,0.0005911837009039229,"train",5560.0,"2021-11-30 13:29:22.385879","","","","","","",""
5.0,0.06264953315258026,0.0005944970986824485,"train",5580.0,"2021-11-30 13:29:26.360998","","","","","","",""
5.0,0.07620587944984436,0.000597817274008315,"train",5600.0,"2021-11-30 13:29:30.610651","","","","","","",""
5.0,0.07425515353679657,0.0006011441763708635,"train",5620.0,"2021-11-30 13:29:34.672834","","","","","","",""
5.0,0.08463531732559204,0.0006044777551570929,"train",5640.0,"2021-11-30 13:29:38.694199","","","","","","",""
5.0,0.10612663626670837,0.000607817959652434,"train",5660.0,"2021-11-30 13:29:43.039768","","","","","","",""
5.0,0.10212592035531998,0.0006111647390415189,"train",5680.0,"2021-11-30 13:29:46.932502","","","","","","",""
5.0,0.07114569842815399,0.0006145180424089525,"train",5700.0,"2021-11-30 13:29:50.850255","","","","","","",""
5.0,0.062093231827020645,0.0006178778187400902,"train",5720.0,"2021-11-30 13:29:55.139770","","","","","","",""
5.0,0.0794115737080574,0.0006212440169218129,"train",5740.0,"2021-11-30 13:29:59.060410","","","","","","",""
5.0,0.08690597862005234,0.0006246165857433027,"train",5760.0,"2021-11-30 13:30:02.994229","","","","","","",""
5.0,0.0960095077753067,0.0006279954738968251,"train",5780.0,"2021-11-30 13:30:07.327248","","","","","","",""
5.0,0.06664230674505234,0.0006313806299785075,"train",5800.0,"2021-11-30 13:30:11.267686","","","","","","",""
5.0,0.0656915083527565,0.0006347720024891209,"train",5820.0,"2021-11-30 13:30:15.180301","","","","","","",""
5.0,0.11314478516578674,0.0006381695398348657,"train",5840.0,"2021-11-30 13:30:19.450487","","","","","","",""
5.0,0.07368749380111694,0.0006415731903281542,"train",5860.0,"2021-11-30 13:30:23.384812","","","","","","",""
5.0,0.07529228180646896,0.0006449829021883979,"train",5880.0,"2021-11-30 13:30:27.296260","","","","","","",""
5.0,0.11469445377588272,0.0006483986235427956,"train",5900.0,"2021-11-30 13:30:31.547877","","","","","","",""
5.0,0.11167623102664948,0.0006518203024271213,"train",5920.0,"2021-11-30 13:30:35.453488","","","","","","",""
5.0,0.07833824306726456,0.0006552478867865169,"train",5940.0,"2021-11-30 13:30:39.376980","","","","","","",""
5.0,0.10465963184833527,0.0006586813244762815,"train",5960.0,"2021-11-30 13:30:43.707340","","","","","","",""
5.0,0.09001147001981735,0.0006621205632626672,"train",5980.0,"2021-11-30 13:30:47.775472","","","","","","",""
5.0,0.07385089993476868,0.0006655655508236717,"train",6000.0,"2021-11-30 13:30:51.831676","","","","","","",""
5.0,0.06712155789136887,0.0006690162347498356,"train",6020.0,"2021-11-30 13:30:56.239484","","","","","","",""
5.0,0.09731446206569672,0.0006724725625450389,"train",6040.0,"2021-11-30 13:31:00.293799","","","","","","",""
5.0,0.09549559652805328,0.0006759344816273003,"train",6060.0,"2021-11-30 13:31:04.335660","","","","","","",""
5.0,0.08177986741065979,0.0006794019393295771,"train",6080.0,"2021-11-30 13:31:08.733151","","","","","","",""
5.0,0.09577284753322601,0.0006828748829005654,"train",6100.0,"2021-11-30 13:31:12.795131","","","","","","",""
5.0,0.10033819824457169,0.0006863532595055041,"train",6120.0,"2021-11-30 13:31:16.850119","","","","","","",""
5.0,0.08896954357624054,0.0006898370162269777,"train",6140.0,"2021-11-30 13:31:21.205013","","","","","","",""
5.0,0.06297570466995239,0.0006933261000657217,"train",6160.0,"2021-11-30 13:31:25.173577","","","","","","",""
5.0,0.09652164578437805,0.000696820457941429,"train",6180.0,"2021-11-30 13:31:29.180187","","","","","","",""
5.0,0.1092265248298645,0.000700320036693557,"train",6200.0,"2021-11-30 13:31:33.448134","","","","","","",""
5.0,0.08382924646139145,0.0007038247830821358,"train",6220.0,"2021-11-30 13:31:37.528489","","","","","","",""
5.0,0.07392873615026474,0.0007073346437885815,"train",6240.0,"2021-11-30 13:31:41.526455","","","","","","",""
5.0,0.0655948743224144,0.000710849565416502,"train",6260.0,"2021-11-30 13:31:45.835548","","","","","","",""
5.0,0.09743454307317734,0.0007143694944925134,"train",6280.0,"2021-11-30 13:31:49.739421","","","","","","",""
5.0,0.06808595359325409,0.0007178943774670524,"train",6300.0,"2021-11-30 13:31:53.665823","","","","","","",""
5.0,0.06697265803813934,0.0007214241607151901,"train",6320.0,"2021-11-30 13:31:57.965885","","","","","","",""
5.0,0.07938509434461594,0.000724958790537449,"train",6340.0,"2021-11-30 13:32:01.957892","","","","","","",""
5.0,0.09561896324157715,0.0007284982131606195,"train",6360.0,"2021-11-30 13:32:05.923253","","","","","","",""
5.0,0.09116622805595398,0.0007320423747385781,"train",6380.0,"2021-11-30 13:32:10.263354","","","","","","",""
5.0,0.10427386313676834,0.0007355912213531054,"train",6400.0,"2021-11-30 13:32:14.267956","","","","","","",""
5.0,0.06385238468647003,0.000739144699014708,"train",6420.0,"2021-11-30 13:32:18.215527","","","","","","",""
5.0,0.08987706154584885,0.0007427027536634401,"train",6440.0,"2021-11-30 13:32:22.508759","","","","","","",""
5.0,"","","train",6444.0,"2021-11-30 13:34:07.415762",0.5613330422760678,0.5043384089796656,0.9219652514318657,0.5753366284500446,0.4020027412338488,0.41349054684545905,0.2744067593485365
5.0,"","","val",6444.0,"2021-11-30 13:34:35.475149",0.5523019830685376,0.4823146446830578,0.9125434048362384,0.5613582372321227,0.3895060093491839,0.3970123454563956,0.2622456510181262
6.0,0.08018016815185547,0.0007462653311697235,"train",6460.0,"2021-11-30 13:34:42.142810","","","","","","",""
6.0,0.10406142473220825,0.0007498323773351733,"train",6480.0,"2021-11-30 13:34:46.237973","","","","","","",""
6.0,0.09305993467569351,0.0007534038378934223,"train",6500.0,"2021-11-30 13:34:50.752485","","","","","","",""
6.0,0.06225046142935753,0.0007569796585109453,"train",6520.0,"2021-11-30 13:34:54.783052","","","","","","",""
6.0,0.10064994543790817,0.0007605597847878862,"train",6540.0,"2021-11-30 13:34:58.809045","","","","","","",""
6.0,0.06522457301616669,0.0007641441622588871,"train",6560.0,"2021-11-30 13:35:03.134001","","","","","","",""
6.0,0.07310234755277634,0.0007677327363939143,"train",6580.0,"2021-11-30 13:35:07.016756","","","","","","",""
6.0,0.0905025377869606,0.0007713254525990895,"train",6600.0,"2021-11-30 13:35:10.920469","","","","","","",""
6.0,0.07902398705482483,0.0007749222562175211,"train",6620.0,"2021-11-30 13:35:15.231271","","","","","","",""
6.0,0.052507609128952026,0.000778523092530133,"train",6640.0,"2021-11-30 13:35:19.179002","","","","","","",""
6.0,0.06650115549564362,0.0007821279067564996,"train",6660.0,"2021-11-30 13:35:23.120482","","","","","","",""
6.0,0.05246699973940849,0.0007857366440556786,"train",6680.0,"2021-11-30 13:35:27.538603","","","","","","",""
6.0,0.08511383086442947,0.0007893492495270442,"train",6700.0,"2021-11-30 13:35:31.619301","","","","","","",""
6.0,0.07377059012651443,0.0007929656682111239,"train",6720.0,"2021-11-30 13:35:35.693619","","","","","","",""
6.0,0.08580490946769714,0.0007965858450904332,"train",6740.0,"2021-11-30 13:35:40.114786","","","","","","",""
6.0,0.09188111126422882,0.000800209725090314,"train",6760.0,"2021-11-30 13:35:44.110032","","","","","","",""
6.0,0.08246298879384995,0.0008038372530797706,"train",6780.0,"2021-11-30 13:35:48.048520","","","","","","",""
6.0,0.06108274310827255,0.0008074683738723109,"train",6800.0,"2021-11-30 13:35:52.418079","","","","","","",""
6.0,0.08262335509061813,0.0008111030322267832,"train",6820.0,"2021-11-30 13:35:56.353468","","","","","","",""
6.0,0.09635541588068008,0.0008147411728482187,"train",6840.0,"2021-11-30 13:36:00.336043","","","","","","",""
6.0,0.06740369647741318,0.0008183827403886721,"train",6860.0,"2021-11-30 13:36:04.565217","","","","","","",""
6.0,0.06876464933156967,0.0008220276794480633,"train",6880.0,"2021-11-30 13:36:08.574140","","","","","","",""
6.0,0.07010364532470703,0.0008256759345750203,"train",6900.0,"2021-11-30 13:36:12.492164","","","","","","",""
6.0,0.07212157547473907,0.0008293274502677234,"train",6920.0,"2021-11-30 13:36:16.752071","","","","","","",""
6.0,0.08118076622486115,0.0008329821709747486,"train",6940.0,"2021-11-30 13:36:20.654603","","","","","","",""
6.0,0.09617923200130463,0.0008366400410959136,"train",6960.0,"2021-11-30 13:36:24.545079","","","","","","",""
6.0,0.0835227444767952,0.000840301004983123,"train",6980.0,"2021-11-30 13:36:28.766181","","","","","","",""
6.0,0.05530315265059471,0.0008439650069412147,"train",7000.0,"2021-11-30 13:36:32.655091","","","","","","",""
6.0,0.07235804200172424,0.0008476319912288095,"train",7020.0,"2021-11-30 13:36:36.525082","","","","","","",""
6.0,0.10713008791208267,0.0008513019020591544,"train",7040.0,"2021-11-30 13:36:40.776099","","","","","","",""
6.0,0.07022575289011002,0.0008549746836009771,"train",7060.0,"2021-11-30 13:36:44.738422","","","","","","",""
6.0,0.10081499814987183,0.0008586502799793306,"train",7080.0,"2021-11-30 13:36:48.844714","","","","","","",""
6.0,0.07033093273639679,0.0008623286352764453,"train",7100.0,"2021-11-30 13:36:53.242526","","","","","","",""
6.0,0.0792214423418045,0.0008660096935325802,"train",7120.0,"2021-11-30 13:36:57.158694","","","","","","",""
6.0,0.08725208789110184,0.0008696933987468731,"train",7140.0,"2021-11-30 13:37:01.086635","","","","","","",""
6.0,0.06759051978588104,0.0008733796948781924,"train",7160.0,"2021-11-30 13:37:05.417681","","","","","","",""
6.0,0.08061181753873825,0.0008770685258459915,"train",7180.0,"2021-11-30 13:37:09.477549","","","","","","",""
6.0,0.059119656682014465,0.0008807598355311595,"train",7200.0,"2021-11-30 13:37:13.562107","","","","","","",""
6.0,0.07442361861467361,0.0008844535677768764,"train",7220.0,"2021-11-30 13:37:17.995898","","","","","","",""
6.0,0.09202462434768677,0.0008881496663894681,"train",7240.0,"2021-11-30 13:37:21.957592","","","","","","",""
6.0,0.07381212711334229,0.0008918480751392592,"train",7260.0,"2021-11-30 13:37:25.971301","","","","","","",""
6.0,0.09516750276088715,0.00089554873776143,"train",7280.0,"2021-11-30 13:37:30.347449","","","","","","",""
6.0,0.07190664112567902,0.0008992515979568724,"train",7300.0,"2021-11-30 13:37:34.378844","","","","","","",""
6.0,0.06407813727855682,0.0009029565993930457,"train",7320.0,"2021-11-30 13:37:38.302742","","","","","","",""
6.0,0.0691397488117218,0.0009066636857048339,"train",7340.0,"2021-11-30 13:37:42.707996","","","","","","",""
6.0,0.10153697431087494,0.0009103728004954039,"train",7360.0,"2021-11-30 13:37:46.743974","","","","","","",""
6.0,0.05306039750576019,0.0009140838873370617,"train",7380.0,"2021-11-30 13:37:50.630320","","","","","","",""
6.0,0.07878311723470688,0.0009177968897721136,"train",7400.0,"2021-11-30 13:37:54.923386","","","","","","",""
6.0,0.07960190623998642,0.0009215117513137218,"train",7420.0,"2021-11-30 13:37:58.839301","","","","","","",""
6.0,0.08980885148048401,0.0009252284154467663,"train",7440.0,"2021-11-30 13:38:02.917043","","","","","","",""
6.0,0.10489938408136368,0.0009289468256287042,"train",7460.0,"2021-11-30 13:38:07.325968","","","","","","",""
6.0,0.06808052957057953,0.0009326669252904287,"train",7480.0,"2021-11-30 13:38:11.371778","","","","","","",""
6.0,0.10004372894763947,0.0009363886578371307,"train",7500.0,"2021-11-30 13:38:15.437656","","","","","","",""
6.0,"","","train",7518.0,"2021-11-30 13:40:03.794660",0.570122971694681,0.5270924546376397,0.9300461491343003,0.5820267681062163,0.42068467877996246,0.43082182012091913,0.2861570152094051
6.0,"","","val",7518.0,"2021-11-30 13:40:32.357883",0.5552012060767715,0.5040658568504468,0.920550125749585,0.5638057347949285,0.4067309025487053,0.4143164746550355,0.2705530430274879
7.0,0.05680513754487038,0.0009401119666491604,"train",7520.0,"2021-11-30 13:40:36.084303","","","","","","",""
7.0,0.08938006311655045,0.0009438367950828869,"train",7540.0,"2021-11-30 13:40:40.080253","","","","","","",""
7.0,0.05955468490719795,0.000947563086471561,"train",7560.0,"2021-11-30 13:40:44.077682","","","","","","",""
7.0,0.06459031999111176,0.0009512907841261783,"train",7580.0,"2021-11-30 13:40:48.550996","","","","","","",""
7.0,0.054556235671043396,0.0009550198313363391,"train",7600.0,"2021-11-30 13:40:52.534691","","","","","","",""
7.0,0.09784777462482452,0.0009587501713711128,"train",7620.0,"2021-11-30 13:40:56.514114","","","","","","",""
7.0,0.07601350545883179,0.0009624817474799023,"train",7640.0,"2021-11-30 13:41:00.855988","","","","","","",""
7.0,0.08967124670743942,0.0009662145028933038,"train",7660.0,"2021-11-30 13:41:04.918223","","","","","","",""
7.0,0.1017773374915123,0.0009699483808239733,"train",7680.0,"2021-11-30 13:41:08.910224","","","","","","",""
7.0,0.0827009454369545,0.0009736833244674895,"train",7700.0,"2021-11-30 13:41:13.336661","","","","","","",""
7.0,0.07466613501310349,0.0009774192770032192,"train",7720.0,"2021-11-30 13:41:17.407746","","","","","","",""
7.0,0.07051801681518555,0.0009811561815951785,"train",7740.0,"2021-11-30 13:41:21.439912","","","","","","",""
7.0,0.06244992837309837,0.0009848939813929015,"train",7760.0,"2021-11-30 13:41:25.865432","","","","","","",""
7.0,0.07573576271533966,0.0009886326195323026,"train",7780.0,"2021-11-30 13:41:29.887606","","","","","","",""
7.0,0.07908337563276291,0.0009923720391365428,"train",7800.0,"2021-11-30 13:41:33.977311","","","","","","",""
7.0,0.089186891913414,0.000996112183316893,"train",7820.0,"2021-11-30 13:41:38.366793","","","","","","",""
7.0,0.07770155370235443,0.0009998529951736029,"train",7840.0,"2021-11-30 13:41:42.300708","","","","","","",""
7.0,0.08654002100229263,0.0010035944177967638,"train",7860.0,"2021-11-30 13:41:46.333538","","","","","","",""
7.0,0.06003721058368683,0.0010073363942671744,"train",7880.0,"2021-11-30 13:41:50.706751","","","","","","",""
7.0,0.08287794888019562,0.0010110788676572094,"train",7900.0,"2021-11-30 13:41:54.738074","","","","","","",""
7.0,0.07898490875959396,0.0010148217810316822,"train",7920.0,"2021-11-30 13:41:58.801183","","","","","","",""
7.0,0.06856675446033478,0.0010185650774487127,"train",7940.0,"2021-11-30 13:42:03.229780","","","","","","",""
7.0,0.0829005092382431,0.0010223086999605951,"train",7960.0,"2021-11-30 13:42:07.376206","","","","","","",""
7.0,0.07387159019708633,0.0010260525916146609,"train",7980.0,"2021-11-30 13:42:11.453954","","","","","","",""
7.0,0.0612756684422493,0.0010297966954541469,"train",8000.0,"2021-11-30 13:42:15.862865","","","","","","",""
7.0,0.05786823108792305,0.001033540954519064,"train",8020.0,"2021-11-30 13:42:19.883308","","","","","","",""
7.0,0.05361611396074295,0.0010372853118470592,"train",8040.0,"2021-11-30 13:42:23.850581","","","","","","",""
7.0,0.05633359029889107,0.0010410297104742857,"train",8060.0,"2021-11-30 13:42:28.191002","","","","","","",""
7.0,0.07312605530023575,0.0010447740934362692,"train",8080.0,"2021-11-30 13:42:32.167645","","","","","","",""
7.0,0.07035426050424576,0.0010485184037687715,"train",8100.0,"2021-11-30 13:42:36.102087","","","","","","",""
7.0,0.06382215023040771,0.0010522625845086615,"train",8120.0,"2021-11-30 13:42:40.477312","","","","","","",""
7.0,0.06615140289068222,0.0010560065786947796,"train",8140.0,"2021-11-30 13:42:44.408048","","","","","","",""
7.0,0.07303790003061295,0.0010597503293688013,"train",8160.0,"2021-11-30 13:42:48.347210","","","","","","",""
7.0,0.05357182398438454,0.001063493779576111,"train",8180.0,"2021-11-30 13:42:52.718053","","","","","","",""
7.0,0.07350309193134308,0.0010672368723666614,"train",8200.0,"2021-11-30 13:42:56.743007","","","","","","",""
7.0,0.08276178687810898,0.0010709795507958426,"train",8220.0,"2021-11-30 13:43:00.723613","","","","","","",""
7.0,0.07924917340278625,0.0010747217579253504,"train",8240.0,"2021-11-30 13:43:05.171666","","","","","","",""
7.0,0.08978647738695145,0.0010784634368240487,"train",8260.0,"2021-11-30 13:43:09.126402","","","","","","",""
7.0,0.07396520674228668,0.0010822045305688382,"train",8280.0,"2021-11-30 13:43:13.039307","","","","","","",""
7.0,0.07922780513763428,0.0010859449822455227,"train",8300.0,"2021-11-30 13:43:17.345730","","","","","","",""
7.0,0.07994341850280762,0.001089684734949672,"train",8320.0,"2021-11-30 13:43:21.275604","","","","","","",""
7.0,0.06470555067062378,0.00109342373178749,"train",8340.0,"2021-11-30 13:43:25.293356","","","","","","",""
7.0,0.07144127786159515,0.0010971619158766821,"train",8360.0,"2021-11-30 13:43:29.651322","","","","","","",""
7.0,0.060342155396938324,0.0011008992303473152,"train",8380.0,"2021-11-30 13:43:33.651964","","","","","","",""
7.0,0.05762334167957306,0.001104635618342687,"train",8400.0,"2021-11-30 13:43:37.660465","","","","","","",""
7.0,0.07808975130319595,0.001108371023020191,"train",8420.0,"2021-11-30 13:43:42.159019","","","","","","",""
7.0,0.08308584988117218,0.0011121053875521787,"train",8440.0,"2021-11-30 13:43:46.125151","","","","","","",""
7.0,0.05881701409816742,0.0011158386551268257,"train",8460.0,"2021-11-30 13:43:50.084021","","","","","","",""
7.0,0.07883598655462265,0.0011195707689489972,"train",8480.0,"2021-11-30 13:43:54.395250","","","","","","",""
7.0,0.060458578169345856,0.0011233016722411097,"train",8500.0,"2021-11-30 13:43:58.369731","","","","","","",""
7.0,0.060057494789361954,0.0011270313082439951,"train",8520.0,"2021-11-30 13:44:02.390697","","","","","","",""
7.0,0.0493440106511116,0.001130759620217767,"train",8540.0,"2021-11-30 13:44:06.813291","","","","","","",""
7.0,0.08454611152410507,0.0011344865514426794,"train",8560.0,"2021-11-30 13:44:10.880867","","","","","","",""
7.0,0.06542720645666122,0.0011382120452199938,"train",8580.0,"2021-11-30 13:44:14.937339","","","","","","",""
7.0,"","","train",8592.0,"2021-11-30 13:45:59.947098",0.5915884450265589,0.5529880224126676,0.9350358615076231,0.5929780846254015,0.43269487403752777,0.4450484855631336,0.30253358965396243
7.0,"","","val",8592.0,"2021-11-30 13:46:28.018753",0.5757277049750666,0.5279469649332756,0.9269772448755883,0.5713921367421805,0.416388585616437,0.42634205026875116,0.2835641979820388
8.0,0.08155547827482224,0.001141936044872839,"train",8600.0,"2021-11-30 13:46:33.776860","","","","","","",""
8.0,0.08460494130849838,0.0011456584937470744,"train",8620.0,"2021-11-30 13:46:37.912864","","","","","","",""
8.0,0.07818276435136795,0.0011493793352121522,"train",8640.0,"2021-11-30 13:46:41.875097","","","","","","",""
8.0,0.07681166380643845,0.0011530985126619784,"train",8660.0,"2021-11-30 13:46:46.135245","","","","","","",""
8.0,0.04867254197597504,0.001156815969515773,"train",8680.0,"2021-11-30 13:46:50.135352","","","","","","",""
8.0,0.05325663834810257,0.001160531649218934,"train",8700.0,"2021-11-30 13:46:54.134712","","","","","","",""
8.0,0.0917903482913971,0.001164245495243894,"train",8720.0,"2021-11-30 13:46:58.422998","","","","","","",""
8.0,0.10110246390104294,0.0011679574510909817,"train",8740.0,"2021-11-30 13:47:02.374610","","","","","","",""
8.0,0.06419949233531952,0.0011716674602892828,"train",8760.0,"2021-11-30 13:47:06.392984","","","","","","",""
8.0,0.09108506888151169,0.0011753754663974968,"train",8780.0,"2021-11-30 13:47:10.671023","","","","","","",""
8.0,0.07868731021881104,0.0011790814130047968,"train",8800.0,"2021-11-30 13:47:14.731292","","","","","","",""
8.0,0.09082978218793869,0.001182785243731688,"train",8820.0,"2021-11-30 13:47:18.866427","","","","","","",""
8.0,0.06004232540726662,0.0011864869022308656,"train",8840.0,"2021-11-30 13:47:23.254920","","","","","","",""
8.0,0.046200644224882126,0.0011901863321880693,"train",8860.0,"2021-11-30 13:47:27.246179","","","","","","",""
8.0,0.0544404536485672,0.001193883477322945,"train",8880.0,"2021-11-30 13:47:31.189901","","","","","","",""
8.0,0.07303588092327118,0.0011975782813898961,"train",8900.0,"2021-11-30 13:47:35.643402","","","","","","",""
8.0,0.08164989203214645,0.0012012706881789417,"train",8920.0,"2021-11-30 13:47:39.783861","","","","","","",""
8.0,0.0592040941119194,0.001204960641516572,"train",8940.0,"2021-11-30 13:47:43.708384","","","","","","",""
8.0,0.0724700465798378,0.0012086480852666014,"train",8960.0,"2021-11-30 13:47:48.019189","","","","","","",""
8.0,0.06656411290168762,0.0012123329633310235,"train",8980.0,"2021-11-30 13:47:52.130513","","","","","","",""
8.0,0.05998826399445534,0.0012160152196508643,"train",9000.0,"2021-11-30 13:47:56.273750","","","","","","",""
8.0,0.09333105385303497,0.0012196947982070355,"train",9020.0,"2021-11-30 13:48:00.620341","","","","","","",""
8.0,0.049655236303806305,0.0012233716430211856,"train",9040.0,"2021-11-30 13:48:04.671274","","","","","","",""
8.0,0.08032472431659698,0.001227045698156553,"train",9060.0,"2021-11-30 13:48:08.788726","","","","","","",""
8.0,0.05771844461560249,0.0012307169077188148,"train",9080.0,"2021-11-30 13:48:13.191830","","","","","","",""
8.0,0.08630968630313873,0.0012343852158569401,"train",9100.0,"2021-11-30 13:48:17.136610","","","","","","",""
8.0,0.07846628129482269,0.0012380505667640377,"train",9120.0,"2021-11-30 13:48:21.075444","","","","","","",""
8.0,0.06429313868284225,0.0012417129046782046,"train",9140.0,"2021-11-30 13:48:25.385368","","","","","","",""
8.0,0.07126986235380173,0.0012453721738833758,"train",9160.0,"2021-11-30 13:48:29.349279","","","","","","",""
8.0,0.05961047112941742,0.001249028318710172,"train",9180.0,"2021-11-30 13:48:33.291782","","","","","","",""
8.0,0.06620850414037704,0.0012526812835367447,"train",9200.0,"2021-11-30 13:48:37.622505","","","","","","",""
8.0,0.04803089797496796,0.0012563310127896242,"train",9220.0,"2021-11-30 13:48:41.594953","","","","","","",""
8.0,0.07963507622480392,0.0012599774509445645,"train",9240.0,"2021-11-30 13:48:45.597843","","","","","","",""
8.0,0.05437799170613289,0.0012636205425273874,"train",9260.0,"2021-11-30 13:48:49.874699","","","","","","",""
8.0,0.06035473197698593,0.0012672602321148268,"train",9280.0,"2021-11-30 13:48:53.799307","","","","","","",""
8.0,0.09519787132740021,0.0012708964643353732,"train",9300.0,"2021-11-30 13:48:57.702989","","","","","","",""
8.0,0.09127165377140045,0.001274529183870114,"train",9320.0,"2021-11-30 13:49:02.120629","","","","","","",""
8.0,0.0968235656619072,0.0012781583354535748,"train",9340.0,"2021-11-30 13:49:06.078729","","","","","","",""
8.0,0.06904083490371704,0.0012817838638745646,"train",9360.0,"2021-11-30 13:49:10.067611","","","","","","",""
8.0,0.12009637802839279,0.001285405713977009,"train",9380.0,"2021-11-30 13:49:14.402418","","","","","","",""
8.0,0.0881771594285965,0.0012890238306607947,"train",9400.0,"2021-11-30 13:49:18.328955","","","","","","",""
8.0,0.0782751515507698,0.001292638158882606,"train",9420.0,"2021-11-30 13:49:22.305668","","","","","","",""
8.0,0.053794100880622864,0.0012962486436567603,"train",9440.0,"2021-11-30 13:49:26.589750","","","","","","",""
8.0,0.08044472336769104,0.0012998552300560484,"train",9460.0,"2021-11-30 13:49:30.507882","","","","","","",""
8.0,0.07200220227241516,0.0013034578632125668,"train",9480.0,"2021-11-30 13:49:34.436077","","","","","","",""
8.0,0.06029696762561798,0.0013070564883185534,"train",9500.0,"2021-11-30 13:49:38.704275","","","","","","",""
8.0,0.0657920390367508,0.001310651050627223,"train",9520.0,"2021-11-30 13:49:42.605498","","","","","","",""
8.0,0.05587930604815483,0.001314241495453598,"train",9540.0,"2021-11-30 13:49:46.482309","","","","","","",""
8.0,0.08352889120578766,0.00131782776817534,"train",9560.0,"2021-11-30 13:49:50.719977","","","","","","",""
8.0,0.05317803844809532,0.0013214098142335837,"train",9580.0,"2021-11-30 13:49:54.633171","","","","","","",""
8.0,0.06824861466884613,0.001324987579133764,"train",9600.0,"2021-11-30 13:49:58.621641","","","","","","",""
8.0,0.06378771364688873,0.0013285610084464463,"train",9620.0,"2021-11-30 13:50:02.982697","","","","","","",""
8.0,0.05613822489976883,0.001332130047808155,"train",9640.0,"2021-11-30 13:50:06.877101","","","","","","",""
8.0,0.09012618660926819,0.001335694642922199,"train",9660.0,"2021-11-30 13:50:10.810659","","","","","","",""
8.0,"","","train",9666.0,"2021-11-30 13:51:55.001322",0.5981663392272429,0.5680961745775762,0.937451367085032,0.6109819968772168,0.4690160856441292,0.4837326051654224,0.32248266757619404
8.0,"","","val",9666.0,"2021-11-30 13:52:23.022254",0.5787428969036298,0.5410237070324355,0.9292236351903844,0.5895076584101,0.4525318456983556,0.46341811102675573,0.30259615675606427
9.0,0.08265795558691025,0.0013392547395594985,"train",9680.0,"2021-11-30 13:52:29.775243","","","","","","",""
9.0,0.07804303616285324,0.001342810283559412,"train",9700.0,"2021-11-30 13:52:33.868094","","","","","","",""
9.0,0.06388427317142487,0.0013463612208305564,"train",9720.0,"2021-11-30 13:52:37.953076","","","","","","",""
9.0,0.10136920213699341,0.0013499074973516321,"train",9740.0,"2021-11-30 13:52:42.398146","","","","","","",""
9.0,0.09177202731370926,0.0013534490591722464,"train",9760.0,"2021-11-30 13:52:46.313351","","","","","","",""
9.0,0.034085873514413834,0.0013569858524137305,"train",9780.0,"2021-11-30 13:52:50.242709","","","","","","",""
9.0,0.09083153307437897,0.001360517823269962,"train",9800.0,"2021-11-30 13:52:54.657652","","","","","","",""
9.0,0.09799548983573914,0.0013640449180081834,"train",9820.0,"2021-11-30 13:52:58.576679","","","","","","",""
9.0,0.06879361718893051,0.0013675670829698173,"train",9840.0,"2021-11-30 13:53:02.522128","","","","","","",""
9.0,0.09121348708868027,0.0013710842645712853,"train",9860.0,"2021-11-30 13:53:06.880417","","","","","","",""
9.0,0.059732623398303986,0.0013745964093048219,"train",9880.0,"2021-11-30 13:53:10.905681","","","","","","",""
9.0,0.0920126661658287,0.0013781034637392886,"train",9900.0,"2021-11-30 13:53:14.940756","","","","","","",""
9.0,0.07849172502756119,0.0013816053745209864,"train",9920.0,"2021-11-30 13:53:19.271390","","","","","","",""
9.0,0.0646076574921608,0.0013851020883744697,"train",9940.0,"2021-11-30 13:53:23.187850","","","","","","",""
9.0,0.06646925210952759,0.001388593552103353,"train",9960.0,"2021-11-30 13:53:27.091928","","","","","","",""
9.0,0.06226852536201477,0.0013920797125911233,"train",9980.0,"2021-11-30 13:53:31.382475","","","","","","",""
9.0,0.05105459317564964,0.001395560516801947,"train",10000.0,"2021-11-30 13:53:35.391088","","","","","","",""
9.0,0.07604440301656723,0.0013990359117814774,"train",10020.0,"2021-11-30 13:53:39.450429","","","","","","",""
9.0,0.07628189772367477,0.0014025058446576583,"train",10040.0,"2021-11-30 13:53:43.890982","","","","","","",""
9.0,0.06885740906000137,0.0014059702626415317,"train",10060.0,"2021-11-30 13:53:47.958294","","","","","","",""
9.0,0.08126343786716461,0.0014094291130280377,"train",10080.0,"2021-11-30 13:53:52.118296","","","","","","",""
9.0,0.05802508816123009,0.0014128823431968183,"train",10100.0,"2021-11-30 13:53:56.517234","","","","","","",""
9.0,0.07268022000789642,0.001416329900613017,"train",10120.0,"2021-11-30 13:54:00.460672","","","","","","",""
9.0,0.08849773555994034,0.0014197717328280782,"train",10140.0,"2021-11-30 13:54:04.492769","","","","","","",""
9.0,0.08110768347978592,0.0014232077874805457,"train",10160.0,"2021-11-30 13:54:08.889699","","","","","","",""
9.0,0.07996732741594315,0.0014266380122968589,"train",10180.0,"2021-11-30 13:54:12.886027","","","","","","",""
9.0,0.09270371496677399,0.0014300623550921468,"train",10200.0,"2021-11-30 13:54:16.891646","","","","","","",""
9.0,0.059507135301828384,0.0014334807637710243,"train",10220.0,"2021-11-30 13:54:21.208875","","","","","","",""
9.0,0.07556422799825668,0.0014368931863283831,"train",10240.0,"2021-11-30 13:54:25.268213","","","","","","",""
9.0,0.06455447524785995,0.0014402995708501826,"train",10260.0,"2021-11-30 13:54:29.300366","","","","","","",""
9.0,0.05037372186779976,0.0014436998655142422,"train",10280.0,"2021-11-30 13:54:33.772386","","","","","","",""
9.0,0.0540645606815815,0.0014470940185910258,"train",10300.0,"2021-11-30 13:54:37.920519","","","","","","",""
9.0,0.04362615942955017,0.001450481978444431,"train",10320.0,"2021-11-30 13:54:42.065133","","","","","","",""
9.0,0.0571819469332695,0.0014538636935325763,"train",10340.0,"2021-11-30 13:54:46.517125","","","","","","",""
9.0,0.06324195861816406,0.0014572391124085817,"train",10360.0,"2021-11-30 13:54:50.559615","","","","","","",""
9.0,0.050857845693826675,0.0014606081837213525,"train",10380.0,"2021-11-30 13:54:54.560512","","","","","","",""
9.0,0.08351718634366989,0.0014639708562163639,"train",10400.0,"2021-11-30 13:54:59.059412","","","","","","",""
9.0,0.08267349749803543,0.001467327078736435,"train",10420.0,"2021-11-30 13:55:03.144767","","","","","","",""
9.0,0.061873629689216614,0.0014706768002225108,"train",10440.0,"2021-11-30 13:55:07.212611","","","","","","",""
9.0,0.06297888606786728,0.0014740199697144392,"train",10460.0,"2021-11-30 13:55:11.566662","","","","","","",""
9.0,0.07051673531532288,0.0014773565363517442,"train",10480.0,"2021-11-30 13:55:15.527002","","","","","","",""
9.0,0.07151006162166595,0.0014806864493744007,"train",10500.0,"2021-11-30 13:55:19.456371","","","","","","",""
9.0,0.07093366235494614,0.0014840096581236072,"train",10520.0,"2021-11-30 13:55:23.759731","","","","","","",""
9.0,0.06785468757152557,0.001487326112042556,"train",10540.0,"2021-11-30 13:55:27.705397","","","","","","",""
9.0,0.09446575492620468,0.0014906357606772013,"train",10560.0,"2021-11-30 13:55:31.570875","","","","","","",""
9.0,0.10475034266710281,0.0014939385536770291,"train",10580.0,"2021-11-30 13:55:36.004311","","","","","","",""
9.0,0.057457711547613144,0.0014972344407958218,"train",10600.0,"2021-11-30 13:55:40.091857","","","","","","",""
9.0,0.047824323177337646,0.0015005233718924213,"train",10620.0,"2021-11-30 13:55:44.044853","","","","","","",""
9.0,0.06311812251806259,0.0015038052969314946,"train",10640.0,"2021-11-30 13:55:48.495102","","","","","","",""
9.0,0.0557837150990963,0.0015070801659842939,"train",10660.0,"2021-11-30 13:55:52.582875","","","","","","",""
9.0,0.05932290107011795,0.001510347929229414,"train",10680.0,"2021-11-30 13:55:56.649815","","","","","","",""
9.0,0.08452671766281128,0.0015136085369535537,"train",10700.0,"2021-11-30 13:56:01.118515","","","","","","",""
9.0,0.06790664047002792,0.0015168619395522708,"train",10720.0,"2021-11-30 13:56:05.236491","","","","","","",""
9.0,0.057960521429777145,0.0015201080875307349,"train",10740.0,"2021-11-30 13:56:09.252494","","","","","","",""
9.0,"","","train",10740.0,"2021-11-30 13:57:52.098347",0.5992869096994834,0.5911659321343365,0.9410631009559902,0.6445607552175068,0.49753643795880864,0.5060673882851499,0.34351270372269593
9.0,"","","val",10740.0,"2021-11-30 13:58:20.272448",0.5794966948857706,0.5593016519531541,0.9327245130205805,0.6187785693231109,0.47358740359806795,0.47865964595294525,0.3180646903371994
10.0,0.0741075649857521,0.0015233469315044834,"train",10760.0,"2021-11-30 13:58:28.028358","","","","","","",""
10.0,0.08323770761489868,0.0015265784222001709,"train",10780.0,"2021-11-30 13:58:32.160241","","","","","","",""
10.0,0.0652056485414505,0.0015298025104563185,"train",10800.0,"2021-11-30 13:58:36.237346","","","","","","",""
10.0,0.048897456377744675,0.001533019147224064,"train",10820.0,"2021-11-30 13:58:40.695488","","","","","","",""
10.0,0.061531949788331985,0.0015362282835679054,"train",10840.0,"2021-11-30 13:58:44.853591","","","","","","",""
10.0,0.04623478278517723,0.0015394298706664469,"train",10860.0,"2021-11-30 13:58:48.960360","","","","","","",""
10.0,0.05345523729920387,0.001542623859813141,"train",10880.0,"2021-11-30 13:58:53.388865","","","","","","",""
10.0,0.10349894315004349,0.00154581020241703,"train",10900.0,"2021-11-30 13:58:57.505465","","","","","","",""
10.0,0.07862702012062073,0.0015489888500034858,"train",10920.0,"2021-11-30 13:59:01.624418","","","","","","",""
10.0,0.058566585183143616,0.0015521597542149444,"train",10940.0,"2021-11-30 13:59:06.014070","","","","","","",""
10.0,0.061002302914857864,0.0015553228668116455,"train",10960.0,"2021-11-30 13:59:10.004929","","","","","","",""
10.0,0.057664427906274796,0.0015584781396723642,"train",10980.0,"2021-11-30 13:59:14.014992","","","","","","",""
10.0,0.07346417754888535,0.0015616255247951432,"train",11000.0,"2021-11-30 13:59:18.366156","","","","","","",""
10.0,0.060226790606975555,0.0015647649742980233,"train",11020.0,"2021-11-30 13:59:22.401260","","","","","","",""
10.0,0.08149772882461548,0.0015678964404197727,"train",11040.0,"2021-11-30 13:59:26.465972","","","","","","",""
10.0,0.05597982555627823,0.0015710198755206112,"train",11060.0,"2021-11-30 13:59:31.006643","","","","","","",""
10.0,0.06495130807161331,0.0015741352320829379,"train",11080.0,"2021-11-30 13:59:35.058455","","","","","","",""
10.0,0.06433548033237457,0.0015772424627120527,"train",11100.0,"2021-11-30 13:59:38.986983","","","","","","",""
10.0,0.06461365520954132,0.0015803415201368761,"train",11120.0,"2021-11-30 13:59:43.277297","","","","","","",""
10.0,0.08904191851615906,0.001583432357210671,"train",11140.0,"2021-11-30 13:59:47.232359","","","","","","",""
10.0,0.08986884355545044,0.001586514926911758,"train",11160.0,"2021-11-30 13:59:51.146076","","","","","","",""
10.0,0.048514124006032944,0.0015895891823442313,"train",11180.0,"2021-11-30 13:59:55.386335","","","","","","",""
10.0,0.09693771600723267,0.0015926550767386717,"train",11200.0,"2021-11-30 13:59:59.331580","","","","","","",""
10.0,0.05549783259630203,0.0015957125634528599,"train",11220.0,"2021-11-30 14:00:03.248173","","","","","","",""
10.0,0.07086915522813797,0.0015987615959724836,"train",11240.0,"2021-11-30 14:00:07.640688","","","","","","",""
10.0,0.07429204136133194,0.0016018021279118457,"train",11260.0,"2021-11-30 14:00:11.681668","","","","","","",""
10.0,0.06392563879489899,0.0016048341130145728,"train",11280.0,"2021-11-30 14:00:15.632729","","","","","","",""
10.0,0.06392569839954376,0.0016078575051543145,"train",11300.0,"2021-11-30 14:00:20.083673","","","","","","",""
10.0,0.05570196360349655,0.0016108722583354478,"train",11320.0,"2021-11-30 14:00:24.235041","","","","","","",""
10.0,0.05568137764930725,0.0016138783266937777,"train",11340.0,"2021-11-30 14:00:28.288139","","","","","","",""
10.0,0.07256947457790375,0.0016168756644972322,"train",11360.0,"2021-11-30 14:00:32.708445","","","","","","",""
10.0,0.05416712537407875,0.0016198642261465587,"train",11380.0,"2021-11-30 14:00:36.782335","","","","","","",""
10.0,0.051574625074863434,0.0016228439661760208,"train",11400.0,"2021-11-30 14:00:40.885746","","","","","","",""
10.0,0.07885896414518356,0.001625814839254086,"train",11420.0,"2021-11-30 14:00:45.335257","","","","","","",""
10.0,0.05547419562935829,0.0016287768001841164,"train",11440.0,"2021-11-30 14:00:49.380889","","","","","","",""
10.0,0.10217616707086563,0.001631729803905059,"train",11460.0,"2021-11-30 14:00:53.488408","","","","","","",""
10.0,0.08272834867238998,0.0016346738054921273,"train",11480.0,"2021-11-30 14:00:57.881134","","","","","","",""
10.0,0.09101574867963791,0.001637608760157486,"train",11500.0,"2021-11-30 14:01:01.798935","","","","","","",""
10.0,0.06477055698633194,0.0016405346232509356,"train",11520.0,"2021-11-30 14:01:05.737153","","","","","","",""
10.0,0.054749324917793274,0.0016434513502605861,"train",11540.0,"2021-11-30 14:01:10.000777","","","","","","",""
10.0,0.08450017124414444,0.0016463588968135383,"train",11560.0,"2021-11-30 14:01:13.908194","","","","","","",""
10.0,0.09392223507165909,0.0016492572186765577,"train",11580.0,"2021-11-30 14:01:17.851216","","","","","","",""
10.0,0.10025321692228317,0.001652146271756747,"train",11600.0,"2021-11-30 14:01:22.239623","","","","","","",""
10.0,0.07129564881324768,0.0016550260121022172,"train",11620.0,"2021-11-30 14:01:26.137815","","","","","","",""
10.0,0.07238572835922241,0.0016578963959027562,"train",11640.0,"2021-11-30 14:01:30.113378","","","","","","",""
10.0,0.08223102986812592,0.001660757379490496,"train",11660.0,"2021-11-30 14:01:34.527157","","","","","","",""
10.0,0.07832779735326767,0.0016636089193405761,"train",11680.0,"2021-11-30 14:01:38.558664","","","","","","",""
10.0,0.06833799928426743,0.0016664509720718049,"train",11700.0,"2021-11-30 14:01:42.591223","","","","","","",""
10.0,0.07797816395759583,0.0016692834944473224,"train",11720.0,"2021-11-30 14:01:46.881159","","","","","","",""
10.0,0.0739009752869606,0.0016721064433752554,"train",11740.0,"2021-11-30 14:01:50.801407","","","","","","",""
10.0,0.06487373262643814,0.0016749197759093734,"train",11760.0,"2021-11-30 14:01:54.758106","","","","","","",""
10.0,0.12233087420463562,0.0016777234492497436,"train",11780.0,"2021-11-30 14:01:59.111920","","","","","","",""
10.0,0.08009331673383713,0.0016805174207433808,"train",11800.0,"2021-11-30 14:02:03.085424","","","","","","",""
10.0,"","","train",11814.0,"2021-11-30 14:03:50.511524",0.6056465109510296,0.5959359174339874,0.9459465887228953,0.6420582514850938,0.5224021435672807,0.5391274158864128,0.35388626498340003
10.0,"","","val",11814.0,"2021-11-30 14:04:18.491842",0.5850052186014149,0.5627992647018324,0.9350520090464673,0.6158176762076424,0.49814560331933666,0.5119916403878364,0.3282495992746356
11.0,0.06858339160680771,0.0016833016478848956,"train",11820.0,"2021-11-30 14:04:24.846390","","","","","","",""
11.0,0.07477608323097229,0.0016860760883171426,"train",11840.0,"2021-11-30 14:04:29.270149","","","","","","",""
11.0,0.05261893570423126,0.001688840699831864,"train",11860.0,"2021-11-30 14:04:33.393068","","","","","","",""
11.0,0.0761876329779625,0.0016915954403703313,"train",11880.0,"2021-11-30 14:04:37.502677","","","","","","",""
11.0,0.07498997449874878,0.0016943402680239862,"train",11900.0,"2021-11-30 14:04:41.918697","","","","","","",""
11.0,0.0860571637749672,0.0016970751410350774,"train",11920.0,"2021-11-30 14:04:45.846142","","","","","","",""
11.0,0.061766281723976135,0.001699800017797296,"train",11940.0,"2021-11-30 14:04:49.792910","","","","","","",""
11.0,0.07639995962381363,0.0017025148568564086,"train",11960.0,"2021-11-30 14:04:54.146842","","","","","","",""
11.0,0.06133834272623062,0.001705219616910888,"train",11980.0,"2021-11-30 14:04:58.079798","","","","","","",""
11.0,0.09558180719614029,0.001707914256812541,"train",12000.0,"2021-11-30 14:05:02.064208","","","","","","",""
11.0,0.05729839950799942,0.0017105987355671352,"train",12020.0,"2021-11-30 14:05:06.407582","","","","","","",""
11.0,0.08852874487638474,0.0017132730123350227,"train",12040.0,"2021-11-30 14:05:10.338840","","","","","","",""
11.0,0.07393062859773636,0.00171593704643176,"train",12060.0,"2021-11-30 14:05:14.318544","","","","","","",""
11.0,0.04563269391655922,0.0017185907973287285,"train",12080.0,"2021-11-30 14:05:18.743384","","","","","","",""
11.0,0.10988502949476242,0.0017212342246537506,"train",12100.0,"2021-11-30 14:05:22.687249","","","","","","",""
11.0,0.054950837045907974,0.0017238672881917032,"train",12120.0,"2021-11-30 14:05:26.590160","","","","","","",""
11.0,0.06489376723766327,0.001726489947885131,"train",12140.0,"2021-11-30 14:05:30.932346","","","","","","",""
11.0,0.08299937099218369,0.0017291021638348543,"train",12160.0,"2021-11-30 14:05:34.860893","","","","","","",""
11.0,0.035588815808296204,0.0017317038963005765,"train",12180.0,"2021-11-30 14:05:38.837119","","","","","","",""
11.0,0.051511410623788834,0.00173429510570149,"train",12200.0,"2021-11-30 14:05:43.195306","","","","","","",""
11.0,0.08326520025730133,0.0017368757526168759,"train",12220.0,"2021-11-30 14:05:47.162252","","","","","","",""
11.0,0.08871879428625107,0.0017394457977867057,"train",12240.0,"2021-11-30 14:05:51.188285","","","","","","",""
11.0,0.04964323714375496,0.0017420052021122378,"train",12260.0,"2021-11-30 14:05:55.507423","","","","","","",""
11.0,0.053912367671728134,0.0017445539266566128,"train",12280.0,"2021-11-30 14:05:59.418215","","","","","","",""
11.0,0.1288745254278183,0.001747091932645445,"train",12300.0,"2021-11-30 14:06:03.351940","","","","","","",""
11.0,0.07785841077566147,0.0017496191814674125,"train",12320.0,"2021-11-30 14:06:07.656397","","","","","","",""
11.0,0.06322958320379257,0.001752135634674846,"train",12340.0,"2021-11-30 14:06:11.664263","","","","","","",""
11.0,0.049493689090013504,0.0017546412539843118,"train",12360.0,"2021-11-30 14:06:15.813052","","","","","","",""
11.0,0.09108251333236694,0.001757136001277194,"train",12380.0,"2021-11-30 14:06:20.220919","","","","","","",""
11.0,0.038594476878643036,0.001759619838600278,"train",12400.0,"2021-11-30 14:06:24.339776","","","","","","",""
11.0,0.04726402461528778,0.0017620927281663229,"train",12420.0,"2021-11-30 14:06:28.433269","","","","","","",""
11.0,0.08503487706184387,0.0017645546323546398,"train",12440.0,"2021-11-30 14:06:32.885916","","","","","","",""
11.0,0.07289053499698639,0.0017670055137116636,"train",12460.0,"2021-11-30 14:06:36.990432","","","","","","",""
11.0,0.06445632129907608,0.0017694453349515209,"train",12480.0,"2021-11-30 14:06:41.087453","","","","","","",""
11.0,0.04431610926985741,0.0017718740589566,"train",12500.0,"2021-11-30 14:06:45.571794","","","","","","",""
11.0,0.06518340110778809,0.0017742916487781134,"train",12520.0,"2021-11-30 14:06:49.683733","","","","","","",""
11.0,0.06212770193815231,0.0017766980676366608,"train",12540.0,"2021-11-30 14:06:53.751894","","","","","","",""
11.0,0.07703971862792969,0.001779093278922789,"train",12560.0,"2021-11-30 14:06:58.195416","","","","","","",""
11.0,0.0908355712890625,0.001781477246197548,"train",12580.0,"2021-11-30 14:07:02.283649","","","","","","",""
11.0,0.0670798271894455,0.0017838499331930462,"train",12600.0,"2021-11-30 14:07:06.351220","","","","","","",""
11.0,0.06241842731833458,0.001786211303813001,"train",12620.0,"2021-11-30 14:07:10.713914","","","","","","",""
11.0,0.07213892787694931,0.0017885613221332894,"train",12640.0,"2021-11-30 14:07:14.700824","","","","","","",""
11.0,0.07461827993392944,0.0017908999524024931,"train",12660.0,"2021-11-30 14:07:18.686028","","","","","","",""
11.0,0.04621030017733574,0.0017932271590424438,"train",12680.0,"2021-11-30 14:07:23.115866","","","","","","",""
11.0,0.08543819934129715,0.0017955429066487635,"train",12700.0,"2021-11-30 14:07:27.158212","","","","","","",""
11.0,0.05202266946434975,0.0017978471599914025,"train",12720.0,"2021-11-30 14:07:31.075074","","","","","","",""
11.0,0.06268062442541122,0.0018001398840151778,"train",12740.0,"2021-11-30 14:07:35.332784","","","","","","",""
11.0,0.07814449071884155,0.0018024210438403031,"train",12760.0,"2021-11-30 14:07:39.231528","","","","","","",""
11.0,0.06468885391950607,0.0018046906047629228,"train",12780.0,"2021-11-30 14:07:43.238271","","","","","","",""
11.0,0.054051633924245834,0.0018069485322556372,"train",12800.0,"2021-11-30 14:07:47.663604","","","","","","",""
11.0,0.07578925043344498,0.001809194791968029,"train",12820.0,"2021-11-30 14:07:51.602052","","","","","","",""
11.0,0.0520499013364315,0.0018114293497271863,"train",12840.0,"2021-11-30 14:07:55.638593","","","","","","",""
11.0,0.06199054792523384,0.0018136521715382218,"train",12860.0,"2021-11-30 14:08:00.144067","","","","","","",""
11.0,0.07960211485624313,0.0018158632235847892,"train",12880.0,"2021-11-30 14:08:04.304275","","","","","","",""
11.0,"","","train",12888.0,"2021-11-30 14:09:48.583008",0.6181619733682602,0.6192625544760028,0.9477436563048656,0.6626133988251777,0.5173505017631849,0.5395937183796569,0.36133565543167656
11.0,"","","val",12888.0,"2021-11-30 14:10:16.053815",0.5970080018555027,0.5756122709346181,0.9373892186171188,0.6336290924626374,0.48619015584827835,0.5067760652180839,0.3313773813742644
12.0,0.054388608783483505,0.0018180624722295999,"train",12900.0,"2021-11-30 14:10:21.911719","","","","","","",""
12.0,0.057780928909778595,0.001820249884014933,"train",12920.0,"2021-11-30 14:10:26.322096","","","","","","",""
12.0,0.08714230358600616,0.001822425425663144,"train",12940.0,"2021-11-30 14:10:30.294395","","","","","","",""
12.0,0.05541020259261131,0.0018245890640771725,"train",12960.0,"2021-11-30 14:10:34.233908","","","","","","",""
12.0,0.04768173769116402,0.0018267407663410452,"train",12980.0,"2021-11-30 14:10:38.583860","","","","","","",""
12.0,0.061459653079509735,0.0018288804997203755,"train",13000.0,"2021-11-30 14:10:42.654780","","","","","","",""
12.0,0.08870305120944977,0.0018310082316628634,"train",13020.0,"2021-11-30 14:10:46.716883","","","","","","",""
12.0,0.07124066352844238,0.0018331239297987893,"train",13040.0,"2021-11-30 14:10:51.069163","","","","","","",""
12.0,0.07005883008241653,0.0018352275619415066,"train",13060.0,"2021-11-30 14:10:55.009889","","","","","","",""
12.0,0.10041625797748566,0.0018373190960879326,"train",13080.0,"2021-11-30 14:10:58.964378","","","","","","",""
12.0,0.08227940648794174,0.0018393985004190336,"train",13100.0,"2021-11-30 14:11:03.395705","","","","","","",""
12.0,0.06554710119962692,0.00184146574330031,"train",13120.0,"2021-11-30 14:11:07.382151","","","","","","",""
12.0,0.05078040063381195,0.001843520793282278,"train",13140.0,"2021-11-30 14:11:11.296722","","","","","","",""
12.0,0.09623654186725616,0.0018455636191009464,"train",13160.0,"2021-11-30 14:11:15.607370","","","","","","",""
12.0,0.052131928503513336,0.001847594189678294,"train",13180.0,"2021-11-30 14:11:19.544271","","","","","","",""
12.0,0.05408339574933052,0.0018496124741227415,"train",13200.0,"2021-11-30 14:11:23.517275","","","","","","",""
12.0,0.06395156681537628,0.001851618441729622,"train",13220.0,"2021-11-30 14:11:27.868213","","","","","","",""
12.0,0.08878319710493088,0.0018536120619816467,"train",13240.0,"2021-11-30 14:11:31.858881","","","","","","",""
12.0,0.08121941983699799,0.0018555933045493712,"train",13260.0,"2021-11-30 14:11:35.907612","","","","","","",""
12.0,0.07923761010169983,0.0018575621392916554,"train",13280.0,"2021-11-30 14:11:40.347607","","","","","","",""
12.0,0.05673230066895485,0.0018595185362561225,"train",13300.0,"2021-11-30 14:11:44.423266","","","","","","",""
12.0,0.10839322954416275,0.0018614624656796155,"train",13320.0,"2021-11-30 14:11:48.491761","","","","","","",""
12.0,0.06335184723138809,0.0018633938979886484,"train",13340.0,"2021-11-30 14:11:53.030930","","","","","","",""
12.0,0.07300189137458801,0.0018653128037998568,"train",13360.0,"2021-11-30 14:11:57.228951","","","","","","",""
12.0,0.11266504973173141,0.0018672191539204459,"train",13380.0,"2021-11-30 14:12:01.152401","","","","","","",""
12.0,0.07215460389852524,0.0018691129193486335,"train",13400.0,"2021-11-30 14:12:05.426828","","","","","","",""
12.0,0.0697726309299469,0.0018709940712740908,"train",13420.0,"2021-11-30 14:12:09.407837","","","","","","",""
12.0,0.05427715554833412,0.0018728625810783823,"train",13440.0,"2021-11-30 14:12:13.401875","","","","","","",""
12.0,0.0940132886171341,0.0018747184203353996,"train",13460.0,"2021-11-30 14:12:17.743022","","","","","","",""
12.0,0.07436388731002808,0.0018765615608117947,"train",13480.0,"2021-11-30 14:12:21.799499","","","","","","",""
12.0,0.08387063443660736,0.0018783919744674096,"train",13500.0,"2021-11-30 14:12:25.799286","","","","","","",""
12.0,0.0933336541056633,0.0018802096334557027,"train",13520.0,"2021-11-30 14:12:30.065445","","","","","","",""
12.0,0.10013581067323685,0.0018820145101241712,"train",13540.0,"2021-11-30 14:12:34.047036","","","","","","",""
12.0,0.07041799277067184,0.0018838065770147745,"train",13560.0,"2021-11-30 14:12:38.057214","","","","","","",""
12.0,0.06258418411016464,0.0018855858068643496,"train",13580.0,"2021-11-30 14:12:42.498924","","","","","","",""
12.0,0.05678410083055496,0.001887352172605026,"train",13600.0,"2021-11-30 14:12:46.610480","","","","","","",""
12.0,0.047870781272649765,0.0018891056473646398,"train",13620.0,"2021-11-30 14:12:50.616776","","","","","","",""
12.0,0.05929278954863548,0.0018908462044671395,"train",13640.0,"2021-11-30 14:12:54.997262","","","","","","",""
12.0,0.060507629066705704,0.001892573817432993,"train",13660.0,"2021-11-30 14:12:59.003217","","","","","","",""
12.0,0.06657490134239197,0.0018942884599795914,"train",13680.0,"2021-11-30 14:13:03.042338","","","","","","",""
12.0,0.04970041289925575,0.001895990106021648,"train",13700.0,"2021-11-30 14:13:07.403976","","","","","","",""
12.0,0.08333364129066467,0.0018976787296715943,"train",13720.0,"2021-11-30 14:13:11.489159","","","","","","",""
12.0,0.04156674072146416,0.0018993543052399757,"train",13740.0,"2021-11-30 14:13:15.545675","","","","","","",""
12.0,0.07309062778949738,0.0019010168072358413,"train",13760.0,"2021-11-30 14:13:19.973569","","","","","","",""
12.0,0.06014270707964897,0.0019026662103671305,"train",13780.0,"2021-11-30 14:13:24.020225","","","","","","",""
12.0,0.0847150981426239,0.0019043024895410605,"train",13800.0,"2021-11-30 14:13:28.228988","","","","","","",""
12.0,0.07733757793903351,0.001905925619864506,"train",13820.0,"2021-11-30 14:13:32.706783","","","","","","",""
12.0,0.05629931390285492,0.001907535576644378,"train",13840.0,"2021-11-30 14:13:36.572383","","","","","","",""
12.0,0.06622392684221268,0.0019091323353880008,"train",13860.0,"2021-11-30 14:13:40.409011","","","","","","",""
12.0,0.07240021228790283,0.0019107158718034828,"train",13880.0,"2021-11-30 14:13:44.658086","","","","","","",""
12.0,0.07586145401000977,0.001912286161800088,"train",13900.0,"2021-11-30 14:13:48.558191","","","","","","",""
12.0,0.05359230935573578,0.0019138431814886008,"train",13920.0,"2021-11-30 14:13:52.460545","","","","","","",""
12.0,0.08537021279335022,0.0019153869071816896,"train",13940.0,"2021-11-30 14:13:56.731457","","","","","","",""
12.0,0.10855922847986221,0.0019169173153942693,"train",13960.0,"2021-11-30 14:14:00.742780","","","","","","",""
12.0,"","","train",13962.0,"2021-11-30 14:15:44.629677",0.6269373499235975,0.6287854035390134,0.95183845700067,0.6661201024061688,0.54656856775411,0.5730667314828634,0.3786393313614204
12.0,"","","val",13962.0,"2021-11-30 14:16:12.550925",0.6057056708802041,0.5819075315042798,0.941797022373646,0.6379186551656938,0.5189565629114977,0.5400608693196257,0.3526951660021359
13.0,0.10192681103944778,0.0019184343828438557,"train",13980.0,"2021-11-30 14:16:19.611074","","","","","","",""
13.0,0.05757182464003563,0.0019199380864509208,"train",14000.0,"2021-11-30 14:16:24.138879","","","","","","",""
13.0,0.05333678796887398,0.0019214284033392457,"train",14020.0,"2021-11-30 14:16:28.244656","","","","","","",""
13.0,0.08177103102207184,0.0019229053108362649,"train",14040.0,"2021-11-30 14:16:32.349184","","","","","","",""
13.0,0.04855925962328911,0.0019243687864734145,"train",14060.0,"2021-11-30 14:16:36.738551","","","","","","",""
13.0,0.053456779569387436,0.0019258188079864732,"train",14080.0,"2021-11-30 14:16:40.766197","","","","","","",""
13.0,0.05143110826611519,0.0019272553533158999,"train",14100.0,"2021-11-30 14:16:44.792315","","","","","","",""
13.0,0.05836742743849754,0.0019286784006071697,"train",14120.0,"2021-11-30 14:16:49.118419","","","","","","",""
13.0,0.0985034629702568,0.0019300879282111083,"train",14140.0,"2021-11-30 14:16:53.094254","","","","","","",""
13.0,0.07496897131204605,0.0019314839146842185,"train",14160.0,"2021-11-30 14:16:57.071619","","","","","","",""
13.0,0.05524228513240814,0.0019328663387890076,"train",14180.0,"2021-11-30 14:17:01.467890","","","","","","",""
13.0,0.056172069162130356,0.0019342351794943119,"train",14200.0,"2021-11-30 14:17:05.570017","","","","","","",""
13.0,0.0889563262462616,0.0019355904159756138,"train",14220.0,"2021-11-30 14:17:09.577705","","","","","","",""
13.0,0.06019653007388115,0.0019369320276153613,"train",14240.0,"2021-11-30 14:17:13.925437","","","","","","",""
13.0,0.06836623698472977,0.00193825999400328,"train",14260.0,"2021-11-30 14:17:17.904888","","","","","","",""
13.0,0.06801104545593262,0.0019395742949366843,"train",14280.0,"2021-11-30 14:17:21.910318","","","","","","",""
13.0,0.050765831023454666,0.0019408749104207845,"train",14300.0,"2021-11-30 14:17:26.283492","","","","","","",""
13.0,0.05380794033408165,0.0019421618206689913,"train",14320.0,"2021-11-30 14:17:30.316685","","","","","","",""
13.0,0.0437152162194252,0.0019434350061032163,"train",14340.0,"2021-11-30 14:17:34.328724","","","","","","",""
13.0,0.07771306484937668,0.0019446944473541703,"train",14360.0,"2021-11-30 14:17:38.706041","","","","","","",""
13.0,0.07852480560541153,0.0019459401252616573,"train",14380.0,"2021-11-30 14:17:42.772371","","","","","","",""
13.0,0.09090212732553482,0.001947172020874868,"train",14400.0,"2021-11-30 14:17:46.835494","","","","","","",""
13.0,0.060630470514297485,0.0019483901154526647,"train",14420.0,"2021-11-30 14:17:51.333031","","","","","","",""
13.0,0.04425746202468872,0.0019495943904638694,"train",14440.0,"2021-11-30 14:17:55.450522","","","","","","",""
13.0,0.07506116479635239,0.0019507848275875444,"train",14460.0,"2021-11-30 14:17:59.605922","","","","","","",""
13.0,0.06225186213850975,0.0019519614087132712,"train",14480.0,"2021-11-30 14:18:04.138410","","","","","","",""
13.0,0.08270498365163803,0.0019531241159414263,"train",14500.0,"2021-11-30 14:18:08.215466","","","","","","",""
13.0,0.06393672525882721,0.001954272931583453,"train",14520.0,"2021-11-30 14:18:12.196864","","","","","","",""
13.0,0.05867932736873627,0.0019554078381621306,"train",14540.0,"2021-11-30 14:18:16.535135","","","","","","",""
13.0,0.07099750638008118,0.0019565288184118417,"train",14560.0,"2021-11-30 14:18:20.605188","","","","","","",""
13.0,0.056417740881443024,0.0019576358552788314,"train",14580.0,"2021-11-30 14:18:24.721920","","","","","","",""
13.0,0.05786861479282379,0.0019587289319214713,"train",14600.0,"2021-11-30 14:18:29.215447","","","","","","",""
13.0,0.047844547778367996,0.0019598080317105113,"train",14620.0,"2021-11-30 14:18:33.322415","","","","","","",""
13.0,0.09031631797552109,0.001960873138229337,"train",14640.0,"2021-11-30 14:18:37.436530","","","","","","",""
13.0,0.0659533143043518,0.0019619242352742153,"train",14660.0,"2021-11-30 14:18:41.874141","","","","","","",""
13.0,0.049212608486413956,0.001962961306854543,"train",14680.0,"2021-11-30 14:18:45.889889","","","","","","",""
13.0,0.07404147833585739,0.0019639843371930905,"train",14700.0,"2021-11-30 14:18:49.838604","","","","","","",""
13.0,0.081121064722538,0.001964993310726241,"train",14720.0,"2021-11-30 14:18:54.222438","","","","","","",""
13.0,0.0725083276629448,0.0019659882121042262,"train",14740.0,"2021-11-30 14:18:58.246889","","","","","","",""
13.0,0.058493226766586304,0.001966969026191363,"train",14760.0,"2021-11-30 14:19:02.242370","","","","","","",""
13.0,0.08746814727783203,0.0019679357380662805,"train",14780.0,"2021-11-30 14:19:06.620930","","","","","","",""
13.0,0.05246809124946594,0.001968888333022148,"train",14800.0,"2021-11-30 14:19:10.624712","","","","","","",""
13.0,0.08730415254831314,0.0019698267965669,"train",14820.0,"2021-11-30 14:19:14.696698","","","","","","",""
13.0,0.09808595478534698,0.0019707511144234557,"train",14840.0,"2021-11-30 14:19:19.096605","","","","","","",""
13.0,0.06883672624826431,0.001971661272529935,"train",14860.0,"2021-11-30 14:19:23.151605","","","","","","",""
13.0,0.05544211342930794,0.001972557257039875,"train",14880.0,"2021-11-30 14:19:27.263202","","","","","","",""
13.0,0.06383635848760605,0.0019734390543224385,"train",14900.0,"2021-11-30 14:19:31.796679","","","","","","",""
13.0,0.06576136499643326,0.001974306650962622,"train",14920.0,"2021-11-30 14:19:35.909884","","","","","","",""
13.0,0.049357056617736816,0.0019751600337614608,"train",14940.0,"2021-11-30 14:19:39.952502","","","","","","",""
13.0,0.09280163049697876,0.0019759991897362284,"train",14960.0,"2021-11-30 14:19:44.367046","","","","","","",""
13.0,0.0672040581703186,0.0019768241061206343,"train",14980.0,"2021-11-30 14:19:48.478569","","","","","","",""
13.0,0.089812271296978,0.0019776347703650186,"train",15000.0,"2021-11-30 14:19:52.544492","","","","","","",""
13.0,0.0760742649435997,0.001978431170136543,"train",15020.0,"2021-11-30 14:19:56.966111","","","","","","",""
13.0,"","","train",15036.0,"2021-11-30 14:21:43.052657",0.6277668631303209,0.6373055154733104,0.953570136337463,0.6728537002148389,0.5457007421909437,0.5614679959896031,0.3801748588729943
13.0,"","","val",15036.0,"2021-11-30 14:22:10.810703",0.6000811782442306,0.5904375307454255,0.9443419673269582,0.6379019448804594,0.516346634802111,0.5293645559032505,0.34817245181185885
14.0,0.09447939693927765,0.0019792132933193784,"train",15040.0,"2021-11-30 14:22:15.044157","","","","","","",""
14.0,0.049513790756464005,0.001979981128014888,"train",15060.0,"2021-11-30 14:22:19.108650","","","","","","",""
14.0,0.05685489624738693,0.001980734662541811,"train",15080.0,"2021-11-30 14:22:23.648448","","","","","","",""
14.0,0.10216671973466873,0.0019814738854364374,"train",15100.0,"2021-11-30 14:22:27.617642","","","","","","",""
14.0,0.056630127131938934,0.0019821987854527832,"train",15120.0,"2021-11-30 14:22:31.551236","","","","","","",""
14.0,0.0495973601937294,0.0019829093515627634,"train",15140.0,"2021-11-30 14:22:35.843435","","","","","","",""
14.0,0.07111287117004395,0.001983605572956358,"train",15160.0,"2021-11-30 14:22:39.914246","","","","","","",""
14.0,0.05775902047753334,0.001984287439041775,"train",15180.0,"2021-11-30 14:22:44.029461","","","","","","",""
14.0,0.05718107521533966,0.001984954939445616,"train",15200.0,"2021-11-30 14:22:48.518231","","","","","","",""
14.0,0.0693444162607193,0.0019856080640130295,"train",15220.0,"2021-11-30 14:22:52.695346","","","","","","",""
14.0,0.062335796654224396,0.0019862468028078676,"train",15240.0,"2021-11-30 14:22:56.753722","","","","","","",""
14.0,0.05624451860785484,0.001986871146112837,"train",15260.0,"2021-11-30 14:23:01.172137","","","","","","",""
14.0,0.035596154630184174,0.0019874810844296466,"train",15280.0,"2021-11-30 14:23:05.206428","","","","","","",""
14.0,0.07902318984270096,0.0019880766084791517,"train",15300.0,"2021-11-30 14:23:09.251062","","","","","","",""
14.0,0.05761465057730675,0.0019886577092014953,"train",15320.0,"2021-11-30 14:23:13.623957","","","","","","",""
14.0,0.0513487383723259,0.001989224377756247,"train",15340.0,"2021-11-30 14:23:17.664934","","","","","","",""
14.0,0.06379114836454391,0.0019897766055225353,"train",15360.0,"2021-11-30 14:23:21.691642","","","","","","",""
14.0,0.05108945444226265,0.0019903143840991813,"train",15380.0,"2021-11-30 14:23:26.088796","","","","","","",""
14.0,0.0682607889175415,0.0019908377053048246,"train",15400.0,"2021-11-30 14:23:30.113415","","","","","","",""
14.0,0.06076411157846451,0.001991346561178048,"train",15420.0,"2021-11-30 14:23:34.200840","","","","","","",""
14.0,0.044453978538513184,0.0019918409439775003,"train",15440.0,"2021-11-30 14:23:38.641924","","","","","","",""
14.0,0.03958841785788536,0.0019923208461820117,"train",15460.0,"2021-11-30 14:23:42.706266","","","","","","",""
14.0,0.05653095617890358,0.001992786260490709,"train",15480.0,"2021-11-30 14:23:46.771346","","","","","","",""
14.0,0.06675824522972107,0.0019932371798231287,"train",15500.0,"2021-11-30 14:23:51.383608","","","","","","",""
14.0,0.07177657634019852,0.0019936735973193212,"train",15520.0,"2021-11-30 14:23:55.329062","","","","","","",""
14.0,0.059925880283117294,0.001994095506339958,"train",15540.0,"2021-11-30 14:23:59.245677","","","","","","",""
14.0,0.08489948511123657,0.001994502900466431,"train",15560.0,"2021-11-30 14:24:03.535647","","","","","","",""
14.0,0.0492132268846035,0.0019948957735009517,"train",15580.0,"2021-11-30 14:24:07.468765","","","","","","",""
14.0,0.05482398718595505,0.0019952741194666436,"train",15600.0,"2021-11-30 14:24:11.379761","","","","","","",""
14.0,0.07775473594665527,0.0019956379326076354,"train",15620.0,"2021-11-30 14:24:15.619206","","","","","","",""
14.0,0.05442953482270241,0.001995987207389146,"train",15640.0,"2021-11-30 14:24:19.675424","","","","","","",""
14.0,0.07082400470972061,0.0019963219384975706,"train",15660.0,"2021-11-30 14:24:23.741987","","","","","","",""
14.0,0.09243471920490265,0.001996642120840561,"train",15680.0,"2021-11-30 14:24:28.191067","","","","","","",""
14.0,0.06351961940526962,0.001996947749547103,"train",15700.0,"2021-11-30 14:24:32.205244","","","","","","",""
14.0,0.05658172816038132,0.0019972388199675905,"train",15720.0,"2021-11-30 14:24:36.169600","","","","","","",""
14.0,0.04731439799070358,0.001997515327673896,"train",15740.0,"2021-11-30 14:24:40.587096","","","","","","",""
14.0,0.06580737978219986,0.0019977772684594388,"train",15760.0,"2021-11-30 14:24:44.497229","","","","","","",""
14.0,0.057166069746017456,0.0019980246383392475,"train",15780.0,"2021-11-30 14:24:48.435988","","","","","","",""
14.0,0.09133559465408325,0.0019982574335500225,"train",15800.0,"2021-11-30 14:24:52.603686","","","","","","",""
14.0,0.09192388504743576,0.001998475650550192,"train",15820.0,"2021-11-30 14:24:56.420896","","","","","","",""
14.0,0.045728880912065506,0.0019986792860199657,"train",15840.0,"2021-11-30 14:25:00.225597","","","","","","",""
14.0,0.07173454016447067,0.001998868336861386,"train",15860.0,"2021-11-30 14:25:04.614187","","","","","","",""
14.0,0.07655729353427887,0.001999042800198376,"train",15880.0,"2021-11-30 14:25:08.715254","","","","","","",""
14.0,0.05605822429060936,0.00199920267337678,"train",15900.0,"2021-11-30 14:25:12.717131","","","","","","",""
14.0,0.07100113481283188,0.0019993479539644077,"train",15920.0,"2021-11-30 14:25:17.023199","","","","","","",""
14.0,0.09971943497657776,0.0019994786397510697,"train",15940.0,"2021-11-30 14:25:20.956415","","","","","","",""
14.0,0.07475804537534714,0.0019995947287486096,"train",15960.0,"2021-11-30 14:25:25.017647","","","","","","",""
14.0,0.050611838698387146,0.0019996962191909367,"train",15980.0,"2021-11-30 14:25:29.393808","","","","","","",""
14.0,0.052965134382247925,0.0019997831095340513,"train",16000.0,"2021-11-30 14:25:33.364853","","","","","","",""
14.0,0.06325379014015198,0.001999855398456069,"train",16020.0,"2021-11-30 14:25:37.447042","","","","","","",""
14.0,0.07560832053422928,0.00199991308485724,"train",16040.0,"2021-11-30 14:25:41.848985","","","","","","",""
14.0,0.07057046890258789,0.001999956167859967,"train",16060.0,"2021-11-30 14:25:45.821741","","","","","","",""
14.0,0.07417988032102585,0.0019999846468088172,"train",16080.0,"2021-11-30 14:25:49.861279","","","","","","",""
14.0,0.05199408158659935,0.0019999985212705335,"train",16100.0,"2021-11-30 14:25:54.255367","","","","","","",""
14.0,"","","train",16110.0,"2021-11-30 14:27:38.386981",0.6341992286982464,0.64344646116242,0.9554565299225324,0.6801229207347911,0.5433474821163241,0.5620251435420154,0.38023294006620245
14.0,"","","val",16110.0,"2021-11-30 14:28:06.135765",0.6034442769337818,0.5840434711285929,0.9409420042221974,0.6435104961317654,0.5060042980407304,0.5217887336818097,0.34079144077828727
15.0,0.05698921158909798,0.0019999995774202316,"train",16120.0,"2021-11-30 14:28:11.700181","","","","","","",""
15.0,0.06850481778383255,0.0019999966438102564,"train",16140.0,"2021-11-30 14:28:15.795020","","","","","","",""
15.0,0.06132246553897858,0.0019999909162942875,"train",16160.0,"2021-11-30 14:28:20.325125","","","","","","",""
15.0,0.0703854113817215,0.001999982394888327,"train",16180.0,"2021-11-30 14:28:24.291221","","","","","","",""
15.0,0.06323469430208206,0.0019999710796161823,"train",16200.0,"2021-11-30 14:28:28.266605","","","","","","",""
15.0,0.06653536856174469,0.0019999569705094686,"train",16220.0,"2021-11-30 14:28:32.715576","","","","","","",""
15.0,0.06487350165843964,0.001999940067607605,"train",16240.0,"2021-11-30 14:28:36.782628","","","","","","",""
15.0,0.06515035778284073,0.001999920370957817,"train",16260.0,"2021-11-30 14:28:40.853546","","","","","","",""
15.0,0.049409762024879456,0.0019998978806151355,"train",16280.0,"2021-11-30 14:28:45.280630","","","","","","",""
15.0,0.08295939862728119,0.0019998725966423976,"train",16300.0,"2021-11-30 14:28:49.396577","","","","","","",""
15.0,0.06491698324680328,0.001999844519110244,"train",16320.0,"2021-11-30 14:28:53.529261","","","","","","",""
15.0,0.08566369116306305,0.001999813648097122,"train",16340.0,"2021-11-30 14:28:58.051108","","","","","","",""
15.0,0.08060283213853836,0.001999779983689282,"train",16360.0,"2021-11-30 14:29:02.173310","","","","","","",""
15.0,0.04725167527794838,0.0019997435259807806,"train",16380.0,"2021-11-30 14:29:06.253043","","","","","","",""
15.0,0.08754163980484009,0.001999704275073478,"train",16400.0,"2021-11-30 14:29:10.829206","","","","","","",""
15.0,0.062495406717061996,0.0019996622310770383,"train",16420.0,"2021-11-30 14:29:14.957524","","","","","","",""
15.0,0.058519624173641205,0.0019996173941089286,"train",16440.0,"2021-11-30 14:29:19.038304","","","","","","",""
15.0,0.060039881616830826,0.0019995697642944212,"train",16460.0,"2021-11-30 14:29:23.501179","","","","","","",""
15.0,0.09505993127822876,0.0019995193417665894,"train",16480.0,"2021-11-30 14:29:27.628009","","","","","","",""
15.0,0.07712014019489288,0.0019994661266663108,"train",16500.0,"2021-11-30 14:29:31.715173","","","","","","",""
15.0,0.08678673207759857,0.001999410119142264,"train",16520.0,"2021-11-30 14:29:36.184814","","","","","","",""
15.0,0.04324682056903839,0.0019993513193509297,"train",16540.0,"2021-11-30 14:29:40.143975","","","","","","",""
15.0,0.09333819150924683,0.0019992897274565906,"train",16560.0,"2021-11-30 14:29:44.147245","","","","","","",""
15.0,0.10021904110908508,0.0019992253436313303,"train",16580.0,"2021-11-30 14:29:48.513280","","","","","","",""
15.0,0.08201351761817932,0.0019991581680550313,"train",16600.0,"2021-11-30 14:29:52.517487","","","","","","",""
15.0,0.056404877454042435,0.0019990882009153785,"train",16620.0,"2021-11-30 14:29:56.512790","","","","","","",""
15.0,0.08971861749887466,0.001999015442407854,"train",16640.0,"2021-11-30 14:30:00.847973","","","","","","",""
15.0,0.0890798270702362,0.0019989398927357403,"train",16660.0,"2021-11-30 14:30:04.829975","","","","","","",""
15.0,0.0844544842839241,0.0019988615521101174,"train",16680.0,"2021-11-30 14:30:08.764062","","","","","","",""
15.0,0.09293341636657715,0.0019987804207498637,"train",16700.0,"2021-11-30 14:30:13.057524","","","","","","",""
15.0,0.057973138988018036,0.0019986964988816533,"train",16720.0,"2021-11-30 14:30:16.994217","","","","","","",""
15.0,0.0391952320933342,0.0019986097867399585,"train",16740.0,"2021-11-30 14:30:20.941837","","","","","","",""
15.0,0.04897182062268257,0.0019985202845670463,"train",16760.0,"2021-11-30 14:30:25.240562","","","","","","",""
15.0,0.0477452352643013,0.0019984279926129798,"train",16780.0,"2021-11-30 14:30:29.368271","","","","","","",""
15.0,0.06122993677854538,0.001998332911135615,"train",16800.0,"2021-11-30 14:30:33.563420","","","","","","",""
15.0,0.05347966030240059,0.0019982350404006036,"train",16820.0,"2021-11-30 14:30:38.049287","","","","","","",""
15.0,0.04594593867659569,0.0019981343806813883,"train",16840.0,"2021-11-30 14:30:42.149059","","","","","","",""
15.0,0.07584816962480545,0.001998030932259205,"train",16860.0,"2021-11-30 14:30:46.070412","","","","","","",""
15.0,0.06766800582408905,0.0019979246954230823,"train",16880.0,"2021-11-30 14:30:50.343169","","","","","","",""
15.0,0.051889631897211075,0.0019978156704698363,"train",16900.0,"2021-11-30 14:30:54.215140","","","","","","",""
15.0,0.051894161850214005,0.001997703857704076,"train",16920.0,"2021-11-30 14:30:58.186512","","","","","","",""
15.0,0.05850351229310036,0.0019975892574381976,"train",16940.0,"2021-11-30 14:31:02.516238","","","","","","",""
15.0,0.07808667421340942,0.001997471869992386,"train",16960.0,"2021-11-30 14:31:06.465300","","","","","","",""
15.0,0.07433468103408813,0.0019973516956946127,"train",16980.0,"2021-11-30 14:31:10.420292","","","","","","",""
15.0,0.0950176939368248,0.0019972287348806366,"train",17000.0,"2021-11-30 14:31:14.782703","","","","","","",""
15.0,0.0574735663831234,0.0019971029878940003,"train",17020.0,"2021-11-30 14:31:18.829117","","","","","","",""
15.0,0.08397391438484192,0.0019969744550860317,"train",17040.0,"2021-11-30 14:31:22.891858","","","","","","",""
15.0,0.06995008140802383,0.0019968431368158433,"train",17060.0,"2021-11-30 14:31:27.371890","","","","","","",""
15.0,0.04888102784752846,0.001996709033450327,"train",17080.0,"2021-11-30 14:31:31.505979","","","","","","",""
15.0,0.0676010400056839,0.0019965721453641585,"train",17100.0,"2021-11-30 14:31:35.468879","","","","","","",""
15.0,0.04889662563800812,0.0019964324729397935,"train",17120.0,"2021-11-30 14:31:39.904831","","","","","","",""
15.0,0.05625368282198906,0.0019962900165674657,"train",17140.0,"2021-11-30 14:31:43.997420","","","","","","",""
15.0,0.039516303688287735,0.0019961447766451887,"train",17160.0,"2021-11-30 14:31:48.114606","","","","","","",""
15.0,0.07443837076425552,0.001995996753578751,"train",17180.0,"2021-11-30 14:31:52.467087","","","","","","",""
15.0,"","","train",17184.0,"2021-11-30 14:33:35.851404",0.6434111911518591,0.6612384991441687,0.9573755632593021,0.7012039686987971,0.5818929429203216,0.6053742573464802,0.40878059639053743
15.0,"","","val",17184.0,"2021-11-30 14:34:03.624945",0.6113881479763423,0.6054607337503126,0.9452525959196477,0.6620343511042012,0.5370430572437696,0.5556637827517741,0.3630513651686902
16.0,0.05494358018040657,0.001995845947781719,"train",17200.0,"2021-11-30 14:34:10.367474","","","","","","",""
16.0,0.0554119236767292,0.001995692359675433,"train",17220.0,"2021-11-30 14:34:14.392515","","","","","","",""
16.0,0.08406992256641388,0.0019955359896890066,"train",17240.0,"2021-11-30 14:34:18.867894","","","","","","",""
16.0,0.05077496916055679,0.0019953768382593258,"train",17260.0,"2021-11-30 14:34:22.798555","","","","","","",""
16.0,0.12244118005037308,0.0019952149058310486,"train",17280.0,"2021-11-30 14:34:26.725091","","","","","","",""
16.0,0.05831488221883774,0.001995050192856602,"train",17300.0,"2021-11-30 14:34:31.005383","","","","","","",""
16.0,0.0868365466594696,0.001994882699796182,"train",17320.0,"2021-11-30 14:34:35.010848","","","","","","",""
16.0,0.051561471074819565,0.001994712427117752,"train",17340.0,"2021-11-30 14:34:38.890706","","","","","","",""
16.0,0.07317939400672913,0.0019945393752970413,"train",17360.0,"2021-11-30 14:34:43.178852","","","","","","",""
16.0,0.09128415584564209,0.001994363544817544,"train",17380.0,"2021-11-30 14:34:47.019034","","","","","","",""
16.0,0.08321942389011383,0.001994184936170517,"train",17400.0,"2021-11-30 14:34:50.870468","","","","","","",""
16.0,0.08515450358390808,0.0019940035498549804,"train",17420.0,"2021-11-30 14:34:55.124497","","","","","","",""
16.0,0.09106192737817764,0.0019938193863777145,"train",17440.0,"2021-11-30 14:34:58.999031","","","","","","",""
16.0,0.080874003469944,0.001993632446253258,"train",17460.0,"2021-11-30 14:35:03.052734","","","","","","",""
16.0,0.0641339048743248,0.0019934427300039074,"train",17480.0,"2021-11-30 14:35:07.414201","","","","","","",""
16.0,0.050231415778398514,0.001993250238159717,"train",17500.0,"2021-11-30 14:35:11.388302","","","","","","",""
16.0,0.057627130299806595,0.0019930549712584944,"train",17520.0,"2021-11-30 14:35:15.389097","","","","","","",""
16.0,0.08175263553857803,0.001992856929845801,"train",17540.0,"2021-11-30 14:35:19.751017","","","","","","",""
16.0,0.065355084836483,0.0019926561144749497,"train",17560.0,"2021-11-30 14:35:23.771248","","","","","","",""
16.0,0.047259487211704254,0.001992452525707004,"train",17580.0,"2021-11-30 14:35:27.819194","","","","","","",""
16.0,0.03753369674086571,0.0019922461641107767,"train",17600.0,"2021-11-30 14:35:32.198043","","","","","","",""
16.0,0.08974441885948181,0.001992037030262826,"train",17620.0,"2021-11-30 14:35:36.164678","","","","","","",""
16.0,0.05584382265806198,0.0019918251247474567,"train",17640.0,"2021-11-30 14:35:40.160703","","","","","","",""
16.0,0.06564658880233765,0.001991610448156718,"train",17660.0,"2021-11-30 14:35:44.574218","","","","","","",""
16.0,0.05228957161307335,0.0019913930010903996,"train",17680.0,"2021-11-30 14:35:48.567885","","","","","","",""
16.0,0.09599802643060684,0.001991172784156033,"train",17700.0,"2021-11-30 14:35:52.572471","","","","","","",""
16.0,0.046428050845861435,0.0019909497979688877,"train",17720.0,"2021-11-30 14:35:56.915899","","","","","","",""
16.0,0.059274788945913315,0.0019907240431519713,"train",17740.0,"2021-11-30 14:36:00.934477","","","","","","",""
16.0,0.049909353256225586,0.001990495520336026,"train",17760.0,"2021-11-30 14:36:04.941219","","","","","","",""
16.0,0.09310658276081085,0.0019902642301595284,"train",17780.0,"2021-11-30 14:36:09.299423","","","","","","",""
16.0,0.09709519892930984,0.001990030173268685,"train",17800.0,"2021-11-30 14:36:13.336925","","","","","","",""
16.0,0.07983624190092087,0.0019897933503174345,"train",17820.0,"2021-11-30 14:36:17.377046","","","","","","",""
16.0,0.07227773219347,0.0019895537619674425,"train",17840.0,"2021-11-30 14:36:21.817088","","","","","","",""
16.0,0.0674421638250351,0.001989311408888101,"train",17860.0,"2021-11-30 14:36:25.897651","","","","","","",""
16.0,0.053849074989557266,0.001989066291756527,"train",17880.0,"2021-11-30 14:36:29.992946","","","","","","",""
16.0,0.0418519452214241,0.00198881841125756,"train",17900.0,"2021-11-30 14:36:34.468847","","","","","","",""
16.0,0.053169745951890945,0.0019885677680837595,"train",17920.0,"2021-11-30 14:36:38.553828","","","","","","",""
16.0,0.03882088139653206,0.001988314362935404,"train",17940.0,"2021-11-30 14:36:42.657467","","","","","","",""
16.0,0.06139543280005455,0.0019880581965204896,"train",17960.0,"2021-11-30 14:36:47.103151","","","","","","",""
16.0,0.04321496561169624,0.0019877992695547255,"train",17980.0,"2021-11-30 14:36:51.178350","","","","","","",""
16.0,0.05593385174870491,0.0019875375827615354,"train",18000.0,"2021-11-30 14:36:55.208382","","","","","","",""
16.0,0.08815028518438339,0.0019872731368720527,"train",18020.0,"2021-11-30 14:36:59.596295","","","","","","",""
16.0,0.08716578036546707,0.00198700593262512,"train",18040.0,"2021-11-30 14:37:03.589561","","","","","","",""
16.0,0.059096697717905045,0.001986735970767286,"train",18060.0,"2021-11-30 14:37:07.621303","","","","","","",""
16.0,0.03721323236823082,0.001986463252052804,"train",18080.0,"2021-11-30 14:37:13.355677","","","","","","",""
16.0,0.09706126898527145,0.0019861877772436305,"train",18100.0,"2021-11-30 14:37:20.236847","","","","","","",""
16.0,0.07568855583667755,0.001985909547109422,"train",18120.0,"2021-11-30 14:37:25.840150","","","","","","",""
16.0,0.043160609900951385,0.001985628562427533,"train",18140.0,"2021-11-30 14:37:30.164532","","","","","","",""
16.0,0.04791533201932907,0.001985344823983014,"train",18160.0,"2021-11-30 14:37:34.285525","","","","","","",""
16.0,0.04576137661933899,0.001985058332568609,"train",18180.0,"2021-11-30 14:37:40.521933","","","","","","",""
16.0,0.10668980330228806,0.001984769088984755,"train",18200.0,"2021-11-30 14:37:44.992855","","","","","","",""
16.0,0.07899831980466843,0.001984477094039576,"train",18220.0,"2021-11-30 14:37:49.023529","","","","","","",""
16.0,0.05887096747756004,0.001984182348548885,"train",18240.0,"2021-11-30 14:37:53.063316","","","","","","",""
16.0,"","","train",18258.0,"2021-11-30 14:39:38.837432",0.6562759222877101,0.6744068544443299,0.9591176218768135,0.704485557607478,0.5821137987129651,0.6101715271946584,0.4149689859607806
16.0,"","","val",18258.0,"2021-11-30 14:40:06.878077",0.6189841122579148,0.6106769115227292,0.9447156047689985,0.661125374674171,0.5381512631709735,0.5644676256220179,0.36621474509675067
17.0,0.0669093057513237,0.00198388485333618,"train",18260.0,"2021-11-30 14:40:10.665446","","","","","","",""
17.0,0.06480534374713898,0.0019835846092326396,"train",18280.0,"2021-11-30 14:40:14.692216","","","","","","",""
17.0,0.08283690363168716,0.0019832816170771246,"train",18300.0,"2021-11-30 14:40:18.668862","","","","","","",""
17.0,0.06373345106840134,0.001982975877716172,"train",18320.0,"2021-11-30 14:40:23.031412","","","","","","",""
17.0,0.05792532116174698,0.0019826673920039957,"train",18340.0,"2021-11-30 14:40:27.118073","","","","","","",""
17.0,0.05007313936948776,0.0019823561608024822,"train",18360.0,"2021-11-30 14:40:31.055226","","","","","","",""
17.0,0.052604593336582184,0.0019820421849811886,"train",18380.0,"2021-11-30 14:40:35.365742","","","","","","",""
17.0,0.045466601848602295,0.0019817254654173402,"train",18400.0,"2021-11-30 14:40:39.299467","","","","","","",""
17.0,0.03731832653284073,0.0019814060029958278,"train",18420.0,"2021-11-30 14:40:43.213919","","","","","","",""
17.0,0.04098168760538101,0.001981083798609206,"train",18440.0,"2021-11-30 14:40:47.487518","","","","","","",""
17.0,0.04083401709794998,0.0019807588531576908,"train",18460.0,"2021-11-30 14:40:51.416967","","","","","","",""
17.0,0.09588390588760376,0.0019804311675491555,"train",18480.0,"2021-11-30 14:40:55.323813","","","","","","",""
17.0,0.07963211089372635,0.00198010074269913,"train",18500.0,"2021-11-30 14:40:59.751050","","","","","","",""
17.0,0.0513065941631794,0.0019797675795307965,"train",18520.0,"2021-11-30 14:41:03.848661","","","","","","",""
17.0,0.07789869606494904,0.0019794316789749885,"train",18540.0,"2021-11-30 14:41:07.966457","","","","","","",""
17.0,0.08874598890542984,0.0019790930419701877,"train",18560.0,"2021-11-30 14:41:12.555345","","","","","","",""
17.0,0.046943895518779755,0.0019787516694625214,"train",18580.0,"2021-11-30 14:41:16.688415","","","","","","",""
17.0,0.07701130956411362,0.0019784075624057584,"train",18600.0,"2021-11-30 14:41:20.753636","","","","","","",""
17.0,0.09118492901325226,0.0019780607217613094,"train",18620.0,"2021-11-30 14:41:25.068343","","","","","","",""
17.0,0.05819706991314888,0.001977711148498221,"train",18640.0,"2021-11-30 14:41:29.179523","","","","","","",""
17.0,0.06173655763268471,0.0019773588435931756,"train",18660.0,"2021-11-30 14:41:33.262960","","","","","","",""
17.0,0.07595463842153549,0.0019770038080304873,"train",18680.0,"2021-11-30 14:41:37.590339","","","","","","",""
17.0,0.04878898337483406,0.001976646042802099,"train",18700.0,"2021-11-30 14:41:41.562305","","","","","","",""
17.0,0.047837212681770325,0.0019762855489075808,"train",18720.0,"2021-11-30 14:41:45.657606","","","","","","",""
17.0,0.07217612117528915,0.001975922327354126,"train",18740.0,"2021-11-30 14:41:50.083706","","","","","","",""
17.0,0.05740955471992493,0.001975556379156549,"train",18760.0,"2021-11-30 14:41:54.100727","","","","","","",""
17.0,0.05588449165225029,0.0019751877053372823,"train",18780.0,"2021-11-30 14:41:58.129105","","","","","","",""
17.0,0.0843757912516594,0.001974816306926373,"train",18800.0,"2021-11-30 14:42:02.506644","","","","","","",""
17.0,0.05300822854042053,0.001974442184961482,"train",18820.0,"2021-11-30 14:42:06.616209","","","","","","",""
17.0,0.053685881197452545,0.0019740653404878776,"train",18840.0,"2021-11-30 14:42:10.712792","","","","","","",""
17.0,0.040747083723545074,0.0019736857745584362,"train",18860.0,"2021-11-30 14:42:15.162183","","","","","","",""
17.0,0.08932895958423615,0.0019733034882336367,"train",18880.0,"2021-11-30 14:42:19.230127","","","","","","",""
17.0,0.05795041099190712,0.0019729184825815586,"train",18900.0,"2021-11-30 14:42:23.179375","","","","","","",""
17.0,0.08789586275815964,0.0019725307586778806,"train",18920.0,"2021-11-30 14:42:27.674291","","","","","","",""
17.0,0.060201097279787064,0.001972140317605874,"train",18940.0,"2021-11-30 14:42:31.742160","","","","","","",""
17.0,0.051967136561870575,0.0019717471604564028,"train",18960.0,"2021-11-30 14:42:35.830225","","","","","","",""
17.0,0.07298506796360016,0.0019713512883279185,"train",18980.0,"2021-11-30 14:42:40.288028","","","","","","",""
17.0,0.04679976776242256,0.00197095270232646,"train",19000.0,"2021-11-30 14:42:44.365905","","","","","","",""
17.0,0.04879595339298248,0.001970551403565646,"train",19020.0,"2021-11-30 14:42:48.416668","","","","","","",""
17.0,0.0596805177628994,0.0019701473931666765,"train",19040.0,"2021-11-30 14:42:52.830270","","","","","","",""
17.0,0.04506846144795418,0.001969740672258327,"train",19060.0,"2021-11-30 14:42:56.838416","","","","","","",""
17.0,0.04896650090813637,0.0019693312419769454,"train",19080.0,"2021-11-30 14:43:00.876293","","","","","","",""
17.0,0.07782807946205139,0.0019689191034664498,"train",19100.0,"2021-11-30 14:43:05.254652","","","","","","",""
17.0,0.052505362778902054,0.0019685042578783257,"train",19120.0,"2021-11-30 14:43:09.256193","","","","","","",""
17.0,0.04064277559518814,0.00196808670637162,"train",19140.0,"2021-11-30 14:43:13.319514","","","","","","",""
17.0,0.05105806514620781,0.001967666450112942,"train",19160.0,"2021-11-30 14:43:17.776317","","","","","","",""
17.0,0.049764588475227356,0.001967243490276456,"train",19180.0,"2021-11-30 14:43:21.847148","","","","","","",""
17.0,0.05616111308336258,0.0019668178280438818,"train",19200.0,"2021-11-30 14:43:25.798409","","","","","","",""
17.0,0.09382925182580948,0.0019663894646044875,"train",19220.0,"2021-11-30 14:43:30.091470","","","","","","",""
17.0,0.05886457860469818,0.001965958401155089,"train",19240.0,"2021-11-30 14:43:33.935773","","","","","","",""
17.0,0.06336409598588943,0.0019655246389000463,"train",19260.0,"2021-11-30 14:43:37.807333","","","","","","",""
17.0,0.08755791187286377,0.0019650881790512597,"train",19280.0,"2021-11-30 14:43:42.035188","","","","","","",""
17.0,0.05538051202893257,0.001964649022828165,"train",19300.0,"2021-11-30 14:43:45.933529","","","","","","",""
17.0,0.06274376809597015,0.0019642071714577325,"train",19320.0,"2021-11-30 14:43:49.807048","","","","","","",""
17.0,"","","train",19332.0,"2021-11-30 14:45:35.637569",0.6561740522447792,0.6801917623834318,0.961204606457656,0.7034975422055145,0.6003540524947318,0.6217820828194707,0.4248596239258979
17.0,"","","val",19332.0,"2021-11-30 14:46:04.146534",0.617708454134292,0.610572469302131,0.9480611727632642,0.6579190268744917,0.5460091712819227,0.5640088640773012,0.3663860480270136
18.0,0.08711671829223633,0.0019637626261744634,"train",19340.0,"2021-11-30 14:46:09.240689","","","","","","",""
18.0,0.06496253609657288,0.001963315388220384,"train",19360.0,"2021-11-30 14:46:13.268225","","","","","","",""
18.0,0.06975101679563522,0.0019628654588450443,"train",19380.0,"2021-11-30 14:46:17.197919","","","","","","",""
18.0,0.07186126708984375,0.001962412839305514,"train",19400.0,"2021-11-30 14:46:21.647591","","","","","","",""
18.0,0.03225257620215416,0.0019619575308663785,"train",19420.0,"2021-11-30 14:46:25.633183","","","","","","",""
18.0,0.04100826382637024,0.001961499534799737,"train",19440.0,"2021-11-30 14:46:29.587427","","","","","","",""
18.0,0.08727708458900452,0.001961038852385196,"train",19460.0,"2021-11-30 14:46:33.893808","","","","","","",""
18.0,0.027464454993605614,0.0019605754849098683,"train",19480.0,"2021-11-30 14:46:37.850778","","","","","","",""
18.0,0.08562768995761871,0.0019601094336683693,"train",19500.0,"2021-11-30 14:46:41.872486","","","","","","",""
18.0,0.05163712054491043,0.0019596406999628116,"train",19520.0,"2021-11-30 14:46:46.256996","","","","","","",""
18.0,0.07907866686582565,0.0019591692851028022,"train",19540.0,"2021-11-30 14:46:50.277394","","","","","","",""
18.0,0.05214478448033333,0.001958695190405441,"train",19560.0,"2021-11-30 14:46:54.377853","","","","","","",""
18.0,0.08452290296554565,0.001958218417195312,"train",19580.0,"2021-11-30 14:46:58.858231","","","","","","",""
18.0,0.04743365943431854,0.001957738966804486,"train",19600.0,"2021-11-30 14:47:02.901123","","","","","","",""
18.0,0.059033848345279694,0.001957256840572511,"train",19620.0,"2021-11-30 14:47:06.941965","","","","","","",""
18.0,0.07685516029596329,0.0019567720398464133,"train",19640.0,"2021-11-30 14:47:11.334341","","","","","","",""
18.0,0.05483100190758705,0.00195628456598069,"train",19660.0,"2021-11-30 14:47:15.310147","","","","","","",""
18.0,0.03536274656653404,0.001955794420337307,"train",19680.0,"2021-11-30 14:47:19.299101","","","","","","",""
18.0,0.06329051405191422,0.0019553016042856957,"train",19700.0,"2021-11-30 14:47:23.811182","","","","","","",""
18.0,0.06163123622536659,0.001954806119202748,"train",19720.0,"2021-11-30 14:47:27.790727","","","","","","",""
18.0,0.06443209201097488,0.001954307966472812,"train",19740.0,"2021-11-30 14:47:31.725320","","","","","","",""
18.0,0.05160869285464287,0.0019538071474876914,"train",19760.0,"2021-11-30 14:47:35.990513","","","","","","",""
18.0,0.053201235830783844,0.001953303663646636,"train",19780.0,"2021-11-30 14:47:39.982723","","","","","","",""
18.0,0.07387087494134903,0.0019527975163563436,"train",19800.0,"2021-11-30 14:47:44.074680","","","","","","",""
18.0,0.07034466415643692,0.0019522887070309524,"train",19820.0,"2021-11-30 14:47:48.557353","","","","","","",""
18.0,0.05339277535676956,0.0019517772370920379,"train",19840.0,"2021-11-30 14:47:52.579074","","","","","","",""
18.0,0.04939911514520645,0.0019512631079686104,"train",19860.0,"2021-11-30 14:47:56.565337","","","","","","",""
18.0,0.0534651018679142,0.001950746321097108,"train",19880.0,"2021-11-30 14:48:00.884576","","","","","","",""
18.0,0.055335331708192825,0.0019502268779213957,"train",19900.0,"2021-11-30 14:48:04.805632","","","","","","",""
18.0,0.042884934693574905,0.0019497047798927598,"train",19920.0,"2021-11-30 14:48:08.857685","","","","","","",""
18.0,0.054533734917640686,0.001949180028469903,"train",19940.0,"2021-11-30 14:48:13.147145","","","","","","",""
18.0,0.0414406917989254,0.0019486526251189435,"train",19960.0,"2021-11-30 14:48:17.177527","","","","","","",""
18.0,0.04664332792162895,0.0019481225713134064,"train",19980.0,"2021-11-30 14:48:21.234193","","","","","","",""
18.0,0.09316283464431763,0.0019475898685342235,"train",20000.0,"2021-11-30 14:48:25.694624","","","","","","",""
18.0,0.0711919441819191,0.0019470545182697272,"train",20020.0,"2021-11-30 14:48:29.730430","","","","","","",""
18.0,0.04839427024126053,0.001946516522015647,"train",20040.0,"2021-11-30 14:48:33.888718","","","","","","",""
18.0,0.06949573010206223,0.0019459758812751047,"train",20060.0,"2021-11-30 14:48:38.181718","","","","","","",""
18.0,0.04026736319065094,0.0019454325975586106,"train",20080.0,"2021-11-30 14:48:42.138844","","","","","","",""
18.0,0.0468275286257267,0.0019448866723840602,"train",20100.0,"2021-11-30 14:48:46.149526","","","","","","",""
18.0,0.09566833823919296,0.001944338107276728,"train",20120.0,"2021-11-30 14:48:50.483209","","","","","","",""
18.0,0.053164247423410416,0.0019437869037692644,"train",20140.0,"2021-11-30 14:48:54.461372","","","","","","",""
18.0,0.044951505959033966,0.0019432330634016912,"train",20160.0,"2021-11-30 14:48:58.470364","","","","","","",""
18.0,0.04843021556735039,0.0019426765877213986,"train",20180.0,"2021-11-30 14:49:02.819666","","","","","","",""
18.0,0.07963906973600388,0.0019421174782831383,"train",20200.0,"2021-11-30 14:49:06.771171","","","","","","",""
18.0,0.08923766762018204,0.0019415557366490208,"train",20220.0,"2021-11-30 14:49:10.696910","","","","","","",""
18.0,0.07751163095235825,0.0019409913643885113,"train",20240.0,"2021-11-30 14:49:15.010573","","","","","","",""
