"epoch","loss","lr","part","step","time","accuracy","auprc","auroc","challenge_metric","f_beta_measure","f_measure","g_beta_measure"
0.0,0.16807563602924347,8.000730236035311e-05,"train",20.0,"2021-11-30 22:53:43.451123","","","","","","",""
0.0,0.16478988528251648,8.002920933031948e-05,"train",40.0,"2021-11-30 22:53:47.250169","","","","","","",""
0.0,0.1316017061471939,8.006572057662293e-05,"train",60.0,"2021-11-30 22:53:51.476483","","","","","","",""
0.0,0.14273637533187866,8.011683554380914e-05,"train",80.0,"2021-11-30 22:53:55.327953","","","","","","",""
0.0,0.1555364727973938,8.018255345425274e-05,"train",100.0,"2021-11-30 22:53:59.193727","","","","","","",""
0.0,0.12606987357139587,8.026287330817079e-05,"train",120.0,"2021-11-30 22:54:03.373474","","","","","","",""
0.0,0.12816008925437927,8.03577938836373e-05,"train",140.0,"2021-11-30 22:54:07.225496","","","","","","",""
0.0,0.1306760609149933,8.04673137366021e-05,"train",160.0,"2021-11-30 22:54:11.074609","","","","","","",""
0.0,0.12636762857437134,8.059143120091187e-05,"train",180.0,"2021-11-30 22:54:15.277166","","","","","","",""
0.0,0.12038541585206985,8.073014438833613e-05,"train",200.0,"2021-11-30 22:54:19.121403","","","","","","",""
0.0,0.13579769432544708,8.088345118859724e-05,"train",220.0,"2021-11-30 22:54:22.936936","","","","","","",""
0.0,0.1207209900021553,8.10513492693996e-05,"train",240.0,"2021-11-30 22:54:27.166789","","","","","","",""
0.0,0.13134250044822693,8.123383607646804e-05,"train",260.0,"2021-11-30 22:54:31.037144","","","","","","",""
0.0,0.11542688310146332,8.143090883358495e-05,"train",280.0,"2021-11-30 22:54:34.932595","","","","","","",""
0.0,0.11095768213272095,8.164256454263295e-05,"train",300.0,"2021-11-30 22:54:39.150183","","","","","","",""
0.0,0.12721766531467438,8.186879998364088e-05,"train",320.0,"2021-11-30 22:54:42.966791","","","","","","",""
0.0,0.11446230858564377,8.210961171483213e-05,"train",340.0,"2021-11-30 22:54:46.751218","","","","","","",""
0.0,0.1229817345738411,8.236499607267717e-05,"train",360.0,"2021-11-30 22:54:50.888859","","","","","","",""
0.0,0.11930932849645615,8.26349491719505e-05,"train",380.0,"2021-11-30 22:54:54.644461","","","","","","",""
0.0,0.1286604106426239,8.291946690578713e-05,"train",400.0,"2021-11-30 22:54:58.506401","","","","","","",""
0.0,0.10409290343523026,8.321854494574774e-05,"train",420.0,"2021-11-30 22:55:02.626197","","","","","","",""
0.0,0.10046765953302383,8.353217874188293e-05,"train",440.0,"2021-11-30 22:55:06.384249","","","","","","",""
0.0,0.09852679073810577,8.38603635228035e-05,"train",460.0,"2021-11-30 22:55:10.217353","","","","","","",""
0.0,0.13590800762176514,8.420309429575212e-05,"train",480.0,"2021-11-30 22:55:14.466588","","","","","","",""
0.0,0.10644194483757019,8.456036584667914e-05,"train",500.0,"2021-11-30 22:55:18.308022","","","","","","",""
0.0,0.11367969959974289,8.493217274032315e-05,"train",520.0,"2021-11-30 22:55:22.072750","","","","","","",""
0.0,0.10989672690629959,8.531850932029235e-05,"train",540.0,"2021-11-30 22:55:26.192809","","","","","","",""
0.0,0.10639552026987076,8.571936970915212e-05,"train",560.0,"2021-11-30 22:55:30.014396","","","","","","",""
0.0,0.09900893270969391,8.613474780851246e-05,"train",580.0,"2021-11-30 22:55:33.899541","","","","","","",""
0.0,0.13212968409061432,8.656463729912224e-05,"train",600.0,"2021-11-30 22:55:38.095352","","","","","","",""
0.0,0.13057732582092285,8.700903164096468e-05,"train",620.0,"2021-11-30 22:55:41.871312","","","","","","",""
0.0,0.1089201346039772,8.746792407335769e-05,"train",640.0,"2021-11-30 22:55:45.629555","","","","","","",""
0.0,0.1050899401307106,8.794130761505497e-05,"train",660.0,"2021-11-30 22:55:49.719372","","","","","","",""
0.0,0.0800718367099762,8.842917506435462e-05,"train",680.0,"2021-11-30 22:55:53.503840","","","","","","",""
0.0,0.11262040585279465,8.893151899920645e-05,"train",700.0,"2021-11-30 22:55:57.384235","","","","","","",""
0.0,0.11328934133052826,8.944833177732632e-05,"train",720.0,"2021-11-30 22:56:01.408632","","","","","","",""
0.0,0.09936707466840744,8.997960553631186e-05,"train",740.0,"2021-11-30 22:56:05.226246","","","","","","",""
0.0,0.09098413586616516,9.052533219376224e-05,"train",760.0,"2021-11-30 22:56:09.035383","","","","","","",""
0.0,0.12514987587928772,9.108550344740104e-05,"train",780.0,"2021-11-30 22:56:13.145228","","","","","","",""
0.0,0.10492077469825745,9.166011077520208e-05,"train",800.0,"2021-11-30 22:56:16.842898","","","","","","",""
0.0,0.10021749138832092,9.224914543552059e-05,"train",820.0,"2021-11-30 22:56:20.507802","","","","","","",""
0.0,0.09359866380691528,9.285259846722417e-05,"train",840.0,"2021-11-30 22:56:24.598503","","","","","","",""
0.0,0.10464558750391006,9.34704606898307e-05,"train",860.0,"2021-11-30 22:56:28.264719","","","","","","",""
0.0,0.11221527308225632,9.410272270364735e-05,"train",880.0,"2021-11-30 22:56:32.051161","","","","","","",""
0.0,0.1197204440832138,9.474937488991348e-05,"train",900.0,"2021-11-30 22:56:36.182072","","","","","","",""
0.0,0.10747858881950378,9.541040741094719e-05,"train",920.0,"2021-11-30 22:56:39.997055","","","","","","",""
0.0,0.1261962354183197,9.608581021029522e-05,"train",940.0,"2021-11-30 22:56:43.753595","","","","","","",""
0.0,0.1074313074350357,9.677557301288509e-05,"train",960.0,"2021-11-30 22:56:47.916512","","","","","","",""
0.0,0.08354420214891434,9.747968532518238e-05,"train",980.0,"2021-11-30 22:56:51.732229","","","","","","",""
0.0,0.08533920347690582,9.819813643535029e-05,"train",1000.0,"2021-11-30 22:56:55.562811","","","","","","",""
0.0,0.08263242244720459,9.893091541341185e-05,"train",1020.0,"2021-11-30 22:56:59.769360","","","","","","",""
0.0,0.09430430084466934,9.967801111141644e-05,"train",1040.0,"2021-11-30 22:57:03.602643","","","","","","",""
0.0,0.11847317963838577,0.00010043941216361023,"train",1060.0,"2021-11-30 22:57:07.334228","","","","","","",""
0.0,"","","train",1074.0,"2021-11-30 22:58:51.512963",0.3622644255257222,0.30709191495961163,0.8445734585184133,0.35153913894803546,0.22293848579376588,0.21936696929295088,0.13324689666117273
0.0,"","","val",1074.0,"2021-11-30 22:59:21.980429",0.35961962194131974,0.3045073032818442,0.8400848961959846,0.34299245551108193,0.2204997132064335,0.21474972252678623,0.13133915798966392
1.0,0.103875070810318,0.00010121510698660771,"train",1080.0,"2021-11-30 22:59:29.282971","","","","","","",""
1.0,0.1207721084356308,0.00010200508377956928,"train",1100.0,"2021-11-30 22:59:33.355616","","","","","","",""
1.0,0.1155770793557167,0.00010280933052437993,"train",1120.0,"2021-11-30 22:59:37.158261","","","","","","",""
1.0,0.12978260219097137,0.00010362783498583223,"train",1140.0,"2021-11-30 22:59:40.909762","","","","","","",""
1.0,0.10503827780485153,0.0001044605847118124,"train",1160.0,"2021-11-30 22:59:45.033734","","","","","","",""
1.0,0.0932469293475151,0.0001053075670334907,"train",1180.0,"2021-11-30 22:59:48.826448","","","","","","",""
1.0,0.09153959155082703,0.00010616876906551181,"train",1200.0,"2021-11-30 22:59:52.630127","","","","","","",""
1.0,0.10956396162509918,0.0001070441777061941,"train",1220.0,"2021-11-30 22:59:56.949979","","","","","","",""
1.0,0.09501142054796219,0.00010793377963772563,"train",1240.0,"2021-11-30 23:00:00.784288","","","","","","",""
1.0,0.09754803031682968,0.0001088375613263698,"train",1260.0,"2021-11-30 23:00:04.536578","","","","","","",""
1.0,0.08887342363595963,0.00010975550902266908,"train",1280.0,"2021-11-30 23:00:08.677022","","","","","","",""
1.0,0.09514668583869934,0.00011068760876165474,"train",1300.0,"2021-11-30 23:00:12.455449","","","","","","",""
1.0,0.11768200248479843,0.0001116338463630598,"train",1320.0,"2021-11-30 23:00:16.211704","","","","","","",""
1.0,0.08087678998708725,0.00011259420743153455,"train",1340.0,"2021-11-30 23:00:20.316068","","","","","","",""
1.0,0.1064528375864029,0.00011356867735686535,"train",1360.0,"2021-11-30 23:00:24.091200","","","","","","",""
1.0,0.09652823209762573,0.00011455724131419621,"train",1380.0,"2021-11-30 23:00:27.865447","","","","","","",""
1.0,0.10559772700071335,0.00011555988426425654,"train",1400.0,"2021-11-30 23:00:32.134457","","","","","","",""
1.0,0.09397608041763306,0.00011657659095358746,"train",1420.0,"2021-11-30 23:00:35.944263","","","","","","",""
1.0,0.10110005736351013,0.00011760734591477516,"train",1440.0,"2021-11-30 23:00:39.801198","","","","","","",""
1.0,0.08260001242160797,0.00011865213346668618,"train",1460.0,"2021-11-30 23:00:43.995485","","","","","","",""
1.0,0.11622598022222519,0.00011971093771470502,"train",1480.0,"2021-11-30 23:00:47.823450","","","","","","",""
1.0,0.09980029612779617,0.0001207837425509777,"train",1500.0,"2021-11-30 23:00:51.584636","","","","","","",""
1.0,0.11648013442754745,0.00012187053165465503,"train",1520.0,"2021-11-30 23:00:55.670523","","","","","","",""
1.0,0.0842042937874794,0.000122971288492142,"train",1540.0,"2021-11-30 23:00:59.348419","","","","","","",""
1.0,0.058190591633319855,0.00012408599631734863,"train",1560.0,"2021-11-30 23:01:03.021475","","","","","","",""
1.0,0.09183444082736969,0.00012521463817194542,"train",1580.0,"2021-11-30 23:01:07.047589","","","","","","",""
1.0,0.11869656294584274,0.00012635719688562077,"train",1600.0,"2021-11-30 23:01:10.839875","","","","","","",""
1.0,0.09111030399799347,0.00012751365507634267,"train",1620.0,"2021-11-30 23:01:14.600841","","","","","","",""
1.0,0.07998321950435638,0.0001286839951506226,"train",1640.0,"2021-11-30 23:01:18.732133","","","","","","",""
1.0,0.07886087894439697,0.00012986819930378333,"train",1660.0,"2021-11-30 23:01:22.547156","","","","","","",""
1.0,0.1244698017835617,0.00013106624952023064,"train",1680.0,"2021-11-30 23:01:26.333041","","","","","","",""
1.0,0.12605413794517517,0.00013227812757372545,"train",1700.0,"2021-11-30 23:01:30.524947","","","","","","",""
1.0,0.07935263961553574,0.00013350381502766394,"train",1720.0,"2021-11-30 23:01:34.345782","","","","","","",""
1.0,0.075484499335289,0.00013474329323535494,"train",1740.0,"2021-11-30 23:01:38.156287","","","","","","",""
1.0,0.10248373448848724,0.0001359965433403059,"train",1760.0,"2021-11-30 23:01:42.337343","","","","","","",""
1.0,0.09181173145771027,0.00013726354627650872,"train",1780.0,"2021-11-30 23:01:46.578959","","","","","","",""
1.0,0.07944438606500626,0.00013854428276873052,"train",1800.0,"2021-11-30 23:01:50.461440","","","","","","",""
1.0,0.1049204170703888,0.00013983873333280506,"train",1820.0,"2021-11-30 23:01:54.708403","","","","","","",""
1.0,0.08733709156513214,0.00014114687827593156,"train",1840.0,"2021-11-30 23:01:58.534887","","","","","","",""
1.0,0.06311631202697754,0.00014246869769697352,"train",1860.0,"2021-11-30 23:02:02.316102","","","","","","",""
1.0,0.08254500478506088,0.00014380417148676054,"train",1880.0,"2021-11-30 23:02:06.554007","","","","","","",""
1.0,0.07087206840515137,0.00014515327932839404,"train",1900.0,"2021-11-30 23:02:10.391103","","","","","","",""
1.0,0.0817909836769104,0.0001465160006975598,"train",1920.0,"2021-11-30 23:02:14.194007","","","","","","",""
1.0,0.08553165942430496,0.00014789231486283454,"train",1940.0,"2021-11-30 23:02:18.331845","","","","","","",""
1.0,0.07881670445203781,0.00014928220088600633,"train",1960.0,"2021-11-30 23:02:22.081166","","","","","","",""
1.0,0.09414369612932205,0.00015068563762239045,"train",1980.0,"2021-11-30 23:02:25.825842","","","","","","",""
1.0,0.110811747610569,0.00015210260372115238,"train",2000.0,"2021-11-30 23:02:30.026366","","","","","","",""
1.0,0.10061994194984436,0.00015353307762563115,"train",2020.0,"2021-11-30 23:02:33.838115","","","","","","",""
1.0,0.09597884118556976,0.00015497703757366872,"train",2040.0,"2021-11-30 23:02:37.582837","","","","","","",""
1.0,0.09744086861610413,0.00015643446159794,"train",2060.0,"2021-11-30 23:02:41.635516","","","","","","",""
1.0,0.08368072658777237,0.0001579053275262887,"train",2080.0,"2021-11-30 23:02:45.325549","","","","","","",""
1.0,0.07882250845432281,0.00015938961298206183,"train",2100.0,"2021-11-30 23:02:49.073502","","","","","","",""
1.0,0.11863160878419876,0.00016088729538445297,"train",2120.0,"2021-11-30 23:02:53.232592","","","","","","",""
1.0,0.1180320754647255,0.000162398351948844,"train",2140.0,"2021-11-30 23:02:56.983513","","","","","","",""
1.0,"","","train",2148.0,"2021-11-30 23:04:39.327036",0.4634650367459798,0.39966240618239995,0.8974789373060854,0.44253298835136456,0.3006219130447658,0.2992066305324608,0.19518799730669495
1.0,"","","val",2148.0,"2021-11-30 23:05:07.327592",0.46265800765394877,0.393822232728336,0.89421953397999,0.43987278700150273,0.2995608617411989,0.2948310646545308,0.19285512924015416
2.0,0.09471075981855392,0.00016392275968715297,"train",2160.0,"2021-11-30 23:05:13.087972","","","","","","",""
2.0,0.09754355251789093,0.00016546049540818223,"train",2180.0,"2021-11-30 23:05:16.904529","","","","","","",""
2.0,0.07512363791465759,0.00016701153571797313,"train",2200.0,"2021-11-30 23:05:21.109871","","","","","","",""
2.0,0.0788772776722908,0.00016857585702016015,"train",2220.0,"2021-11-30 23:05:24.823471","","","","","","",""
2.0,0.07879580557346344,0.00017015343551633126,"train",2240.0,"2021-11-30 23:05:28.618553","","","","","","",""
2.0,0.07373228669166565,0.0001717442472063892,"train",2260.0,"2021-11-30 23:05:32.814181","","","","","","",""
2.0,0.08877968788146973,0.00017334826788891681,"train",2280.0,"2021-11-30 23:05:36.527392","","","","","","",""
2.0,0.07230540364980698,0.00017496547316154555,"train",2300.0,"2021-11-30 23:05:40.280445","","","","","","",""
2.0,0.07155384123325348,0.00017659583842132573,"train",2320.0,"2021-11-30 23:05:44.475643","","","","","","",""
2.0,0.09648262709379196,0.00017823933886510217,"train",2340.0,"2021-11-30 23:05:48.284782","","","","","","",""
2.0,0.11263719201087952,0.00017989594948989015,"train",2360.0,"2021-11-30 23:05:52.080328","","","","","","",""
2.0,0.114674873650074,0.00018156564509325753,"train",2380.0,"2021-11-30 23:05:56.256995","","","","","","",""
2.0,0.13420255482196808,0.0001832484002737059,"train",2400.0,"2021-11-30 23:06:00.064560","","","","","","",""
2.0,0.06385835260152817,0.00018494418943105877,"train",2420.0,"2021-11-30 23:06:03.893100","","","","","","",""
2.0,0.09301354736089706,0.00018665298676685078,"train",2440.0,"2021-11-30 23:06:08.200027","","","","","","",""
2.0,0.0897035300731659,0.0001883747662847191,"train",2460.0,"2021-11-30 23:06:12.104263","","","","","","",""
2.0,0.1043379008769989,0.00019010950179080112,"train",2480.0,"2021-11-30 23:06:15.906701","","","","","","",""
2.0,0.07606764137744904,0.00019185716689412995,"train",2500.0,"2021-11-30 23:06:19.976843","","","","","","",""
2.0,0.09556066244840622,0.00019361773500703797,"train",2520.0,"2021-11-30 23:06:23.676717","","","","","","",""
2.0,0.11074482649564743,0.00019539117934556168,"train",2540.0,"2021-11-30 23:06:27.441825","","","","","","",""
2.0,0.06418737024068832,0.00019717747292984696,"train",2560.0,"2021-11-30 23:06:31.702806","","","","","","",""
2.0,0.0946156308054924,0.0001989765885845624,"train",2580.0,"2021-11-30 23:06:35.463344","","","","","","",""
2.0,0.10141623765230179,0.00020078849893931014,"train",2600.0,"2021-11-30 23:06:39.209841","","","","","","",""
2.0,0.11401316523551941,0.0002026131764290434,"train",2620.0,"2021-11-30 23:06:43.426948","","","","","","",""
2.0,0.07921654731035233,0.00020445059329448614,"train",2640.0,"2021-11-30 23:06:47.272879","","","","","","",""
2.0,0.08743330836296082,0.00020630072158255497,"train",2660.0,"2021-11-30 23:06:51.104299","","","","","","",""
2.0,0.11040244251489639,0.00020816353314678467,"train",2680.0,"2021-11-30 23:06:55.132864","","","","","","",""
2.0,0.10377756506204605,0.00021003899964775505,"train",2700.0,"2021-11-30 23:06:58.758729","","","","","","",""
2.0,0.10295972973108292,0.00021192709255352473,"train",2720.0,"2021-11-30 23:07:02.522450","","","","","","",""
2.0,0.09864260256290436,0.00021382778314006255,"train",2740.0,"2021-11-30 23:07:06.813684","","","","","","",""
2.0,0.0995362177491188,0.00021574104249168615,"train",2760.0,"2021-11-30 23:07:10.620209","","","","","","",""
2.0,0.08706874400377274,0.00021766684150150133,"train",2780.0,"2021-11-30 23:07:14.313363","","","","","","",""
2.0,0.08081252872943878,0.00021960515087184485,"train",2800.0,"2021-11-30 23:07:18.454903","","","","","","",""
2.0,0.07015325874090195,0.00022155594111472978,"train",2820.0,"2021-11-30 23:07:22.256984","","","","","","",""
2.0,0.10104838758707047,0.0002235191825522959,"train",2840.0,"2021-11-30 23:07:25.930595","","","","","","",""
2.0,0.09057352691888809,0.00022549484531725838,"train",2860.0,"2021-11-30 23:07:30.123953","","","","","","",""
2.0,0.07229702174663544,0.00022748289935336434,"train",2880.0,"2021-11-30 23:07:33.951972","","","","","","",""
2.0,0.08038713783025742,0.00022948331441584964,"train",2900.0,"2021-11-30 23:07:37.774617","","","","","","",""
2.0,0.10360905528068542,0.00023149606007189785,"train",2920.0,"2021-11-30 23:07:41.973293","","","","","","",""
2.0,0.09654460847377777,0.00023352110570110476,"train",2940.0,"2021-11-30 23:07:45.771470","","","","","","",""
2.0,0.10960554331541061,0.00023555842049594305,"train",2960.0,"2021-11-30 23:07:49.664778","","","","","","",""
2.0,0.10456711798906326,0.00023760797346223305,"train",2980.0,"2021-11-30 23:07:53.911922","","","","","","",""
2.0,0.07501599937677383,0.00023966973341961028,"train",3000.0,"2021-11-30 23:07:57.748622","","","","","","",""
2.0,0.08432556688785553,0.0002417436690020044,"train",3020.0,"2021-11-30 23:08:01.645481","","","","","","",""
2.0,0.08805431425571442,0.00024382974865811325,"train",3040.0,"2021-11-30 23:08:05.866290","","","","","","",""
2.0,0.0978013202548027,0.000245927940651884,"train",3060.0,"2021-11-30 23:08:09.569294","","","","","","",""
2.0,0.07488757371902466,0.0002480382130629953,"train",3080.0,"2021-11-30 23:08:13.261923","","","","","","",""
2.0,0.09432993084192276,0.0002501605337873443,"train",3100.0,"2021-11-30 23:08:17.343252","","","","","","",""
2.0,0.07583052664995193,0.0002522948705375337,"train",3120.0,"2021-11-30 23:08:21.185604","","","","","","",""
2.0,0.09734969586133957,0.00025444119084336303,"train",3140.0,"2021-11-30 23:08:25.000270","","","","","","",""
2.0,0.1143951490521431,0.00025659946205232364,"train",3160.0,"2021-11-30 23:08:29.169055","","","","","","",""
2.0,0.0899411290884018,0.0002587696513300941,"train",3180.0,"2021-11-30 23:08:32.965688","","","","","","",""
2.0,0.09135586023330688,0.0002609517256610412,"train",3200.0,"2021-11-30 23:08:36.750648","","","","","","",""
2.0,0.07893037050962448,0.00026314565184872084,"train",3220.0,"2021-11-30 23:08:40.830428","","","","","","",""
2.0,"","","train",3222.0,"2021-11-30 23:10:23.805834",0.5253001528050644,0.469701602204312,0.9216450511660871,0.5107943332201468,0.35430465123482047,0.35381463508750427,0.23857122559305843
2.0,"","","val",3222.0,"2021-11-30 23:10:51.696725",0.5205264988982953,0.4581204773342134,0.9142752833574996,0.5024586820479561,0.34817621831140816,0.34609531352949807,0.23097517492622646
3.0,0.08883237093687057,0.0002653513965163838,"train",3240.0,"2021-11-30 23:10:58.489172","","","","","","",""
3.0,0.09057758748531342,0.0002675689261074836,"train",3260.0,"2021-11-30 23:11:02.322461","","","","","","",""
3.0,0.11659084260463715,0.00026979820688618605,"train",3280.0,"2021-11-30 23:11:06.614570","","","","","","",""
3.0,0.09354124963283539,0.00027203920493788433,"train",3300.0,"2021-11-30 23:11:10.405798","","","","","","",""
3.0,0.07535179704427719,0.00027429188616971277,"train",3320.0,"2021-11-30 23:11:14.243630","","","","","","",""
3.0,0.09876853972673416,0.0002765562163110668,"train",3340.0,"2021-11-30 23:11:18.045538","","","","","","",""
3.0,0.09137560427188873,0.00027883216091412503,"train",3360.0,"2021-11-30 23:11:22.185534","","","","","","",""
3.0,0.10739202797412872,0.0002811196853543707,"train",3380.0,"2021-11-30 23:11:25.971443","","","","","","",""
3.0,0.08190740644931793,0.00028341875483112134,"train",3400.0,"2021-11-30 23:11:29.752340","","","","","","",""
3.0,0.06467398256063461,0.00028572933436805644,"train",3420.0,"2021-11-30 23:11:33.922615","","","","","","",""
3.0,0.09396415948867798,0.0002880513888137504,"train",3440.0,"2021-11-30 23:11:37.660601","","","","","","",""
3.0,0.11663536727428436,0.0002903848828422063,"train",3460.0,"2021-11-30 23:11:41.364417","","","","","","",""
3.0,0.06990816444158554,0.00029272978095339465,"train",3480.0,"2021-11-30 23:11:45.458035","","","","","","",""
3.0,0.07905924320220947,0.00029508604747379243,"train",3500.0,"2021-11-30 23:11:49.167333","","","","","","",""
3.0,0.06599881500005722,0.00029745364655692653,"train",3520.0,"2021-11-30 23:11:52.972140","","","","","","",""
3.0,0.08800262212753296,0.0002998325421839181,"train",3540.0,"2021-11-30 23:11:57.297582","","","","","","",""
3.0,0.10694100707769394,0.0003022226981640318,"train",3560.0,"2021-11-30 23:12:01.099160","","","","","","",""
3.0,0.10605038702487946,0.00030462407813522494,"train",3580.0,"2021-11-30 23:12:04.807711","","","","","","",""
3.0,0.06485317647457123,0.0003070366455647027,"train",3600.0,"2021-11-30 23:12:08.875254","","","","","","",""
3.0,0.07139269262552261,0.000309460363749471,"train",3620.0,"2021-11-30 23:12:12.655736","","","","","","",""
3.0,0.08885077387094498,0.0003118951958168978,"train",3640.0,"2021-11-30 23:12:16.463412","","","","","","",""
3.0,0.07548002153635025,0.0003143411047252722,"train",3660.0,"2021-11-30 23:12:20.651084","","","","","","",""
3.0,0.10217298567295074,0.0003167980532643691,"train",3680.0,"2021-11-30 23:12:24.484869","","","","","","",""
3.0,0.06455877423286438,0.0003192660040560141,"train",3700.0,"2021-11-30 23:12:28.282860","","","","","","",""
3.0,0.055789027363061905,0.0003217449195546528,"train",3720.0,"2021-11-30 23:12:32.428340","","","","","","",""
3.0,0.0748443454504013,0.00032423476204792244,"train",3740.0,"2021-11-30 23:12:36.230475","","","","","","",""
3.0,0.07620473951101303,0.0003267354936572248,"train",3760.0,"2021-11-30 23:12:40.029397","","","","","","",""
3.0,0.09603394567966461,0.0003292470763383026,"train",3780.0,"2021-11-30 23:12:44.203207","","","","","","",""
3.0,0.06858699023723602,0.0003317694718818192,"train",3800.0,"2021-11-30 23:12:47.983348","","","","","","",""
3.0,0.11079508066177368,0.00033430264191393853,"train",3820.0,"2021-11-30 23:12:51.799671","","","","","","",""
3.0,0.10195542871952057,0.0003368465478969097,"train",3840.0,"2021-11-30 23:12:55.954935","","","","","","",""
3.0,0.0843869298696518,0.0003394011511296533,"train",3860.0,"2021-11-30 23:12:59.744576","","","","","","",""
3.0,0.0757458359003067,0.0003419664127483496,"train",3880.0,"2021-11-30 23:13:03.534450","","","","","","",""
3.0,0.08954726159572601,0.00034454229372703074,"train",3900.0,"2021-11-30 23:13:07.734208","","","","","","",""
3.0,0.07759825140237808,0.00034712875487817314,"train",3920.0,"2021-11-30 23:13:11.575256","","","","","","",""
3.0,0.050832439213991165,0.00034972575685329526,"train",3940.0,"2021-11-30 23:13:15.475300","","","","","","",""
3.0,0.08667320758104324,0.0003523332601435541,"train",3960.0,"2021-11-30 23:13:19.581672","","","","","","",""
3.0,0.10075701773166656,0.00035495122508034916,"train",3980.0,"2021-11-30 23:13:23.275771","","","","","","",""
3.0,0.07137120515108109,0.0003575796118359231,"train",4000.0,"2021-11-30 23:13:26.961361","","","","","","",""
3.0,0.0592825785279274,0.00036021838042396906,"train",4020.0,"2021-11-30 23:13:31.005324","","","","","","",""
3.0,0.10154666751623154,0.0003628674907002389,"train",4040.0,"2021-11-30 23:13:34.715929","","","","","","",""
3.0,0.08770433068275452,0.00036552690236315395,"train",4060.0,"2021-11-30 23:13:38.407515","","","","","","",""
3.0,0.09158077090978622,0.00036819657495441773,"train",4080.0,"2021-11-30 23:13:42.501013","","","","","","",""
3.0,0.08470553904771805,0.0003708764678596317,"train",4100.0,"2021-11-30 23:13:46.304912","","","","","","",""
3.0,0.10334748029708862,0.00037356654030891293,"train",4120.0,"2021-11-30 23:13:50.043622","","","","","","",""
3.0,0.08477190881967545,0.0003762667513775148,"train",4140.0,"2021-11-30 23:13:54.188598","","","","","","",""
3.0,0.05865813419222832,0.0003789770599864498,"train",4160.0,"2021-11-30 23:13:58.016048","","","","","","",""
3.0,0.07613705843687057,0.000381697424903113,"train",4180.0,"2021-11-30 23:14:01.795241","","","","","","",""
3.0,0.08137065172195435,0.0003844278047419108,"train",4200.0,"2021-11-30 23:14:06.059942","","","","","","",""
3.0,0.07320119440555573,0.0003871681579648903,"train",4220.0,"2021-11-30 23:14:09.848963","","","","","","",""
3.0,0.07290636748075485,0.0003899184428823709,"train",4240.0,"2021-11-30 23:14:13.599104","","","","","","",""
3.0,0.08781211823225021,0.0003926786176535783,"train",4260.0,"2021-11-30 23:14:17.713902","","","","","","",""
3.0,0.08184532076120377,0.0003954486402872818,"train",4280.0,"2021-11-30 23:14:21.478298","","","","","","",""
3.0,"","","train",4296.0,"2021-11-30 23:16:05.930653",0.5481044895583206,0.5191034171077876,0.9346810912102692,0.5570272817059271,0.39154883894911047,0.391627708805293,0.2652628290722278
3.0,"","","val",4296.0,"2021-11-30 23:16:38.596733",0.5354285051606169,0.503573372767797,0.9284116850169308,0.5397307230000044,0.3773584420602803,0.37480819367761253,0.2524464193655055
4.0,0.09684406965970993,0.0003982284686424324,"train",4300.0,"2021-11-30 23:16:42.707452","","","","","","",""
4.0,0.06776605546474457,0.0004010180604288045,"train",4320.0,"2021-11-30 23:16:47.026064","","","","","","",""
4.0,0.0726931020617485,0.00040381737320763873,"train",4340.0,"2021-11-30 23:16:50.785631","","","","","","",""
4.0,0.08379026502370834,0.0004066263643922878,"train",4360.0,"2021-11-30 23:16:54.586559","","","","","","",""
4.0,0.06965423375368118,0.0004094449912488646,"train",4380.0,"2021-11-30 23:16:58.858431","","","","","","",""
4.0,0.11546771973371506,0.0004122732108968923,"train",4400.0,"2021-11-30 23:17:02.787502","","","","","","",""
4.0,0.08750748634338379,0.0004151109803099558,"train",4420.0,"2021-11-30 23:17:06.702732","","","","","","",""
4.0,0.08119165152311325,0.00041795825631635764,"train",4440.0,"2021-11-30 23:17:10.911368","","","","","","",""
4.0,0.09254740178585052,0.0004208149955997739,"train",4460.0,"2021-11-30 23:17:14.769200","","","","","","",""
4.0,0.08561485260725021,0.0004236811546999141,"train",4480.0,"2021-11-30 23:17:18.623092","","","","","","",""
4.0,0.09260077029466629,0.0004265566900131805,"train",4500.0,"2021-11-30 23:17:22.901595","","","","","","",""
4.0,0.08525726944208145,0.0004294415577933337,"train",4520.0,"2021-11-30 23:17:26.737895","","","","","","",""
4.0,0.0788259357213974,0.00043233571415215717,"train",4540.0,"2021-11-30 23:17:30.580877","","","","","","",""
4.0,0.0782453864812851,0.0004352391150601242,"train",4560.0,"2021-11-30 23:17:34.459809","","","","","","",""
4.0,0.11543278396129608,0.0004381517163470684,"train",4580.0,"2021-11-30 23:17:38.601345","","","","","","",""
4.0,0.06887585669755936,0.00044107347370285683,"train",4600.0,"2021-11-30 23:17:42.238156","","","","","","",""
4.0,0.10579775273799896,0.00044400434267806194,"train",4620.0,"2021-11-30 23:17:45.830840","","","","","","",""
4.0,0.0633070319890976,0.00044694427868463907,"train",4640.0,"2021-11-30 23:17:49.847139","","","","","","",""
4.0,0.0992310643196106,0.00044989323699660467,"train",4660.0,"2021-11-30 23:17:53.536318","","","","","","",""
4.0,0.06062282249331474,0.0004528511727507165,"train",4680.0,"2021-11-30 23:17:57.363712","","","","","","",""
4.0,0.05633963271975517,0.00045581804094715645,"train",4700.0,"2021-11-30 23:18:01.651488","","","","","","",""
4.0,0.10558893531560898,0.00045879379645021425,"train",4720.0,"2021-11-30 23:18:05.439110","","","","","","",""
4.0,0.11640637367963791,0.0004617783939889759,"train",4740.0,"2021-11-30 23:18:09.214783","","","","","","",""
4.0,0.10405553877353668,0.0004647717881580103,"train",4760.0,"2021-11-30 23:18:13.352687","","","","","","",""
4.0,0.0628853514790535,0.0004677739334180617,"train",4780.0,"2021-11-30 23:18:17.189427","","","","","","",""
4.0,0.08597760647535324,0.00047078478409674144,"train",4800.0,"2021-11-30 23:18:21.017029","","","","","","",""
4.0,0.07406802475452423,0.00047380429438922305,"train",4820.0,"2021-11-30 23:18:25.223895","","","","","","",""
4.0,0.06546944379806519,0.00047683241835893946,"train",4840.0,"2021-11-30 23:18:28.997261","","","","","","",""
4.0,0.06571000814437866,0.0004798691099382815,"train",4860.0,"2021-11-30 23:18:32.788946","","","","","","",""
4.0,0.07573982328176498,0.0004829143229292986,"train",4880.0,"2021-11-30 23:18:36.846240","","","","","","",""
4.0,0.09265672415494919,0.0004859680110044023,"train",4900.0,"2021-11-30 23:18:40.551463","","","","","","",""
4.0,0.09242259711027145,0.0004890301277070699,"train",4920.0,"2021-11-30 23:18:44.257744","","","","","","",""
4.0,0.07248440384864807,0.0004921006264525525,"train",4940.0,"2021-11-30 23:18:48.356929","","","","","","",""
4.0,0.07905736565589905,0.0004951794605285824,"train",4960.0,"2021-11-30 23:18:52.128010","","","","","","",""
4.0,0.08997084945440292,0.0004982665830960853,"train",4980.0,"2021-11-30 23:18:55.959910","","","","","","",""
4.0,0.05640648305416107,0.0005013619471898913,"train",5000.0,"2021-11-30 23:19:00.064715","","","","","","",""
4.0,0.09278282523155212,0.0005044655057194504,"train",5020.0,"2021-11-30 23:19:03.881578","","","","","","",""
4.0,0.08831723034381866,0.0005075772114695486,"train",5040.0,"2021-11-30 23:19:07.719472","","","","","","",""
4.0,0.09265593439340591,0.0005106970171010257,"train",5060.0,"2021-11-30 23:19:12.001694","","","","","","",""
4.0,0.0786951333284378,0.0005138248751514966,"train",5080.0,"2021-11-30 23:19:15.858685","","","","","","",""
4.0,0.08284134417772293,0.0005169607380360731,"train",5100.0,"2021-11-30 23:19:19.657685","","","","","","",""
4.0,0.10434398800134659,0.000520104558048086,"train",5120.0,"2021-11-30 23:19:23.832643","","","","","","",""
4.0,0.09850136190652847,0.0005232562873598136,"train",5140.0,"2021-11-30 23:19:27.616390","","","","","","",""
4.0,0.07591668516397476,0.0005264158780232072,"train",5160.0,"2021-11-30 23:19:31.375492","","","","","","",""
4.0,0.06735040992498398,0.0005295832819706228,"train",5180.0,"2021-11-30 23:19:35.498147","","","","","","",""
4.0,0.06706143915653229,0.0005327584510155488,"train",5200.0,"2021-11-30 23:19:39.296771","","","","","","",""
4.0,0.09320084005594254,0.000535941336853343,"train",5220.0,"2021-11-30 23:19:43.138042","","","","","","",""
4.0,0.08810760825872421,0.0005391318910619655,"train",5240.0,"2021-11-30 23:19:47.429388","","","","","","",""
4.0,0.09758955240249634,0.0005423300651027144,"train",5260.0,"2021-11-30 23:19:51.180220","","","","","","",""
4.0,0.07076562941074371,0.0005455358103209663,"train",5280.0,"2021-11-30 23:19:54.999191","","","","","","",""
4.0,0.07574918866157532,0.0005487490779469157,"train",5300.0,"2021-11-30 23:19:59.232543","","","","","","",""
4.0,0.07286881655454636,0.000551969819096316,"train",5320.0,"2021-11-30 23:20:03.124852","","","","","","",""
4.0,0.09814659506082535,0.0005551979847712252,"train",5340.0,"2021-11-30 23:20:06.969216","","","","","","",""
4.0,0.0664958506822586,0.0005584335258607489,"train",5360.0,"2021-11-30 23:20:11.170383","","","","","","",""
4.0,"","","train",5370.0,"2021-11-30 23:21:55.996352",0.5540857163646947,0.5443419507061197,0.9393333635924175,0.5210030145642215,0.3855609540330176,0.4038127048096397,0.261179779327965
4.0,"","","val",5370.0,"2021-11-30 23:22:24.563650",0.5439522208048243,0.522340446916466,0.9315736890010312,0.5075122499180963,0.37052295036620053,0.38496662517848357,0.24697915587818317
5.0,0.06614090502262115,0.0005616763931417894,"train",5380.0,"2021-11-30 23:22:33.341411","","","","","","",""
5.0,0.08624830096960068,0.0005649265372797939,"train",5400.0,"2021-11-30 23:22:37.217379","","","","","","",""
5.0,0.06387823075056076,0.0005681839088295046,"train",5420.0,"2021-11-30 23:22:41.568167","","","","","","",""
5.0,0.06456848233938217,0.0005714484582357109,"train",5440.0,"2021-11-30 23:22:45.428680","","","","","","",""
5.0,0.058569420129060745,0.0005747201358340048,"train",5460.0,"2021-11-30 23:22:49.199459","","","","","","",""
5.0,0.09478936344385147,0.0005779988918515344,"train",5480.0,"2021-11-30 23:22:53.318770","","","","","","",""
5.0,0.11890166252851486,0.0005812846764077623,"train",5500.0,"2021-11-30 23:22:57.097103","","","","","","",""
5.0,0.0634172335267067,0.0005845774395152243,"train",5520.0,"2021-11-30 23:23:00.859371","","","","","","",""
5.0,0.05822844058275223,0.0005878771310802895,"train",5540.0,"2021-11-30 23:23:05.060726","","","","","","",""
5.0,0.07974440604448318,0.0005911837009039229,"train",5560.0,"2021-11-30 23:23:08.832081","","","","","","",""
5.0,0.08416884392499924,0.0005944970986824485,"train",5580.0,"2021-11-30 23:23:12.668809","","","","","","",""
5.0,0.07272832095623016,0.000597817274008315,"train",5600.0,"2021-11-30 23:23:16.819355","","","","","","",""
5.0,0.09418744593858719,0.0006011441763708635,"train",5620.0,"2021-11-30 23:23:20.560830","","","","","","",""
5.0,0.07609546184539795,0.0006044777551570929,"train",5640.0,"2021-11-30 23:23:24.350430","","","","","","",""
5.0,0.08008299022912979,0.000607817959652434,"train",5660.0,"2021-11-30 23:23:28.543775","","","","","","",""
5.0,0.07994991540908813,0.0006111647390415189,"train",5680.0,"2021-11-30 23:23:32.362573","","","","","","",""
5.0,0.062495920807123184,0.0006145180424089525,"train",5700.0,"2021-11-30 23:23:36.196667","","","","","","",""
5.0,0.08251603692770004,0.0006178778187400902,"train",5720.0,"2021-11-30 23:23:40.417418","","","","","","",""
5.0,0.08452728390693665,0.0006212440169218129,"train",5740.0,"2021-11-30 23:23:44.268350","","","","","","",""
5.0,0.08660385012626648,0.0006246165857433027,"train",5760.0,"2021-11-30 23:23:48.110985","","","","","","",""
5.0,0.053989995270967484,0.0006279954738968251,"train",5780.0,"2021-11-30 23:23:51.969636","","","","","","",""
5.0,0.078008733689785,0.0006313806299785075,"train",5800.0,"2021-11-30 23:23:56.278049","","","","","","",""
5.0,0.05690019950270653,0.0006347720024891209,"train",5820.0,"2021-11-30 23:24:00.106309","","","","","","",""
5.0,0.06884829699993134,0.0006381695398348657,"train",5840.0,"2021-11-30 23:24:03.946361","","","","","","",""
5.0,0.058241359889507294,0.0006415731903281542,"train",5860.0,"2021-11-30 23:24:08.116801","","","","","","",""
5.0,0.07666277885437012,0.0006449829021883979,"train",5880.0,"2021-11-30 23:24:11.898036","","","","","","",""
5.0,0.06122906506061554,0.0006483986235427956,"train",5900.0,"2021-11-30 23:24:15.662630","","","","","","",""
5.0,0.07704514265060425,0.0006518203024271213,"train",5920.0,"2021-11-30 23:24:19.871667","","","","","","",""
5.0,0.067243792116642,0.0006552478867865169,"train",5940.0,"2021-11-30 23:24:23.721082","","","","","","",""
5.0,0.07770609855651855,0.0006586813244762815,"train",5960.0,"2021-11-30 23:24:27.591703","","","","","","",""
5.0,0.08735282719135284,0.0006621205632626672,"train",5980.0,"2021-11-30 23:24:31.927089","","","","","","",""
5.0,0.06736864894628525,0.0006655655508236717,"train",6000.0,"2021-11-30 23:24:35.763498","","","","","","",""
5.0,0.061818547546863556,0.0006690162347498356,"train",6020.0,"2021-11-30 23:24:39.617005","","","","","","",""
5.0,0.08013828098773956,0.0006724725625450389,"train",6040.0,"2021-11-30 23:24:43.784928","","","","","","",""
5.0,0.05235811695456505,0.0006759344816273003,"train",6060.0,"2021-11-30 23:24:47.628611","","","","","","",""
5.0,0.0761374831199646,0.0006794019393295771,"train",6080.0,"2021-11-30 23:24:51.473348","","","","","","",""
5.0,0.07894065976142883,0.0006828748829005654,"train",6100.0,"2021-11-30 23:24:55.707369","","","","","","",""
5.0,0.07011337578296661,0.0006863532595055041,"train",6120.0,"2021-11-30 23:24:59.551207","","","","","","",""
5.0,0.08590006083250046,0.0006898370162269777,"train",6140.0,"2021-11-30 23:25:03.319131","","","","","","",""
5.0,0.08921530097723007,0.0006933261000657217,"train",6160.0,"2021-11-30 23:25:07.463369","","","","","","",""
5.0,0.05305613949894905,0.000696820457941429,"train",6180.0,"2021-11-30 23:25:11.241178","","","","","","",""
5.0,0.06364943832159042,0.000700320036693557,"train",6200.0,"2021-11-30 23:25:15.016616","","","","","","",""
5.0,0.0822279304265976,0.0007038247830821358,"train",6220.0,"2021-11-30 23:25:19.286472","","","","","","",""
5.0,0.05778532102704048,0.0007073346437885815,"train",6240.0,"2021-11-30 23:25:23.165511","","","","","","",""
5.0,0.1164010539650917,0.000710849565416502,"train",6260.0,"2021-11-30 23:25:27.040263","","","","","","",""
5.0,0.05320337414741516,0.0007143694944925134,"train",6280.0,"2021-11-30 23:25:31.247264","","","","","","",""
5.0,0.055472586303949356,0.0007178943774670524,"train",6300.0,"2021-11-30 23:25:35.116358","","","","","","",""
5.0,0.06780502945184708,0.0007214241607151901,"train",6320.0,"2021-11-30 23:25:38.931696","","","","","","",""
5.0,0.0883161723613739,0.000724958790537449,"train",6340.0,"2021-11-30 23:25:43.047628","","","","","","",""
5.0,0.0751972422003746,0.0007284982131606195,"train",6360.0,"2021-11-30 23:25:46.884907","","","","","","",""
5.0,0.06420433521270752,0.0007320423747385781,"train",6380.0,"2021-11-30 23:25:50.714709","","","","","","",""
5.0,0.06565927714109421,0.0007355912213531054,"train",6400.0,"2021-11-30 23:25:54.872217","","","","","","",""
5.0,0.0732196494936943,0.000739144699014708,"train",6420.0,"2021-11-30 23:25:58.634325","","","","","","",""
5.0,0.0795404314994812,0.0007427027536634401,"train",6440.0,"2021-11-30 23:26:02.436299","","","","","","",""
5.0,"","","train",6444.0,"2021-11-30 23:27:45.085993",0.5860583569817361,0.571999375806084,0.9427638507471167,0.5776757417631886,0.4445706230632742,0.46272550945686475,0.3046471977688758
5.0,"","","val",6444.0,"2021-11-30 23:28:13.120433",0.571204917082222,0.5429038262635053,0.9332690792790613,0.559695423214552,0.42655421537393273,0.4424343140243605,0.28573411579332325
6.0,0.06352264434099197,0.0007462653311697235,"train",6460.0,"2021-11-30 23:28:20.035232","","","","","","",""
6.0,0.07481777667999268,0.0007498323773351733,"train",6480.0,"2021-11-30 23:28:23.815875","","","","","","",""
6.0,0.06287968158721924,0.0007534038378934223,"train",6500.0,"2021-11-30 23:28:27.533979","","","","","","",""
6.0,0.0599372424185276,0.0007569796585109453,"train",6520.0,"2021-11-30 23:28:31.617984","","","","","","",""
6.0,0.07103974372148514,0.0007605597847878862,"train",6540.0,"2021-11-30 23:28:35.303045","","","","","","",""
6.0,0.06100911647081375,0.0007641441622588871,"train",6560.0,"2021-11-30 23:28:39.050742","","","","","","",""
6.0,0.05883593112230301,0.0007677327363939143,"train",6580.0,"2021-11-30 23:28:43.156595","","","","","","",""
6.0,0.061439186334609985,0.0007713254525990895,"train",6600.0,"2021-11-30 23:28:46.911011","","","","","","",""
6.0,0.06412315368652344,0.0007749222562175211,"train",6620.0,"2021-11-30 23:28:50.669695","","","","","","",""
6.0,0.05218781903386116,0.000778523092530133,"train",6640.0,"2021-11-30 23:28:54.797100","","","","","","",""
6.0,0.07755255699157715,0.0007821279067564996,"train",6660.0,"2021-11-30 23:28:58.589916","","","","","","",""
6.0,0.07704760134220123,0.0007857366440556786,"train",6680.0,"2021-11-30 23:29:02.340869","","","","","","",""
6.0,0.06791605055332184,0.0007893492495270442,"train",6700.0,"2021-11-30 23:29:06.453685","","","","","","",""
6.0,0.0723138228058815,0.0007929656682111239,"train",6720.0,"2021-11-30 23:29:10.244314","","","","","","",""
6.0,0.047594860196113586,0.0007965858450904332,"train",6740.0,"2021-11-30 23:29:14.071486","","","","","","",""
6.0,0.04658501595258713,0.000800209725090314,"train",6760.0,"2021-11-30 23:29:18.357754","","","","","","",""
6.0,0.07353930175304413,0.0008038372530797706,"train",6780.0,"2021-11-30 23:29:22.177589","","","","","","",""
6.0,0.0836528018116951,0.0008074683738723109,"train",6800.0,"2021-11-30 23:29:25.953301","","","","","","",""
6.0,0.08305702358484268,0.0008111030322267832,"train",6820.0,"2021-11-30 23:29:30.114968","","","","","","",""
6.0,0.0757635161280632,0.0008147411728482187,"train",6840.0,"2021-11-30 23:29:33.916067","","","","","","",""
6.0,0.10586326569318771,0.0008183827403886721,"train",6860.0,"2021-11-30 23:29:37.744215","","","","","","",""
6.0,0.04535709321498871,0.0008220276794480633,"train",6880.0,"2021-11-30 23:29:41.587250","","","","","","",""
6.0,0.06012013927102089,0.0008256759345750203,"train",6900.0,"2021-11-30 23:29:45.683501","","","","","","",""
6.0,0.08380277454853058,0.0008293274502677234,"train",6920.0,"2021-11-30 23:29:49.422704","","","","","","",""
6.0,0.054597966372966766,0.0008329821709747486,"train",6940.0,"2021-11-30 23:29:53.156112","","","","","","",""
6.0,0.0648336410522461,0.0008366400410959136,"train",6960.0,"2021-11-30 23:29:57.304976","","","","","","",""
6.0,0.0664273276925087,0.000840301004983123,"train",6980.0,"2021-11-30 23:30:01.117736","","","","","","",""
6.0,0.07224654406309128,0.0008439650069412147,"train",7000.0,"2021-11-30 23:30:04.927763","","","","","","",""
6.0,0.06952644884586334,0.0008476319912288095,"train",7020.0,"2021-11-30 23:30:09.096575","","","","","","",""
6.0,0.06586308777332306,0.0008513019020591544,"train",7040.0,"2021-11-30 23:30:12.987207","","","","","","",""
6.0,0.07405629009008408,0.0008549746836009771,"train",7060.0,"2021-11-30 23:30:16.809613","","","","","","",""
6.0,0.04910804703831673,0.0008586502799793306,"train",7080.0,"2021-11-30 23:30:21.007988","","","","","","",""
6.0,0.03947266563773155,0.0008623286352764453,"train",7100.0,"2021-11-30 23:30:24.904306","","","","","","",""
6.0,0.09741584211587906,0.0008660096935325802,"train",7120.0,"2021-11-30 23:30:28.729501","","","","","","",""
6.0,0.08222411572933197,0.0008696933987468731,"train",7140.0,"2021-11-30 23:30:32.942995","","","","","","",""
6.0,0.06482842564582825,0.0008733796948781924,"train",7160.0,"2021-11-30 23:30:36.796812","","","","","","",""
6.0,0.07625043392181396,0.0008770685258459915,"train",7180.0,"2021-11-30 23:30:40.649293","","","","","","",""
6.0,0.06812870502471924,0.0008807598355311595,"train",7200.0,"2021-11-30 23:30:44.835223","","","","","","",""
6.0,0.07535917311906815,0.0008844535677768764,"train",7220.0,"2021-11-30 23:30:48.645080","","","","","","",""
6.0,0.05983484908938408,0.0008881496663894681,"train",7240.0,"2021-11-30 23:30:52.425454","","","","","","",""
6.0,0.08845142275094986,0.0008918480751392592,"train",7260.0,"2021-11-30 23:30:56.617000","","","","","","",""
6.0,0.05566446855664253,0.00089554873776143,"train",7280.0,"2021-11-30 23:31:00.420884","","","","","","",""
6.0,0.0829080119729042,0.0008992515979568724,"train",7300.0,"2021-11-30 23:31:04.260442","","","","","","",""
6.0,0.08379366248846054,0.0009029565993930457,"train",7320.0,"2021-11-30 23:31:08.514696","","","","","","",""
6.0,0.06125598028302193,0.0009066636857048339,"train",7340.0,"2021-11-30 23:31:12.431554","","","","","","",""
6.0,0.09208362549543381,0.0009103728004954039,"train",7360.0,"2021-11-30 23:31:16.232120","","","","","","",""
6.0,0.10884328186511993,0.0009140838873370617,"train",7380.0,"2021-11-30 23:31:20.375597","","","","","","",""
6.0,0.06945623457431793,0.0009177968897721136,"train",7400.0,"2021-11-30 23:31:24.198265","","","","","","",""
6.0,0.08256914466619492,0.0009215117513137218,"train",7420.0,"2021-11-30 23:31:28.051471","","","","","","",""
6.0,0.09164386987686157,0.0009252284154467663,"train",7440.0,"2021-11-30 23:31:32.230818","","","","","","",""
6.0,0.0579293891787529,0.0009289468256287042,"train",7460.0,"2021-11-30 23:31:36.056812","","","","","","",""
6.0,0.08193590492010117,0.0009326669252904287,"train",7480.0,"2021-11-30 23:31:39.872808","","","","","","",""
6.0,0.08690474927425385,0.0009363886578371307,"train",7500.0,"2021-11-30 23:31:44.056872","","","","","","",""
6.0,"","","train",7518.0,"2021-11-30 23:33:29.446178",0.6070872444153387,0.5995477860318154,0.9498530465814248,0.6038163020251212,0.46898228230920674,0.49215507852829704,0.32475349829274963
6.0,"","","val",7518.0,"2021-11-30 23:33:57.299457",0.5832077003363099,0.5646089611775328,0.9366511780412872,0.5747742021323284,0.4409800441224488,0.4622451695002868,0.29635344742763425
7.0,0.07022465765476227,0.0009401119666491604,"train",7520.0,"2021-11-30 23:34:05.672977","","","","","","",""
7.0,0.07140316069126129,0.0009438367950828869,"train",7540.0,"2021-11-30 23:34:09.629408","","","","","","",""
7.0,0.07508885860443115,0.000947563086471561,"train",7560.0,"2021-11-30 23:34:13.925833","","","","","","",""
7.0,0.07616515457630157,0.0009512907841261783,"train",7580.0,"2021-11-30 23:34:17.716589","","","","","","",""
7.0,0.060740187764167786,0.0009550198313363391,"train",7600.0,"2021-11-30 23:34:21.610029","","","","","","",""
7.0,0.07889475673437119,0.0009587501713711128,"train",7620.0,"2021-11-30 23:34:25.872031","","","","","","",""
7.0,0.05750799924135208,0.0009624817474799023,"train",7640.0,"2021-11-30 23:34:29.776194","","","","","","",""
7.0,0.08665499836206436,0.0009662145028933038,"train",7660.0,"2021-11-30 23:34:33.720244","","","","","","",""
7.0,0.05617959052324295,0.0009699483808239733,"train",7680.0,"2021-11-30 23:34:38.022046","","","","","","",""
7.0,0.06214679405093193,0.0009736833244674895,"train",7700.0,"2021-11-30 23:34:41.854596","","","","","","",""
7.0,0.081702820956707,0.0009774192770032192,"train",7720.0,"2021-11-30 23:34:45.694524","","","","","","",""
7.0,0.10160024464130402,0.0009811561815951785,"train",7740.0,"2021-11-30 23:34:49.937158","","","","","","",""
7.0,0.08148788660764694,0.0009848939813929015,"train",7760.0,"2021-11-30 23:34:53.795385","","","","","","",""
7.0,0.07930036634206772,0.0009886326195323026,"train",7780.0,"2021-11-30 23:34:57.661312","","","","","","",""
7.0,0.07998477667570114,0.0009923720391365428,"train",7800.0,"2021-11-30 23:35:01.892354","","","","","","",""
7.0,0.08262242376804352,0.000996112183316893,"train",7820.0,"2021-11-30 23:35:05.782919","","","","","","",""
7.0,0.07118856906890869,0.0009998529951736029,"train",7840.0,"2021-11-30 23:35:09.599246","","","","","","",""
7.0,0.05734601616859436,0.0010035944177967638,"train",7860.0,"2021-11-30 23:35:13.789124","","","","","","",""
7.0,0.09234705567359924,0.0010073363942671744,"train",7880.0,"2021-11-30 23:35:17.607318","","","","","","",""
7.0,0.07493029534816742,0.0010110788676572094,"train",7900.0,"2021-11-30 23:35:21.432998","","","","","","",""
7.0,0.058698683977127075,0.0010148217810316822,"train",7920.0,"2021-11-30 23:35:25.722297","","","","","","",""
7.0,0.05652352795004845,0.0010185650774487127,"train",7940.0,"2021-11-30 23:35:29.593563","","","","","","",""
7.0,0.06740827858448029,0.0010223086999605951,"train",7960.0,"2021-11-30 23:35:33.552323","","","","","","",""
7.0,0.09669491648674011,0.0010260525916146609,"train",7980.0,"2021-11-30 23:35:37.428934","","","","","","",""
7.0,0.0580640509724617,0.0010297966954541469,"train",8000.0,"2021-11-30 23:35:41.674782","","","","","","",""
7.0,0.09370596706867218,0.001033540954519064,"train",8020.0,"2021-11-30 23:35:45.537523","","","","","","",""
7.0,0.08524785190820694,0.0010372853118470592,"train",8040.0,"2021-11-30 23:35:49.384249","","","","","","",""
7.0,0.08102720230817795,0.0010410297104742857,"train",8060.0,"2021-11-30 23:35:53.603720","","","","","","",""
7.0,0.05843779817223549,0.0010447740934362692,"train",8080.0,"2021-11-30 23:35:57.394441","","","","","","",""
7.0,0.06720248609781265,0.0010485184037687715,"train",8100.0,"2021-11-30 23:36:01.236861","","","","","","",""
7.0,0.08514347672462463,0.0010522625845086615,"train",8120.0,"2021-11-30 23:36:05.430497","","","","","","",""
7.0,0.07245693355798721,0.0010560065786947796,"train",8140.0,"2021-11-30 23:36:09.239460","","","","","","",""
7.0,0.07048080861568451,0.0010597503293688013,"train",8160.0,"2021-11-30 23:36:13.162147","","","","","","",""
7.0,0.05889870971441269,0.001063493779576111,"train",8180.0,"2021-11-30 23:36:17.439124","","","","","","",""
7.0,0.07497012615203857,0.0010672368723666614,"train",8200.0,"2021-11-30 23:36:21.368505","","","","","","",""
7.0,0.08412379026412964,0.0010709795507958426,"train",8220.0,"2021-11-30 23:36:25.183060","","","","","","",""
7.0,0.06877678632736206,0.0010747217579253504,"train",8240.0,"2021-11-30 23:36:29.357174","","","","","","",""
7.0,0.08134599030017853,0.0010784634368240487,"train",8260.0,"2021-11-30 23:36:33.033787","","","","","","",""
7.0,0.07141118496656418,0.0010822045305688382,"train",8280.0,"2021-11-30 23:36:36.821259","","","","","","",""
7.0,0.06749965995550156,0.0010859449822455227,"train",8300.0,"2021-11-30 23:36:40.899634","","","","","","",""
7.0,0.07178135961294174,0.001089684734949672,"train",8320.0,"2021-11-30 23:36:44.776599","","","","","","",""
7.0,0.07961893081665039,0.00109342373178749,"train",8340.0,"2021-11-30 23:36:48.653895","","","","","","",""
7.0,0.07570891827344894,0.0010971619158766821,"train",8360.0,"2021-11-30 23:36:52.856872","","","","","","",""
7.0,0.05000320076942444,0.0011008992303473152,"train",8380.0,"2021-11-30 23:36:56.693406","","","","","","",""
7.0,0.09082245081663132,0.001104635618342687,"train",8400.0,"2021-11-30 23:37:00.560068","","","","","","",""
7.0,0.11059477180242538,0.001108371023020191,"train",8420.0,"2021-11-30 23:37:04.868225","","","","","","",""
7.0,0.08073604106903076,0.0011121053875521787,"train",8440.0,"2021-11-30 23:37:08.804529","","","","","","",""
7.0,0.06020898371934891,0.0011158386551268257,"train",8460.0,"2021-11-30 23:37:12.629494","","","","","","",""
7.0,0.08971542119979858,0.0011195707689489972,"train",8480.0,"2021-11-30 23:37:16.793404","","","","","","",""
7.0,0.06941874325275421,0.0011233016722411097,"train",8500.0,"2021-11-30 23:37:20.631044","","","","","","",""
7.0,0.09269704669713974,0.0011270313082439951,"train",8520.0,"2021-11-30 23:37:24.449303","","","","","","",""
7.0,0.06477074325084686,0.001130759620217767,"train",8540.0,"2021-11-30 23:37:28.644902","","","","","","",""
7.0,0.06985220313072205,0.0011344865514426794,"train",8560.0,"2021-11-30 23:37:32.508120","","","","","","",""
7.0,0.07276710122823715,0.0011382120452199938,"train",8580.0,"2021-11-30 23:37:36.273254","","","","","","",""
7.0,"","","train",8592.0,"2021-11-30 23:39:19.522664",0.6084988721530962,0.6004074363697331,0.9428625593633059,0.6098405328111915,0.49272425203120374,0.5025858389048454,0.3407686312674001
7.0,"","","val",8592.0,"2021-11-30 23:39:47.386337",0.5862808767250377,0.5628080237148657,0.930808662251506,0.582809279113977,0.46802586955520514,0.47625437995584835,0.3142441428148007
8.0,0.06728462874889374,0.001141936044872839,"train",8600.0,"2021-11-30 23:39:52.315382","","","","","","",""
8.0,0.05773954838514328,0.0011456584937470744,"train",8620.0,"2021-11-30 23:39:56.097232","","","","","","",""
8.0,0.04600130021572113,0.0011493793352121522,"train",8640.0,"2021-11-30 23:39:59.909173","","","","","","",""
8.0,0.06733781844377518,0.0011530985126619784,"train",8660.0,"2021-11-30 23:40:04.145340","","","","","","",""
8.0,0.06834625452756882,0.001156815969515773,"train",8680.0,"2021-11-30 23:40:08.031343","","","","","","",""
8.0,0.06640224158763885,0.001160531649218934,"train",8700.0,"2021-11-30 23:40:11.777178","","","","","","",""
8.0,0.09865587204694748,0.001164245495243894,"train",8720.0,"2021-11-30 23:40:15.966004","","","","","","",""
8.0,0.07281775027513504,0.0011679574510909817,"train",8740.0,"2021-11-30 23:40:19.771155","","","","","","",""
8.0,0.05756812170147896,0.0011716674602892828,"train",8760.0,"2021-11-30 23:40:23.608248","","","","","","",""
8.0,0.0594831258058548,0.0011753754663974968,"train",8780.0,"2021-11-30 23:40:27.784264","","","","","","",""
8.0,0.07930062711238861,0.0011790814130047968,"train",8800.0,"2021-11-30 23:40:31.654522","","","","","","",""
8.0,0.055043112486600876,0.001182785243731688,"train",8820.0,"2021-11-30 23:40:35.454875","","","","","","",""
8.0,0.09924694895744324,0.0011864869022308656,"train",8840.0,"2021-11-30 23:40:39.616450","","","","","","",""
8.0,0.07728977501392365,0.0011901863321880693,"train",8860.0,"2021-11-30 23:40:43.357035","","","","","","",""
8.0,0.0838831439614296,0.001193883477322945,"train",8880.0,"2021-11-30 23:40:46.990273","","","","","","",""
8.0,0.0757892057299614,0.0011975782813898961,"train",8900.0,"2021-11-30 23:40:50.981985","","","","","","",""
8.0,0.08179526776075363,0.0012012706881789417,"train",8920.0,"2021-11-30 23:40:54.640633","","","","","","",""
8.0,0.06009326130151749,0.001204960641516572,"train",8940.0,"2021-11-30 23:40:58.304177","","","","","","",""
8.0,0.043793730437755585,0.0012086480852666014,"train",8960.0,"2021-11-30 23:41:02.305754","","","","","","",""
8.0,0.06613637506961823,0.0012123329633310235,"train",8980.0,"2021-11-30 23:41:05.958874","","","","","","",""
8.0,0.04300391674041748,0.0012160152196508643,"train",9000.0,"2021-11-30 23:41:09.633144","","","","","","",""
8.0,0.04813876375555992,0.0012196947982070355,"train",9020.0,"2021-11-30 23:41:13.723515","","","","","","",""
8.0,0.06363053619861603,0.0012233716430211856,"train",9040.0,"2021-11-30 23:41:17.479374","","","","","","",""
8.0,0.0786890983581543,0.001227045698156553,"train",9060.0,"2021-11-30 23:41:20.993767","","","","","","",""
8.0,0.07156354188919067,0.0012307169077188148,"train",9080.0,"2021-11-30 23:41:24.941495","","","","","","",""
8.0,0.0464995875954628,0.0012343852158569401,"train",9100.0,"2021-11-30 23:41:28.712112","","","","","","",""
8.0,0.05525526404380798,0.0012380505667640377,"train",9120.0,"2021-11-30 23:41:32.447875","","","","","","",""
8.0,0.07585201412439346,0.0012417129046782046,"train",9140.0,"2021-11-30 23:41:36.524937","","","","","","",""
8.0,0.05855588614940643,0.0012453721738833758,"train",9160.0,"2021-11-30 23:41:40.284190","","","","","","",""
8.0,0.057264477014541626,0.001249028318710172,"train",9180.0,"2021-11-30 23:41:44.018250","","","","","","",""
8.0,0.06502840667963028,0.0012526812835367447,"train",9200.0,"2021-11-30 23:41:48.107902","","","","","","",""
8.0,0.08714098483324051,0.0012563310127896242,"train",9220.0,"2021-11-30 23:41:51.881583","","","","","","",""
8.0,0.05675940960645676,0.0012599774509445645,"train",9240.0,"2021-11-30 23:41:55.616487","","","","","","",""
8.0,0.059563979506492615,0.0012636205425273874,"train",9260.0,"2021-11-30 23:41:59.393991","","","","","","",""
8.0,0.060314346104860306,0.0012672602321148268,"train",9280.0,"2021-11-30 23:42:03.543672","","","","","","",""
8.0,0.08103948831558228,0.0012708964643353732,"train",9300.0,"2021-11-30 23:42:07.302774","","","","","","",""
8.0,0.12306453287601471,0.001274529183870114,"train",9320.0,"2021-11-30 23:42:11.053308","","","","","","",""
8.0,0.05826752260327339,0.0012781583354535748,"train",9340.0,"2021-11-30 23:42:15.151451","","","","","","",""
8.0,0.07606395334005356,0.0012817838638745646,"train",9360.0,"2021-11-30 23:42:18.832066","","","","","","",""
8.0,0.08263995498418808,0.001285405713977009,"train",9380.0,"2021-11-30 23:42:22.546602","","","","","","",""
8.0,0.08202337473630905,0.0012890238306607947,"train",9400.0,"2021-11-30 23:42:26.662796","","","","","","",""
8.0,0.0626872330904007,0.001292638158882606,"train",9420.0,"2021-11-30 23:42:30.444208","","","","","","",""
8.0,0.07245388627052307,0.0012962486436567603,"train",9440.0,"2021-11-30 23:42:34.285093","","","","","","",""
8.0,0.06638150662183762,0.0012998552300560484,"train",9460.0,"2021-11-30 23:42:38.417406","","","","","","",""
8.0,0.09215019643306732,0.0013034578632125668,"train",9480.0,"2021-11-30 23:42:42.181524","","","","","","",""
8.0,0.07252674549818039,0.0013070564883185534,"train",9500.0,"2021-11-30 23:42:45.954269","","","","","","",""
8.0,0.052957016974687576,0.001310651050627223,"train",9520.0,"2021-11-30 23:42:50.083361","","","","","","",""
8.0,0.044193729758262634,0.001314241495453598,"train",9540.0,"2021-11-30 23:42:53.858862","","","","","","",""
8.0,0.0681101605296135,0.00131782776817534,"train",9560.0,"2021-11-30 23:42:57.642507","","","","","","",""
8.0,0.06445760279893875,0.0013214098142335837,"train",9580.0,"2021-11-30 23:43:01.780084","","","","","","",""
8.0,0.05753736197948456,0.001324987579133764,"train",9600.0,"2021-11-30 23:43:05.547766","","","","","","",""
8.0,0.043135084211826324,0.0013285610084464463,"train",9620.0,"2021-11-30 23:43:09.303439","","","","","","",""
8.0,0.07715374231338501,0.001332130047808155,"train",9640.0,"2021-11-30 23:43:13.434888","","","","","","",""
8.0,0.06461707502603531,0.001335694642922199,"train",9660.0,"2021-11-30 23:43:17.191931","","","","","","",""
8.0,"","","train",9666.0,"2021-11-30 23:44:59.206888",0.6229062067961871,0.6323880155636434,0.955204466498116,0.6430644166387945,0.5024925581971632,0.5260790845558087,0.3534722606531877
8.0,"","","val",9666.0,"2021-11-30 23:45:26.946775",0.5999072248637365,0.5821157783700999,0.9429025975542266,0.6133583825196907,0.4754261230900714,0.49543166182182874,0.3262791131995733
9.0,0.07762248814105988,0.0013392547395594985,"train",9680.0,"2021-11-30 23:45:33.056443","","","","","","",""
9.0,0.057436153292655945,0.001342810283559412,"train",9700.0,"2021-11-30 23:45:37.402089","","","","","","",""
9.0,0.10515902191400528,0.0013463612208305564,"train",9720.0,"2021-11-30 23:45:41.279091","","","","","","",""
9.0,0.079831063747406,0.0013499074973516321,"train",9740.0,"2021-11-30 23:45:45.097743","","","","","","",""
9.0,0.05224350094795227,0.0013534490591722464,"train",9760.0,"2021-11-30 23:45:49.284126","","","","","","",""
9.0,0.07361940294504166,0.0013569858524137305,"train",9780.0,"2021-11-30 23:45:53.108040","","","","","","",""
9.0,0.053720612078905106,0.001360517823269962,"train",9800.0,"2021-11-30 23:45:56.922528","","","","","","",""
9.0,0.06263463199138641,0.0013640449180081834,"train",9820.0,"2021-11-30 23:46:01.096015","","","","","","",""
9.0,0.07316454499959946,0.0013675670829698173,"train",9840.0,"2021-11-30 23:46:04.961040","","","","","","",""
9.0,0.09139160066843033,0.0013710842645712853,"train",9860.0,"2021-11-30 23:46:08.811407","","","","","","",""
9.0,0.048746928572654724,0.0013745964093048219,"train",9880.0,"2021-11-30 23:46:13.019064","","","","","","",""
9.0,0.07900096476078033,0.0013781034637392886,"train",9900.0,"2021-11-30 23:46:16.932404","","","","","","",""
9.0,0.09279660135507584,0.0013816053745209864,"train",9920.0,"2021-11-30 23:46:20.712628","","","","","","",""
9.0,0.07102198153734207,0.0013851020883744697,"train",9940.0,"2021-11-30 23:46:24.877815","","","","","","",""
9.0,0.04999034106731415,0.001388593552103353,"train",9960.0,"2021-11-30 23:46:28.658342","","","","","","",""
9.0,0.07480263710021973,0.0013920797125911233,"train",9980.0,"2021-11-30 23:46:32.445476","","","","","","",""
9.0,0.060570720583200455,0.001395560516801947,"train",10000.0,"2021-11-30 23:46:36.619843","","","","","","",""
9.0,0.07264924049377441,0.0013990359117814774,"train",10020.0,"2021-11-30 23:46:40.401380","","","","","","",""
9.0,0.07136363536119461,0.0014025058446576583,"train",10040.0,"2021-11-30 23:46:44.262626","","","","","","",""
9.0,0.09855321794748306,0.0014059702626415317,"train",10060.0,"2021-11-30 23:46:48.557491","","","","","","",""
9.0,0.05046818032860756,0.0014094291130280377,"train",10080.0,"2021-11-30 23:46:52.473235","","","","","","",""
9.0,0.06557483971118927,0.0014128823431968183,"train",10100.0,"2021-11-30 23:46:56.311249","","","","","","",""
9.0,0.0835709199309349,0.001416329900613017,"train",10120.0,"2021-11-30 23:47:00.503136","","","","","","",""
9.0,0.08213158696889877,0.0014197717328280782,"train",10140.0,"2021-11-30 23:47:04.350245","","","","","","",""
9.0,0.06192455440759659,0.0014232077874805457,"train",10160.0,"2021-11-30 23:47:08.187834","","","","","","",""
9.0,0.04556797444820404,0.0014266380122968589,"train",10180.0,"2021-11-30 23:47:12.383924","","","","","","",""
9.0,0.06294666975736618,0.0014300623550921468,"train",10200.0,"2021-11-30 23:47:16.117955","","","","","","",""
9.0,0.06094000115990639,0.0014334807637710243,"train",10220.0,"2021-11-30 23:47:19.861444","","","","","","",""
9.0,0.06924225389957428,0.0014368931863283831,"train",10240.0,"2021-11-30 23:47:23.963199","","","","","","",""
9.0,0.08089331537485123,0.0014402995708501826,"train",10260.0,"2021-11-30 23:47:27.710326","","","","","","",""
9.0,0.09741272032260895,0.0014436998655142422,"train",10280.0,"2021-11-30 23:47:31.588524","","","","","","",""
9.0,0.08765214681625366,0.0014470940185910258,"train",10300.0,"2021-11-30 23:47:35.802571","","","","","","",""
9.0,0.09386590868234634,0.001450481978444431,"train",10320.0,"2021-11-30 23:47:39.611748","","","","","","",""
9.0,0.05319024249911308,0.0014538636935325763,"train",10340.0,"2021-11-30 23:47:43.424208","","","","","","",""
9.0,0.06294448673725128,0.0014572391124085817,"train",10360.0,"2021-11-30 23:47:47.661582","","","","","","",""
9.0,0.07761209458112717,0.0014606081837213525,"train",10380.0,"2021-11-30 23:47:51.496467","","","","","","",""
9.0,0.06832215189933777,0.0014639708562163639,"train",10400.0,"2021-11-30 23:47:55.333733","","","","","","",""
9.0,0.06339219957590103,0.001467327078736435,"train",10420.0,"2021-11-30 23:47:59.158312","","","","","","",""
9.0,0.07948078215122223,0.0014706768002225108,"train",10440.0,"2021-11-30 23:48:03.341059","","","","","","",""
9.0,0.08922554552555084,0.0014740199697144392,"train",10460.0,"2021-11-30 23:48:07.152885","","","","","","",""
9.0,0.05615467205643654,0.0014773565363517442,"train",10480.0,"2021-11-30 23:48:10.982771","","","","","","",""
9.0,0.05470004305243492,0.0014806864493744007,"train",10500.0,"2021-11-30 23:48:15.153082","","","","","","",""
9.0,0.06621602922677994,0.0014840096581236072,"train",10520.0,"2021-11-30 23:48:18.950805","","","","","","",""
9.0,0.08208394050598145,0.001487326112042556,"train",10540.0,"2021-11-30 23:48:22.826541","","","","","","",""
9.0,0.05388791114091873,0.0014906357606772013,"train",10560.0,"2021-11-30 23:48:27.168711","","","","","","",""
9.0,0.05145980790257454,0.0014939385536770291,"train",10580.0,"2021-11-30 23:48:31.024294","","","","","","",""
9.0,0.04309810698032379,0.0014972344407958218,"train",10600.0,"2021-11-30 23:48:34.854348","","","","","","",""
9.0,0.05348743125796318,0.0015005233718924213,"train",10620.0,"2021-11-30 23:48:39.055275","","","","","","",""
9.0,0.06688101589679718,0.0015038052969314946,"train",10640.0,"2021-11-30 23:48:42.811133","","","","","","",""
9.0,0.04397866502404213,0.0015070801659842939,"train",10660.0,"2021-11-30 23:48:46.587508","","","","","","",""
9.0,0.05027380585670471,0.001510347929229414,"train",10680.0,"2021-11-30 23:48:50.711447","","","","","","",""
9.0,0.05898531898856163,0.0015136085369535537,"train",10700.0,"2021-11-30 23:48:54.491697","","","","","","",""
9.0,0.07208947837352753,0.0015168619395522708,"train",10720.0,"2021-11-30 23:48:58.264204","","","","","","",""
9.0,0.038274142891168594,0.0015201080875307349,"train",10740.0,"2021-11-30 23:49:02.348291","","","","","","",""
9.0,"","","train",10740.0,"2021-11-30 23:50:44.772421",0.612675543913265,0.6514069254533149,0.9573390600469479,0.6049987542759679,0.4830934231557586,0.5016799072603649,0.33914913249336476
9.0,"","","val",10740.0,"2021-11-30 23:51:17.731848",0.5874985503884959,0.5971528671742007,0.9450824720210946,0.574548864655716,0.4518585101929569,0.465825935058156,0.3069423230882553
10.0,0.0442403219640255,0.0015233469315044834,"train",10760.0,"2021-11-30 23:51:25.078903","","","","","","",""
10.0,0.08682394027709961,0.0015265784222001709,"train",10780.0,"2021-11-30 23:51:28.985437","","","","","","",""
10.0,0.04992464929819107,0.0015298025104563185,"train",10800.0,"2021-11-30 23:51:33.349800","","","","","","",""
10.0,0.05223417654633522,0.001533019147224064,"train",10820.0,"2021-11-30 23:51:37.277646","","","","","","",""
10.0,0.05929625406861305,0.0015362282835679054,"train",10840.0,"2021-11-30 23:51:41.207143","","","","","","",""
10.0,0.05015023425221443,0.0015394298706664469,"train",10860.0,"2021-11-30 23:51:45.544472","","","","","","",""
10.0,0.07171540707349777,0.001542623859813141,"train",10880.0,"2021-11-30 23:51:49.451723","","","","","","",""
10.0,0.07258623838424683,0.00154581020241703,"train",10900.0,"2021-11-30 23:51:53.431757","","","","","","",""
10.0,0.04582452401518822,0.0015489888500034858,"train",10920.0,"2021-11-30 23:51:57.771351","","","","","","",""
10.0,0.05142153799533844,0.0015521597542149444,"train",10940.0,"2021-11-30 23:52:01.638850","","","","","","",""
10.0,0.046986617147922516,0.0015553228668116455,"train",10960.0,"2021-11-30 23:52:05.489159","","","","","","",""
10.0,0.04694078117609024,0.0015584781396723642,"train",10980.0,"2021-11-30 23:52:09.682835","","","","","","",""
10.0,0.08444952964782715,0.0015616255247951432,"train",11000.0,"2021-11-30 23:52:13.577690","","","","","","",""
10.0,0.07798223942518234,0.0015647649742980233,"train",11020.0,"2021-11-30 23:52:17.485303","","","","","","",""
10.0,0.07010097801685333,0.0015678964404197727,"train",11040.0,"2021-11-30 23:52:21.805488","","","","","","",""
10.0,0.06275778263807297,0.0015710198755206112,"train",11060.0,"2021-11-30 23:52:25.708328","","","","","","",""
10.0,0.04506221413612366,0.0015741352320829379,"train",11080.0,"2021-11-30 23:52:29.533827","","","","","","",""
10.0,0.05786928907036781,0.0015772424627120527,"train",11100.0,"2021-11-30 23:52:33.662639","","","","","","",""
10.0,0.05996609106659889,0.0015803415201368761,"train",11120.0,"2021-11-30 23:52:37.497339","","","","","","",""
10.0,0.05604984238743782,0.001583432357210671,"train",11140.0,"2021-11-30 23:52:41.375221","","","","","","",""
10.0,0.06286875903606415,0.001586514926911758,"train",11160.0,"2021-11-30 23:52:45.536361","","","","","","",""
10.0,0.09439331293106079,0.0015895891823442313,"train",11180.0,"2021-11-30 23:52:49.429756","","","","","","",""
10.0,0.06685315072536469,0.0015926550767386717,"train",11200.0,"2021-11-30 23:52:53.233650","","","","","","",""
10.0,0.06467636674642563,0.0015957125634528599,"train",11220.0,"2021-11-30 23:52:57.386775","","","","","","",""
10.0,0.07276298850774765,0.0015987615959724836,"train",11240.0,"2021-11-30 23:53:01.200211","","","","","","",""
10.0,0.07279402017593384,0.0016018021279118457,"train",11260.0,"2021-11-30 23:53:05.176657","","","","","","",""
10.0,0.08858020603656769,0.0016048341130145728,"train",11280.0,"2021-11-30 23:53:09.492994","","","","","","",""
10.0,0.054768867790699005,0.0016078575051543145,"train",11300.0,"2021-11-30 23:53:13.361379","","","","","","",""
10.0,0.0758601576089859,0.0016108722583354478,"train",11320.0,"2021-11-30 23:53:17.199647","","","","","","",""
10.0,0.06567826122045517,0.0016138783266937777,"train",11340.0,"2021-11-30 23:53:21.444440","","","","","","",""
10.0,0.09623482078313828,0.0016168756644972322,"train",11360.0,"2021-11-30 23:53:25.308497","","","","","","",""
10.0,0.1054532453417778,0.0016198642261465587,"train",11380.0,"2021-11-30 23:53:29.139957","","","","","","",""
10.0,0.0626746416091919,0.0016228439661760208,"train",11400.0,"2021-11-30 23:53:33.356742","","","","","","",""
10.0,0.055160243064165115,0.001625814839254086,"train",11420.0,"2021-11-30 23:53:37.206160","","","","","","",""
10.0,0.08406934887170792,0.0016287768001841164,"train",11440.0,"2021-11-30 23:53:41.055685","","","","","","",""
10.0,0.047224678099155426,0.001631729803905059,"train",11460.0,"2021-11-30 23:53:45.368121","","","","","","",""
10.0,0.049355484545230865,0.0016346738054921273,"train",11480.0,"2021-11-30 23:53:49.279086","","","","","","",""
10.0,0.10265026241540909,0.001637608760157486,"train",11500.0,"2021-11-30 23:53:53.130523","","","","","","",""
10.0,0.04655368998646736,0.0016405346232509356,"train",11520.0,"2021-11-30 23:53:57.438962","","","","","","",""
10.0,0.07563108205795288,0.0016434513502605861,"train",11540.0,"2021-11-30 23:54:01.371143","","","","","","",""
10.0,0.06997255235910416,0.0016463588968135383,"train",11560.0,"2021-11-30 23:54:05.207472","","","","","","",""
10.0,0.07652579247951508,0.0016492572186765577,"train",11580.0,"2021-11-30 23:54:09.348371","","","","","","",""
10.0,0.05000096932053566,0.001652146271756747,"train",11600.0,"2021-11-30 23:54:13.192866","","","","","","",""
10.0,0.07132282853126526,0.0016550260121022172,"train",11620.0,"2021-11-30 23:54:16.975898","","","","","","",""
10.0,0.059003978967666626,0.0016578963959027562,"train",11640.0,"2021-11-30 23:54:20.821628","","","","","","",""
10.0,0.0673571452498436,0.001660757379490496,"train",11660.0,"2021-11-30 23:54:25.031764","","","","","","",""
10.0,0.0771380066871643,0.0016636089193405761,"train",11680.0,"2021-11-30 23:54:28.825022","","","","","","",""
10.0,0.04058836027979851,0.0016664509720718049,"train",11700.0,"2021-11-30 23:54:32.653368","","","","","","",""
10.0,0.07042970508337021,0.0016692834944473224,"train",11720.0,"2021-11-30 23:54:36.978972","","","","","","",""
10.0,0.05164928361773491,0.0016721064433752554,"train",11740.0,"2021-11-30 23:54:40.853273","","","","","","",""
10.0,0.05603931099176407,0.0016749197759093734,"train",11760.0,"2021-11-30 23:54:44.619243","","","","","","",""
10.0,0.05326395481824875,0.0016777234492497436,"train",11780.0,"2021-11-30 23:54:48.883008","","","","","","",""
10.0,0.051535796374082565,0.0016805174207433808,"train",11800.0,"2021-11-30 23:54:52.868286","","","","","","",""
10.0,"","","train",11814.0,"2021-11-30 23:56:37.298113",0.6382303718256567,0.6628509018563923,0.9621160102792577,0.643394381524287,0.5214201825619597,0.5417094791529281,0.36809813741614517
10.0,"","","val",11814.0,"2021-11-30 23:57:08.760312",0.6094166763307434,0.6032729929029952,0.9490079923977747,0.6088590512909977,0.4873848617010271,0.505402420456172,0.3318098989133889
11.0,0.062099240720272064,0.0016833016478848956,"train",11820.0,"2021-11-30 23:57:17.212209","","","","","","",""
11.0,0.08754954487085342,0.0016860760883171426,"train",11840.0,"2021-11-30 23:57:21.427641","","","","","","",""
11.0,0.04008487984538078,0.001688840699831864,"train",11860.0,"2021-11-30 23:57:25.249993","","","","","","",""
11.0,0.06464245170354843,0.0016915954403703313,"train",11880.0,"2021-11-30 23:57:29.085437","","","","","","",""
11.0,0.04232707619667053,0.0016943402680239862,"train",11900.0,"2021-11-30 23:57:33.282550","","","","","","",""
11.0,0.0727805495262146,0.0016970751410350774,"train",11920.0,"2021-11-30 23:57:37.117153","","","","","","",""
11.0,0.041380949318408966,0.001699800017797296,"train",11940.0,"2021-11-30 23:57:40.944324","","","","","","",""
11.0,0.08262413740158081,0.0017025148568564086,"train",11960.0,"2021-11-30 23:57:45.154052","","","","","","",""
11.0,0.09000884741544724,0.001705219616910888,"train",11980.0,"2021-11-30 23:57:48.917697","","","","","","",""
11.0,0.0643044114112854,0.001707914256812541,"train",12000.0,"2021-11-30 23:57:52.709323","","","","","","",""
11.0,0.07432201504707336,0.0017105987355671352,"train",12020.0,"2021-11-30 23:57:57.148417","","","","","","",""
11.0,0.047945208847522736,0.0017132730123350227,"train",12040.0,"2021-11-30 23:58:01.077175","","","","","","",""
11.0,0.05669088289141655,0.00171593704643176,"train",12060.0,"2021-11-30 23:58:04.908989","","","","","","",""
11.0,0.08045092225074768,0.0017185907973287285,"train",12080.0,"2021-11-30 23:58:09.097442","","","","","","",""
11.0,0.05272803083062172,0.0017212342246537506,"train",12100.0,"2021-11-30 23:58:12.963193","","","","","","",""
11.0,0.06092791259288788,0.0017238672881917032,"train",12120.0,"2021-11-30 23:58:16.761659","","","","","","",""
11.0,0.09318964928388596,0.001726489947885131,"train",12140.0,"2021-11-30 23:58:20.837119","","","","","","",""
11.0,0.05427445098757744,0.0017291021638348543,"train",12160.0,"2021-11-30 23:58:24.509870","","","","","","",""
11.0,0.09093450754880905,0.0017317038963005765,"train",12180.0,"2021-11-30 23:58:28.356611","","","","","","",""
11.0,0.04446803033351898,0.00173429510570149,"train",12200.0,"2021-11-30 23:58:32.634279","","","","","","",""
11.0,0.039390042424201965,0.0017368757526168759,"train",12220.0,"2021-11-30 23:58:36.555914","","","","","","",""
11.0,0.04597921669483185,0.0017394457977867057,"train",12240.0,"2021-11-30 23:58:40.408265","","","","","","",""
11.0,0.09257298707962036,0.0017420052021122378,"train",12260.0,"2021-11-30 23:58:44.572660","","","","","","",""
11.0,0.04821166768670082,0.0017445539266566128,"train",12280.0,"2021-11-30 23:58:48.282050","","","","","","",""
11.0,0.08477757126092911,0.001747091932645445,"train",12300.0,"2021-11-30 23:58:52.040189","","","","","","",""
11.0,0.06484099477529526,0.0017496191814674125,"train",12320.0,"2021-11-30 23:58:56.121780","","","","","","",""
11.0,0.0810663029551506,0.001752135634674846,"train",12340.0,"2021-11-30 23:58:59.941789","","","","","","",""
11.0,0.08396036922931671,0.0017546412539843118,"train",12360.0,"2021-11-30 23:59:03.803656","","","","","","",""
11.0,0.1051306426525116,0.001757136001277194,"train",12380.0,"2021-11-30 23:59:08.110138","","","","","","",""
11.0,0.0744081512093544,0.001759619838600278,"train",12400.0,"2021-11-30 23:59:11.833347","","","","","","",""
11.0,0.0895000547170639,0.0017620927281663229,"train",12420.0,"2021-11-30 23:59:15.562189","","","","","","",""
11.0,0.08088140934705734,0.0017645546323546398,"train",12440.0,"2021-11-30 23:59:19.766594","","","","","","",""
11.0,0.04067432880401611,0.0017670055137116636,"train",12460.0,"2021-11-30 23:59:23.537678","","","","","","",""
11.0,0.06088912859559059,0.0017694453349515209,"train",12480.0,"2021-11-30 23:59:27.292140","","","","","","",""
11.0,0.045415788888931274,0.0017718740589566,"train",12500.0,"2021-11-30 23:59:31.439520","","","","","","",""
11.0,0.05684632807970047,0.0017742916487781134,"train",12520.0,"2021-11-30 23:59:35.209741","","","","","","",""
11.0,0.06761947274208069,0.0017766980676366608,"train",12540.0,"2021-11-30 23:59:38.977063","","","","","","",""
11.0,0.059110451489686966,0.001779093278922789,"train",12560.0,"2021-11-30 23:59:43.131351","","","","","","",""
11.0,0.06866499036550522,0.001781477246197548,"train",12580.0,"2021-11-30 23:59:46.930736","","","","","","",""
11.0,0.09256424009799957,0.0017838499331930462,"train",12600.0,"2021-11-30 23:59:50.746979","","","","","","",""
11.0,0.06536858528852463,0.001786211303813001,"train",12620.0,"2021-11-30 23:59:54.928252","","","","","","",""
11.0,0.07266942411661148,0.0017885613221332894,"train",12640.0,"2021-11-30 23:59:58.722550","","","","","","",""
11.0,0.06463827937841415,0.0017908999524024931,"train",12660.0,"2021-12-01 00:00:02.470296","","","","","","",""
11.0,0.05635003000497818,0.0017932271590424438,"train",12680.0,"2021-12-01 00:00:06.622073","","","","","","",""
11.0,0.06679141521453857,0.0017955429066487635,"train",12700.0,"2021-12-01 00:00:10.530655","","","","","","",""
11.0,0.058900658041238785,0.0017978471599914025,"train",12720.0,"2021-12-01 00:00:14.369248","","","","","","",""
11.0,0.07213761657476425,0.0018001398840151778,"train",12740.0,"2021-12-01 00:00:18.464223","","","","","","",""
11.0,0.06921583414077759,0.0018024210438403031,"train",12760.0,"2021-12-01 00:00:22.202890","","","","","","",""
11.0,0.06458835303783417,0.0018046906047629228,"train",12780.0,"2021-12-01 00:00:25.943546","","","","","","",""
11.0,0.07358374446630478,0.0018069485322556372,"train",12800.0,"2021-12-01 00:00:30.094524","","","","","","",""
11.0,0.07972705364227295,0.001809194791968029,"train",12820.0,"2021-12-01 00:00:33.935195","","","","","","",""
11.0,0.06032625585794449,0.0018114293497271863,"train",12840.0,"2021-12-01 00:00:37.773890","","","","","","",""
11.0,0.06332289427518845,0.0018136521715382218,"train",12860.0,"2021-12-01 00:00:41.993145","","","","","","",""
11.0,0.07074280828237534,0.0018158632235847892,"train",12880.0,"2021-12-01 00:00:45.868523","","","","","","",""
11.0,"","","train",12888.0,"2021-12-01 00:02:28.810804",0.6318562177108346,0.6738069116955525,0.9623112356479618,0.6397510392053415,0.5345248123137031,0.5593653815537555,0.3737965650179671
11.0,"","","val",12888.0,"2021-12-01 00:02:56.951448",0.5981676910587962,0.6085942574759515,0.9499122656247281,0.5994760611321821,0.4933178484865128,0.513701169038546,0.3301911112948843
12.0,0.051427751779556274,0.0018180624722295999,"train",12900.0,"2021-12-01 00:03:06.337006","","","","","","",""
12.0,0.07265888154506683,0.001820249884014933,"train",12920.0,"2021-12-01 00:03:10.140132","","","","","","",""
12.0,0.03987171873450279,0.001822425425663144,"train",12940.0,"2021-12-01 00:03:14.422263","","","","","","",""
12.0,0.04617568850517273,0.0018245890640771725,"train",12960.0,"2021-12-01 00:03:18.222039","","","","","","",""
12.0,0.06706293672323227,0.0018267407663410452,"train",12980.0,"2021-12-01 00:03:22.018558","","","","","","",""
12.0,0.051119085401296616,0.0018288804997203755,"train",13000.0,"2021-12-01 00:03:26.197281","","","","","","",""
12.0,0.058350611478090286,0.0018310082316628634,"train",13020.0,"2021-12-01 00:03:30.095488","","","","","","",""
12.0,0.07842504233121872,0.0018331239297987893,"train",13040.0,"2021-12-01 00:03:33.948411","","","","","","",""
12.0,0.11562535911798477,0.0018352275619415066,"train",13060.0,"2021-12-01 00:03:38.096634","","","","","","",""
12.0,0.08201923966407776,0.0018373190960879326,"train",13080.0,"2021-12-01 00:03:41.918234","","","","","","",""
12.0,0.04947508126497269,0.0018393985004190336,"train",13100.0,"2021-12-01 00:03:45.626458","","","","","","",""
12.0,0.05333608761429787,0.00184146574330031,"train",13120.0,"2021-12-01 00:03:49.948202","","","","","","",""
12.0,0.0876685380935669,0.001843520793282278,"train",13140.0,"2021-12-01 00:03:53.726072","","","","","","",""
12.0,0.08545012027025223,0.0018455636191009464,"train",13160.0,"2021-12-01 00:03:57.518785","","","","","","",""
12.0,0.07270573079586029,0.001847594189678294,"train",13180.0,"2021-12-01 00:04:01.906780","","","","","","",""
12.0,0.052673809230327606,0.0018496124741227415,"train",13200.0,"2021-12-01 00:04:05.761009","","","","","","",""
12.0,0.08871299773454666,0.001851618441729622,"train",13220.0,"2021-12-01 00:04:09.522746","","","","","","",""
12.0,0.055925287306308746,0.0018536120619816467,"train",13240.0,"2021-12-01 00:04:13.867595","","","","","","",""
12.0,0.060380324721336365,0.0018555933045493712,"train",13260.0,"2021-12-01 00:04:17.758266","","","","","","",""
12.0,0.055883098393678665,0.0018575621392916554,"train",13280.0,"2021-12-01 00:04:21.657895","","","","","","",""
12.0,0.06961535662412643,0.0018595185362561225,"train",13300.0,"2021-12-01 00:04:25.967797","","","","","","",""
12.0,0.05375346168875694,0.0018614624656796155,"train",13320.0,"2021-12-01 00:04:29.848126","","","","","","",""
12.0,0.051187094300985336,0.0018633938979886484,"train",13340.0,"2021-12-01 00:04:33.811162","","","","","","",""
12.0,0.045220598578453064,0.0018653128037998568,"train",13360.0,"2021-12-01 00:04:38.096665","","","","","","",""
12.0,0.038465969264507294,0.0018672191539204459,"train",13380.0,"2021-12-01 00:04:41.912591","","","","","","",""
12.0,0.0518544502556324,0.0018691129193486335,"train",13400.0,"2021-12-01 00:04:45.705132","","","","","","",""
12.0,0.052347369492053986,0.0018709940712740908,"train",13420.0,"2021-12-01 00:04:49.865216","","","","","","",""
12.0,0.08131030946969986,0.0018728625810783823,"train",13440.0,"2021-12-01 00:04:53.685739","","","","","","",""
12.0,0.05653565749526024,0.0018747184203353996,"train",13460.0,"2021-12-01 00:04:57.551808","","","","","","",""
12.0,0.07917948067188263,0.0018765615608117947,"train",13480.0,"2021-12-01 00:05:01.841304","","","","","","",""
12.0,0.056129567325115204,0.0018783919744674096,"train",13500.0,"2021-12-01 00:05:05.727191","","","","","","",""
12.0,0.05927014723420143,0.0018802096334557027,"train",13520.0,"2021-12-01 00:05:09.592765","","","","","","",""
12.0,0.09485313296318054,0.0018820145101241712,"train",13540.0,"2021-12-01 00:05:13.995512","","","","","","",""
12.0,0.069424107670784,0.0018838065770147745,"train",13560.0,"2021-12-01 00:05:17.868189","","","","","","",""
12.0,0.05230636149644852,0.0018855858068643496,"train",13580.0,"2021-12-01 00:05:21.676473","","","","","","",""
12.0,0.055043645203113556,0.001887352172605026,"train",13600.0,"2021-12-01 00:05:25.910995","","","","","","",""
12.0,0.04912225157022476,0.0018891056473646398,"train",13620.0,"2021-12-01 00:05:29.736628","","","","","","",""
12.0,0.09493424743413925,0.0018908462044671395,"train",13640.0,"2021-12-01 00:05:33.560612","","","","","","",""
12.0,0.04316898062825203,0.001892573817432993,"train",13660.0,"2021-12-01 00:05:37.827923","","","","","","",""
12.0,0.05540117248892784,0.0018942884599795914,"train",13680.0,"2021-12-01 00:05:41.659927","","","","","","",""
12.0,0.07016609609127045,0.001895990106021648,"train",13700.0,"2021-12-01 00:05:45.488315","","","","","","",""
12.0,0.07697544246912003,0.0018976787296715943,"train",13720.0,"2021-12-01 00:05:49.720440","","","","","","",""
12.0,0.05400301516056061,0.0018993543052399757,"train",13740.0,"2021-12-01 00:05:53.579736","","","","","","",""
12.0,0.048056527972221375,0.0019010168072358413,"train",13760.0,"2021-12-01 00:05:57.426746","","","","","","",""
12.0,0.06042638421058655,0.0019026662103671305,"train",13780.0,"2021-12-01 00:06:01.720364","","","","","","",""
12.0,0.06172359362244606,0.0019043024895410605,"train",13800.0,"2021-12-01 00:06:05.628615","","","","","","",""
12.0,0.07202936708927155,0.001905925619864506,"train",13820.0,"2021-12-01 00:06:09.423906","","","","","","",""
12.0,0.05724451690912247,0.001907535576644378,"train",13840.0,"2021-12-01 00:06:13.591206","","","","","","",""
12.0,0.045696087181568146,0.0019091323353880008,"train",13860.0,"2021-12-01 00:06:17.385715","","","","","","",""
12.0,0.08662034571170807,0.0019107158718034828,"train",13880.0,"2021-12-01 00:06:21.208595","","","","","","",""
12.0,0.07692940533161163,0.001912286161800088,"train",13900.0,"2021-12-01 00:06:25.371931","","","","","","",""
12.0,0.061750058084726334,0.0019138431814886008,"train",13920.0,"2021-12-01 00:06:29.128889","","","","","","",""
12.0,0.03432648628950119,0.0019153869071816896,"train",13940.0,"2021-12-01 00:06:32.852271","","","","","","",""
12.0,0.0801604762673378,0.0019169173153942693,"train",13960.0,"2021-12-01 00:06:36.947900","","","","","","",""
12.0,"","","train",13962.0,"2021-12-01 00:08:19.097723",0.6434402968784109,0.6968418683399429,0.9653517710334766,0.6611042081976984,0.5446365242052226,0.5775035357773949,0.383894476047602
12.0,"","","val",13962.0,"2021-12-01 00:08:46.700710",0.6069233445436623,0.6202900368475166,0.9494772063490221,0.618208850105918,0.4942752217817298,0.5197165224964695,0.33585074087092176
13.0,0.055031709372997284,0.0019184343828438557,"train",13980.0,"2021-12-01 00:09:08.608518","","","","","","",""
13.0,0.058163177222013474,0.0019199380864509208,"train",14000.0,"2021-12-01 00:09:12.414873","","","","","","",""
13.0,0.04301547631621361,0.0019214284033392457,"train",14020.0,"2021-12-01 00:09:16.604305","","","","","","",""
13.0,0.05700428783893585,0.0019229053108362649,"train",14040.0,"2021-12-01 00:09:20.381092","","","","","","",""
13.0,0.08706621080636978,0.0019243687864734145,"train",14060.0,"2021-12-01 00:09:24.159417","","","","","","",""
13.0,0.08681978285312653,0.0019258188079864732,"train",14080.0,"2021-12-01 00:09:27.914822","","","","","","",""
13.0,0.0569332130253315,0.0019272553533158999,"train",14100.0,"2021-12-01 00:09:32.007015","","","","","","",""
13.0,0.05264897644519806,0.0019286784006071697,"train",14120.0,"2021-12-01 00:09:35.724595","","","","","","",""
13.0,0.07207042723894119,0.0019300879282111083,"train",14140.0,"2021-12-01 00:09:39.443732","","","","","","",""
13.0,0.07864541560411453,0.0019314839146842185,"train",14160.0,"2021-12-01 00:09:43.705253","","","","","","",""
13.0,0.04907991364598274,0.0019328663387890076,"train",14180.0,"2021-12-01 00:09:47.537474","","","","","","",""
13.0,0.0400671660900116,0.0019342351794943119,"train",14200.0,"2021-12-01 00:09:51.396338","","","","","","",""
13.0,0.06656001508235931,0.0019355904159756138,"train",14220.0,"2021-12-01 00:09:55.500885","","","","","","",""
13.0,0.07061024755239487,0.0019369320276153613,"train",14240.0,"2021-12-01 00:09:59.222540","","","","","","",""
13.0,0.08640909194946289,0.00193825999400328,"train",14260.0,"2021-12-01 00:10:02.922455","","","","","","",""
13.0,0.05022449791431427,0.0019395742949366843,"train",14280.0,"2021-12-01 00:10:07.049406","","","","","","",""
13.0,0.04640837013721466,0.0019408749104207845,"train",14300.0,"2021-12-01 00:10:10.813194","","","","","","",""
13.0,0.10383197665214539,0.0019421618206689913,"train",14320.0,"2021-12-01 00:10:14.653404","","","","","","",""
13.0,0.06460569053888321,0.0019434350061032163,"train",14340.0,"2021-12-01 00:10:18.795669","","","","","","",""
13.0,0.07344898581504822,0.0019446944473541703,"train",14360.0,"2021-12-01 00:10:22.595618","","","","","","",""
13.0,0.07446897029876709,0.0019459401252616573,"train",14380.0,"2021-12-01 00:10:26.423929","","","","","","",""
13.0,0.08163454383611679,0.001947172020874868,"train",14400.0,"2021-12-01 00:10:30.555020","","","","","","",""
13.0,0.045245639979839325,0.0019483901154526647,"train",14420.0,"2021-12-01 00:10:34.302639","","","","","","",""
13.0,0.07896839827299118,0.0019495943904638694,"train",14440.0,"2021-12-01 00:10:38.012378","","","","","","",""
13.0,0.04585600644350052,0.0019507848275875444,"train",14460.0,"2021-12-01 00:10:42.091352","","","","","","",""
13.0,0.049497008323669434,0.0019519614087132712,"train",14480.0,"2021-12-01 00:10:45.820287","","","","","","",""
13.0,0.05328727886080742,0.0019531241159414263,"train",14500.0,"2021-12-01 00:10:49.527607","","","","","","",""
13.0,0.08227797597646713,0.001954272931583453,"train",14520.0,"2021-12-01 00:10:53.665714","","","","","","",""
13.0,0.08195716142654419,0.0019554078381621306,"train",14540.0,"2021-12-01 00:10:57.528059","","","","","","",""
13.0,0.04915348440408707,0.0019565288184118417,"train",14560.0,"2021-12-01 00:11:01.289014","","","","","","",""
13.0,0.04613373428583145,0.0019576358552788314,"train",14580.0,"2021-12-01 00:11:05.266877","","","","","","",""
13.0,0.06217718496918678,0.0019587289319214713,"train",14600.0,"2021-12-01 00:11:08.812444","","","","","","",""
13.0,0.09353823214769363,0.0019598080317105113,"train",14620.0,"2021-12-01 00:11:12.372719","","","","","","",""
13.0,0.05138269439339638,0.001960873138229337,"train",14640.0,"2021-12-01 00:11:16.435053","","","","","","",""
13.0,0.05669400468468666,0.0019619242352742153,"train",14660.0,"2021-12-01 00:11:20.181433","","","","","","",""
13.0,0.05151607468724251,0.001962961306854543,"train",14680.0,"2021-12-01 00:11:23.959762","","","","","","",""
13.0,0.0701240673661232,0.0019639843371930905,"train",14700.0,"2021-12-01 00:11:28.130986","","","","","","",""
13.0,0.06821596622467041,0.001964993310726241,"train",14720.0,"2021-12-01 00:11:31.903145","","","","","","",""
13.0,0.04710565507411957,0.0019659882121042262,"train",14740.0,"2021-12-01 00:11:35.644652","","","","","","",""
13.0,0.0533878318965435,0.001966969026191363,"train",14760.0,"2021-12-01 00:11:39.777303","","","","","","",""
13.0,0.08135297149419785,0.0019679357380662805,"train",14780.0,"2021-12-01 00:11:43.571095","","","","","","",""
13.0,0.07071203738451004,0.001968888333022148,"train",14800.0,"2021-12-01 00:11:47.381396","","","","","","",""
13.0,0.08141551911830902,0.0019698267965669,"train",14820.0,"2021-12-01 00:11:51.648161","","","","","","",""
13.0,0.044216908514499664,0.0019707511144234557,"train",14840.0,"2021-12-01 00:11:55.565871","","","","","","",""
13.0,0.07050875574350357,0.001971661272529935,"train",14860.0,"2021-12-01 00:11:59.355496","","","","","","",""
13.0,0.04745650291442871,0.001972557257039875,"train",14880.0,"2021-12-01 00:12:03.538123","","","","","","",""
13.0,0.03711448982357979,0.0019734390543224385,"train",14900.0,"2021-12-01 00:12:07.353977","","","","","","",""
13.0,0.0720248594880104,0.001974306650962622,"train",14920.0,"2021-12-01 00:12:11.144824","","","","","","",""
13.0,0.04241760075092316,0.0019751600337614608,"train",14940.0,"2021-12-01 00:12:15.243608","","","","","","",""
13.0,0.05877292901277542,0.0019759991897362284,"train",14960.0,"2021-12-01 00:12:18.995756","","","","","","",""
13.0,0.06634975969791412,0.0019768241061206343,"train",14980.0,"2021-12-01 00:12:22.725749","","","","","","",""
13.0,0.05063207447528839,0.0019776347703650186,"train",15000.0,"2021-12-01 00:12:26.888619","","","","","","",""
13.0,0.04689729958772659,0.001978431170136543,"train",15020.0,"2021-12-01 00:12:30.666355","","","","","","",""
13.0,"","","train",15036.0,"2021-12-01 00:14:18.484776",0.6703921996652842,0.7079104068515186,0.9692600785275665,0.6979287017434681,0.5905003619413847,0.61685776280333,0.4251423184337798
13.0,"","","val",15036.0,"2021-12-01 00:14:46.763113",0.6262901542386641,0.6256475027820705,0.9542422359455041,0.6460519271283179,0.5323168564116806,0.5540579991783564,0.3619135734876004
14.0,0.036381907761096954,0.0019792132933193784,"train",15040.0,"2021-12-01 00:14:50.923966","","","","","","",""
14.0,0.06371115893125534,0.001979981128014888,"train",15060.0,"2021-12-01 00:14:55.333321","","","","","","",""
14.0,0.08191314339637756,0.001980734662541811,"train",15080.0,"2021-12-01 00:14:59.164477","","","","","","",""
14.0,0.0478123277425766,0.0019814738854364374,"train",15100.0,"2021-12-01 00:15:02.993625","","","","","","",""
14.0,0.047326695173978806,0.0019821987854527832,"train",15120.0,"2021-12-01 00:15:07.060487","","","","","","",""
14.0,0.06273926794528961,0.0019829093515627634,"train",15140.0,"2021-12-01 00:15:10.783645","","","","","","",""
14.0,0.08814302086830139,0.001983605572956358,"train",15160.0,"2021-12-01 00:15:14.570106","","","","","","",""
14.0,0.05790921300649643,0.001984287439041775,"train",15180.0,"2021-12-01 00:15:18.776884","","","","","","",""
14.0,0.06969946622848511,0.001984954939445616,"train",15200.0,"2021-12-01 00:15:22.554836","","","","","","",""
14.0,0.04905739799141884,0.0019856080640130295,"train",15220.0,"2021-12-01 00:15:26.325963","","","","","","",""
14.0,0.04967410862445831,0.0019862468028078676,"train",15240.0,"2021-12-01 00:15:30.073069","","","","","","",""
14.0,0.05949791520833969,0.001986871146112837,"train",15260.0,"2021-12-01 00:15:34.166082","","","","","","",""
14.0,0.06041194498538971,0.0019874810844296466,"train",15280.0,"2021-12-01 00:15:37.930491","","","","","","",""
14.0,0.03642534837126732,0.0019880766084791517,"train",15300.0,"2021-12-01 00:15:41.703338","","","","","","",""
14.0,0.04487612843513489,0.0019886577092014953,"train",15320.0,"2021-12-01 00:15:45.999581","","","","","","",""
14.0,0.08208488672971725,0.001989224377756247,"train",15340.0,"2021-12-01 00:15:49.870061","","","","","","",""
14.0,0.04700538143515587,0.0019897766055225353,"train",15360.0,"2021-12-01 00:15:53.616636","","","","","","",""
14.0,0.048060208559036255,0.0019903143840991813,"train",15380.0,"2021-12-01 00:15:57.750735","","","","","","",""
14.0,0.0643993467092514,0.0019908377053048246,"train",15400.0,"2021-12-01 00:16:01.501637","","","","","","",""
14.0,0.07297257333993912,0.001991346561178048,"train",15420.0,"2021-12-01 00:16:05.275541","","","","","","",""
14.0,0.057716213166713715,0.0019918409439775003,"train",15440.0,"2021-12-01 00:16:09.372653","","","","","","",""
14.0,0.05099814385175705,0.0019923208461820117,"train",15460.0,"2021-12-01 00:16:13.162220","","","","","","",""
14.0,0.07119429856538773,0.001992786260490709,"train",15480.0,"2021-12-01 00:16:16.940095","","","","","","",""
14.0,0.08780819177627563,0.0019932371798231287,"train",15500.0,"2021-12-01 00:16:21.081856","","","","","","",""
14.0,0.09687508642673492,0.0019936735973193212,"train",15520.0,"2021-12-01 00:16:24.847990","","","","","","",""
14.0,0.05051331967115402,0.001994095506339958,"train",15540.0,"2021-12-01 00:16:28.606991","","","","","","",""
14.0,0.059193357825279236,0.001994502900466431,"train",15560.0,"2021-12-01 00:16:32.739858","","","","","","",""
14.0,0.05361518636345863,0.0019948957735009517,"train",15580.0,"2021-12-01 00:16:36.497383","","","","","","",""
14.0,0.06438813358545303,0.0019952741194666436,"train",15600.0,"2021-12-01 00:16:40.249181","","","","","","",""
14.0,0.0338689424097538,0.0019956379326076354,"train",15620.0,"2021-12-01 00:16:44.366736","","","","","","",""
14.0,0.057623375207185745,0.001995987207389146,"train",15640.0,"2021-12-01 00:16:48.269563","","","","","","",""
14.0,0.10403552651405334,0.0019963219384975706,"train",15660.0,"2021-12-01 00:16:52.101465","","","","","","",""
14.0,0.0483076348900795,0.001996642120840561,"train",15680.0,"2021-12-01 00:16:56.255123","","","","","","",""
14.0,0.03898077830672264,0.001996947749547103,"train",15700.0,"2021-12-01 00:17:00.093144","","","","","","",""
14.0,0.0817684754729271,0.0019972388199675905,"train",15720.0,"2021-12-01 00:17:03.829891","","","","","","",""
14.0,0.0758214220404625,0.001997515327673896,"train",15740.0,"2021-12-01 00:17:07.949945","","","","","","",""
14.0,0.035590119659900665,0.0019977772684594388,"train",15760.0,"2021-12-01 00:17:11.685092","","","","","","",""
14.0,0.06929339468479156,0.0019980246383392475,"train",15780.0,"2021-12-01 00:17:15.444326","","","","","","",""
14.0,0.07417482882738113,0.0019982574335500225,"train",15800.0,"2021-12-01 00:17:19.598813","","","","","","",""
14.0,0.0661301240324974,0.001998475650550192,"train",15820.0,"2021-12-01 00:17:23.373085","","","","","","",""
14.0,0.08411403745412827,0.0019986792860199657,"train",15840.0,"2021-12-01 00:17:27.127540","","","","","","",""
14.0,0.05821904167532921,0.001998868336861386,"train",15860.0,"2021-12-01 00:17:31.236082","","","","","","",""
14.0,0.07227818667888641,0.001999042800198376,"train",15880.0,"2021-12-01 00:17:35.050734","","","","","","",""
14.0,0.0942283645272255,0.00199920267337678,"train",15900.0,"2021-12-01 00:17:38.842693","","","","","","",""
14.0,0.0627916008234024,0.0019993479539644077,"train",15920.0,"2021-12-01 00:17:43.141491","","","","","","",""
14.0,0.10065606981515884,0.0019994786397510697,"train",15940.0,"2021-12-01 00:17:47.028070","","","","","","",""
14.0,0.0722261592745781,0.0019995947287486096,"train",15960.0,"2021-12-01 00:17:50.843941","","","","","","",""
14.0,0.042493000626564026,0.0019996962191909367,"train",15980.0,"2021-12-01 00:17:55.044118","","","","","","",""
14.0,0.059307001531124115,0.0019997831095340513,"train",16000.0,"2021-12-01 00:17:58.894482","","","","","","",""
14.0,0.05710340291261673,0.001999855398456069,"train",16020.0,"2021-12-01 00:18:02.719444","","","","","","",""
14.0,0.09576082229614258,0.00199991308485724,"train",16040.0,"2021-12-01 00:18:06.895943","","","","","","",""
14.0,0.05939025059342384,0.001999956167859967,"train",16060.0,"2021-12-01 00:18:10.733859","","","","","","",""
14.0,0.07055145502090454,0.0019999846468088172,"train",16080.0,"2021-12-01 00:18:14.545487","","","","","","",""
14.0,0.0465848371386528,0.0019999985212705335,"train",16100.0,"2021-12-01 00:18:18.598766","","","","","","",""
14.0,"","","train",16110.0,"2021-12-01 00:20:01.633950",0.670217565305974,0.7179878708166724,0.9701601284360224,0.6967566659076705,0.5925722292362369,0.6195315680123544,0.42943194135665
14.0,"","","val",16110.0,"2021-12-01 00:20:32.787496",0.6246086048938885,0.6341697781674126,0.9536710368346509,0.6433767680783871,0.5360503285647149,0.5592596584849081,0.3675937702257649
15.0,0.08932438492774963,0.0019999995774202316,"train",16120.0,"2021-12-01 00:20:38.824969","","","","","","",""
15.0,0.07747776806354523,0.0019999966438102564,"train",16140.0,"2021-12-01 00:20:42.720320","","","","","","",""
15.0,0.06423407047986984,0.0019999909162942875,"train",16160.0,"2021-12-01 00:20:47.098983","","","","","","",""
15.0,0.06883363425731659,0.001999982394888327,"train",16180.0,"2021-12-01 00:20:51.011167","","","","","","",""
15.0,0.03799521550536156,0.0019999710796161823,"train",16200.0,"2021-12-01 00:20:54.844132","","","","","","",""
15.0,0.08756799250841141,0.0019999569705094686,"train",16220.0,"2021-12-01 00:20:59.056826","","","","","","",""
15.0,0.052312128245830536,0.001999940067607605,"train",16240.0,"2021-12-01 00:21:03.016397","","","","","","",""
15.0,0.07382585853338242,0.001999920370957817,"train",16260.0,"2021-12-01 00:21:07.086796","","","","","","",""
15.0,0.06498849391937256,0.0019998978806151355,"train",16280.0,"2021-12-01 00:21:11.371737","","","","","","",""
15.0,0.04982917383313179,0.0019998725966423976,"train",16300.0,"2021-12-01 00:21:15.535352","","","","","","",""
15.0,0.05794709175825119,0.001999844519110244,"train",16320.0,"2021-12-01 00:21:19.661161","","","","","","",""
15.0,0.048575714230537415,0.001999813648097122,"train",16340.0,"2021-12-01 00:21:23.997747","","","","","","",""
15.0,0.08253442496061325,0.001999779983689282,"train",16360.0,"2021-12-01 00:21:27.953445","","","","","","",""
15.0,0.0918361246585846,0.0019997435259807806,"train",16380.0,"2021-12-01 00:21:32.021313","","","","","","",""
15.0,0.047310054302215576,0.001999704275073478,"train",16400.0,"2021-12-01 00:21:36.289730","","","","","","",""
15.0,0.057903144508600235,0.0019996622310770383,"train",16420.0,"2021-12-01 00:21:40.184635","","","","","","",""
15.0,0.08555194735527039,0.0019996173941089286,"train",16440.0,"2021-12-01 00:21:44.024014","","","","","","",""
15.0,0.060047172009944916,0.0019995697642944212,"train",16460.0,"2021-12-01 00:21:47.904306","","","","","","",""
15.0,0.041098494082689285,0.0019995193417665894,"train",16480.0,"2021-12-01 00:21:52.129463","","","","","","",""
15.0,0.04895545169711113,0.0019994661266663108,"train",16500.0,"2021-12-01 00:21:55.932864","","","","","","",""
15.0,0.05905018746852875,0.001999410119142264,"train",16520.0,"2021-12-01 00:21:59.640006","","","","","","",""
15.0,0.05586327239871025,0.0019993513193509297,"train",16540.0,"2021-12-01 00:22:03.771050","","","","","","",""
15.0,0.10301464051008224,0.0019992897274565906,"train",16560.0,"2021-12-01 00:22:07.518097","","","","","","",""
15.0,0.04832909256219864,0.0019992253436313303,"train",16580.0,"2021-12-01 00:22:11.268190","","","","","","",""
15.0,0.053055766969919205,0.0019991581680550313,"train",16600.0,"2021-12-01 00:22:15.378386","","","","","","",""
15.0,0.048195913434028625,0.0019990882009153785,"train",16620.0,"2021-12-01 00:22:19.085702","","","","","","",""
15.0,0.07716591656208038,0.001999015442407854,"train",16640.0,"2021-12-01 00:22:22.667816","","","","","","",""
15.0,0.0429324246942997,0.0019989398927357403,"train",16660.0,"2021-12-01 00:22:26.814934","","","","","","",""
15.0,0.05680486932396889,0.0019988615521101174,"train",16680.0,"2021-12-01 00:22:30.621010","","","","","","",""
15.0,0.055384550243616104,0.0019987804207498637,"train",16700.0,"2021-12-01 00:22:34.406374","","","","","","",""
15.0,0.06819357722997665,0.0019986964988816533,"train",16720.0,"2021-12-01 00:22:38.570533","","","","","","",""
15.0,0.040469419211149216,0.0019986097867399585,"train",16740.0,"2021-12-01 00:22:42.360742","","","","","","",""
15.0,0.07859616726636887,0.0019985202845670463,"train",16760.0,"2021-12-01 00:22:46.333839","","","","","","",""
15.0,0.04100656509399414,0.0019984279926129798,"train",16780.0,"2021-12-01 00:22:50.672843","","","","","","",""
15.0,0.09261845052242279,0.001998332911135615,"train",16800.0,"2021-12-01 00:22:54.554603","","","","","","",""
15.0,0.05306820943951607,0.0019982350404006036,"train",16820.0,"2021-12-01 00:22:58.281223","","","","","","",""
15.0,0.08613007515668869,0.0019981343806813883,"train",16840.0,"2021-12-01 00:23:02.280007","","","","","","",""
15.0,0.03968462720513344,0.001998030932259205,"train",16860.0,"2021-12-01 00:23:06.101609","","","","","","",""
15.0,0.08904242515563965,0.0019979246954230823,"train",16880.0,"2021-12-01 00:23:09.675537","","","","","","",""
15.0,0.040149860084056854,0.0019978156704698363,"train",16900.0,"2021-12-01 00:23:13.773254","","","","","","",""
15.0,0.08000288158655167,0.001997703857704076,"train",16920.0,"2021-12-01 00:23:17.825973","","","","","","",""
15.0,0.10470987111330032,0.0019975892574381976,"train",16940.0,"2021-12-01 00:23:21.749204","","","","","","",""
15.0,0.08024682849645615,0.001997471869992386,"train",16960.0,"2021-12-01 00:23:25.849485","","","","","","",""
15.0,0.06263513118028641,0.0019973516956946127,"train",16980.0,"2021-12-01 00:23:29.925419","","","","","","",""
15.0,0.05134471878409386,0.0019972287348806366,"train",17000.0,"2021-12-01 00:23:33.732520","","","","","","",""
15.0,0.085405133664608,0.0019971029878940003,"train",17020.0,"2021-12-01 00:23:37.853068","","","","","","",""
15.0,0.051665280014276505,0.0019969744550860317,"train",17040.0,"2021-12-01 00:23:41.733103","","","","","","",""
15.0,0.09700202941894531,0.0019968431368158433,"train",17060.0,"2021-12-01 00:23:45.686986","","","","","","",""
15.0,0.060388438403606415,0.001996709033450327,"train",17080.0,"2021-12-01 00:23:49.827103","","","","","","",""
15.0,0.06731485575437546,0.0019965721453641585,"train",17100.0,"2021-12-01 00:23:53.599291","","","","","","",""
15.0,0.08347363770008087,0.0019964324729397935,"train",17120.0,"2021-12-01 00:23:57.305741","","","","","","",""
15.0,0.055504001677036285,0.0019962900165674657,"train",17140.0,"2021-12-01 00:24:01.378152","","","","","","",""
15.0,0.07206811010837555,0.0019961447766451887,"train",17160.0,"2021-12-01 00:24:05.187667","","","","","","",""
15.0,0.03394865244626999,0.001995996753578751,"train",17180.0,"2021-12-01 00:24:08.948115","","","","","","",""
15.0,"","","train",17184.0,"2021-12-01 00:25:51.032455",0.6810157898566543,0.740408509804258,0.9745994885177673,0.7133921437617332,0.6002149015979521,0.6301967506497642,0.43835565606993787
15.0,"","","val",17184.0,"2021-12-01 00:26:21.308795",0.6249565116548765,0.6370405916103954,0.954572102246168,0.6515962325560112,0.5255527702291748,0.5535103494385897,0.3586388891062861
16.0,0.05444827675819397,0.001995845947781719,"train",17200.0,"2021-12-01 00:26:28.143611","","","","","","",""
16.0,0.09836600720882416,0.001995692359675433,"train",17220.0,"2021-12-01 00:26:31.930603","","","","","","",""
16.0,0.054212555289268494,0.0019955359896890066,"train",17240.0,"2021-12-01 00:26:35.709682","","","","","","",""
16.0,0.03399820998311043,0.0019953768382593258,"train",17260.0,"2021-12-01 00:26:39.906690","","","","","","",""
16.0,0.07367786765098572,0.0019952149058310486,"train",17280.0,"2021-12-01 00:26:43.707582","","","","","","",""
16.0,0.06910208612680435,0.001995050192856602,"train",17300.0,"2021-12-01 00:26:47.512890","","","","","","",""
16.0,0.08565002679824829,0.001994882699796182,"train",17320.0,"2021-12-01 00:26:51.720846","","","","","","",""
16.0,0.039429765194654465,0.001994712427117752,"train",17340.0,"2021-12-01 00:26:55.558188","","","","","","",""
16.0,0.06015788018703461,0.0019945393752970413,"train",17360.0,"2021-12-01 00:26:59.399955","","","","","","",""
16.0,0.043695446103811264,0.001994363544817544,"train",17380.0,"2021-12-01 00:27:03.596777","","","","","","",""
16.0,0.045940861105918884,0.001994184936170517,"train",17400.0,"2021-12-01 00:27:07.429099","","","","","","",""
16.0,0.061492837965488434,0.0019940035498549804,"train",17420.0,"2021-12-01 00:27:11.275523","","","","","","",""
16.0,0.05599940940737724,0.0019938193863777145,"train",17440.0,"2021-12-01 00:27:15.451212","","","","","","",""
16.0,0.056594181805849075,0.001993632446253258,"train",17460.0,"2021-12-01 00:27:19.286700","","","","","","",""
16.0,0.05683912709355354,0.0019934427300039074,"train",17480.0,"2021-12-01 00:27:23.094437","","","","","","",""
16.0,0.04330673813819885,0.001993250238159717,"train",17500.0,"2021-12-01 00:27:27.180370","","","","","","",""
16.0,0.07138051837682724,0.0019930549712584944,"train",17520.0,"2021-12-01 00:27:30.943250","","","","","","",""
16.0,0.0671912282705307,0.001992856929845801,"train",17540.0,"2021-12-01 00:27:34.782039","","","","","","",""
16.0,0.07257886230945587,0.0019926561144749497,"train",17560.0,"2021-12-01 00:27:39.059506","","","","","","",""
16.0,0.06942245364189148,0.001992452525707004,"train",17580.0,"2021-12-01 00:27:42.966106","","","","","","",""
16.0,0.06331401318311691,0.0019922461641107767,"train",17600.0,"2021-12-01 00:27:46.749800","","","","","","",""
16.0,0.05739719420671463,0.001992037030262826,"train",17620.0,"2021-12-01 00:27:50.906375","","","","","","",""
16.0,0.08161914348602295,0.0019918251247474567,"train",17640.0,"2021-12-01 00:27:54.670017","","","","","","",""
16.0,0.042232733219861984,0.001991610448156718,"train",17660.0,"2021-12-01 00:27:58.381940","","","","","","",""
16.0,0.06653560698032379,0.0019913930010903996,"train",17680.0,"2021-12-01 00:28:02.596809","","","","","","",""
16.0,0.045957859605550766,0.001991172784156033,"train",17700.0,"2021-12-01 00:28:06.482725","","","","","","",""
16.0,0.051302220672369,0.0019909497979688877,"train",17720.0,"2021-12-01 00:28:10.175741","","","","","","",""
16.0,0.08955203741788864,0.0019907240431519713,"train",17740.0,"2021-12-01 00:28:13.849591","","","","","","",""
16.0,0.047098174691200256,0.001990495520336026,"train",17760.0,"2021-12-01 00:28:18.033403","","","","","","",""
16.0,0.06650304049253464,0.0019902642301595284,"train",17780.0,"2021-12-01 00:28:21.917090","","","","","","",""
16.0,0.04984256625175476,0.001990030173268685,"train",17800.0,"2021-12-01 00:28:25.749635","","","","","","",""
16.0,0.06911161541938782,0.0019897933503174345,"train",17820.0,"2021-12-01 00:28:29.993185","","","","","","",""
16.0,0.07827810198068619,0.0019895537619674425,"train",17840.0,"2021-12-01 00:28:33.814303","","","","","","",""
16.0,0.05524109676480293,0.001989311408888101,"train",17860.0,"2021-12-01 00:28:37.644842","","","","","","",""
16.0,0.0767354816198349,0.001989066291756527,"train",17880.0,"2021-12-01 00:28:41.740764","","","","","","",""
16.0,0.045847032219171524,0.00198881841125756,"train",17900.0,"2021-12-01 00:28:45.471773","","","","","","",""
16.0,0.05820029228925705,0.0019885677680837595,"train",17920.0,"2021-12-01 00:28:49.268814","","","","","","",""
16.0,0.08190262317657471,0.001988314362935404,"train",17940.0,"2021-12-01 00:28:53.466690","","","","","","",""
16.0,0.08246453106403351,0.0019880581965204896,"train",17960.0,"2021-12-01 00:28:57.294241","","","","","","",""
16.0,0.08304601907730103,0.0019877992695547255,"train",17980.0,"2021-12-01 00:29:01.115614","","","","","","",""
16.0,0.07987946271896362,0.0019875375827615354,"train",18000.0,"2021-12-01 00:29:05.288802","","","","","","",""
16.0,0.07529040426015854,0.0019872731368720527,"train",18020.0,"2021-12-01 00:29:09.020155","","","","","","",""
16.0,0.0425446592271328,0.00198700593262512,"train",18040.0,"2021-12-01 00:29:12.919287","","","","","","",""
16.0,0.03687198460102081,0.001986735970767286,"train",18060.0,"2021-12-01 00:29:17.034357","","","","","","",""
16.0,0.07723472267389297,0.001986463252052804,"train",18080.0,"2021-12-01 00:29:20.646783","","","","","","",""
16.0,0.0953870415687561,0.0019861877772436305,"train",18100.0,"2021-12-01 00:29:24.141219","","","","","","",""
16.0,0.07200533896684647,0.001985909547109422,"train",18120.0,"2021-12-01 00:29:28.034267","","","","","","",""
16.0,0.048214782029390335,0.001985628562427533,"train",18140.0,"2021-12-01 00:29:31.586968","","","","","","",""
16.0,0.05206217244267464,0.001985344823983014,"train",18160.0,"2021-12-01 00:29:35.169962","","","","","","",""
16.0,0.10306476056575775,0.001985058332568609,"train",18180.0,"2021-12-01 00:29:39.267705","","","","","","",""
16.0,0.0385051891207695,0.001984769088984755,"train",18200.0,"2021-12-01 00:29:42.955579","","","","","","",""
16.0,0.06502242386341095,0.001984477094039576,"train",18220.0,"2021-12-01 00:29:46.687064","","","","","","",""
16.0,0.05811280757188797,0.001984182348548885,"train",18240.0,"2021-12-01 00:29:50.894973","","","","","","",""
16.0,"","","train",18258.0,"2021-12-01 00:31:34.932568",0.684624899949065,0.7497256221695502,0.9757386646425001,0.7166583946139792,0.6039748102250917,0.6406177781359279,0.44086426913911847
16.0,"","","val",18258.0,"2021-12-01 00:32:02.869851",0.6309868955120028,0.6436527790815773,0.9586228280611058,0.6570319344181665,0.5345858823255004,0.5608494437994247,0.3677958282167507
17.0,0.07157798111438751,0.00198388485333618,"train",18260.0,"2021-12-01 00:32:06.603882","","","","","","",""
17.0,0.05190439894795418,0.0019835846092326396,"train",18280.0,"2021-12-01 00:32:10.526189","","","","","","",""
17.0,0.055704887956380844,0.0019832816170771246,"train",18300.0,"2021-12-01 00:32:14.638536","","","","","","",""
17.0,0.08645441383123398,0.001982975877716172,"train",18320.0,"2021-12-01 00:32:18.325998","","","","","","",""
17.0,0.039258744567632675,0.0019826673920039957,"train",18340.0,"2021-12-01 00:32:22.070194","","","","","","",""
17.0,0.07528184354305267,0.0019823561608024822,"train",18360.0,"2021-12-01 00:32:26.181854","","","","","","",""
17.0,0.04171158745884895,0.0019820421849811886,"train",18380.0,"2021-12-01 00:32:29.912429","","","","","","",""
17.0,0.04065203294157982,0.0019817254654173402,"train",18400.0,"2021-12-01 00:32:33.659501","","","","","","",""
17.0,0.07826836407184601,0.0019814060029958278,"train",18420.0,"2021-12-01 00:32:37.854951","","","","","","",""
17.0,0.04178139567375183,0.001981083798609206,"train",18440.0,"2021-12-01 00:32:41.634230","","","","","","",""
17.0,0.05626920238137245,0.0019807588531576908,"train",18460.0,"2021-12-01 00:32:45.330701","","","","","","",""
17.0,0.07344447821378708,0.0019804311675491555,"train",18480.0,"2021-12-01 00:32:49.430869","","","","","","",""
17.0,0.04205286502838135,0.00198010074269913,"train",18500.0,"2021-12-01 00:32:53.150775","","","","","","",""
17.0,0.06869955360889435,0.0019797675795307965,"train",18520.0,"2021-12-01 00:32:56.975471","","","","","","",""
17.0,0.06003975495696068,0.0019794316789749885,"train",18540.0,"2021-12-01 00:33:01.190686","","","","","","",""
17.0,0.043842341750860214,0.0019790930419701877,"train",18560.0,"2021-12-01 00:33:04.905631","","","","","","",""
17.0,0.054509248584508896,0.0019787516694625214,"train",18580.0,"2021-12-01 00:33:08.625352","","","","","","",""
17.0,0.05488390475511551,0.0019784075624057584,"train",18600.0,"2021-12-01 00:33:12.708030","","","","","","",""
17.0,0.050139233469963074,0.0019780607217613094,"train",18620.0,"2021-12-01 00:33:16.451506","","","","","","",""
17.0,0.045100998133420944,0.001977711148498221,"train",18640.0,"2021-12-01 00:33:20.186672","","","","","","",""
17.0,0.06794820725917816,0.0019773588435931756,"train",18660.0,"2021-12-01 00:33:24.433189","","","","","","",""
17.0,0.041369885206222534,0.0019770038080304873,"train",18680.0,"2021-12-01 00:33:28.289175","","","","","","",""
17.0,0.03294488042593002,0.001976646042802099,"train",18700.0,"2021-12-01 00:33:32.046397","","","","","","",""
17.0,0.06048400700092316,0.0019762855489075808,"train",18720.0,"2021-12-01 00:33:36.070188","","","","","","",""
17.0,0.03337722644209862,0.001975922327354126,"train",18740.0,"2021-12-01 00:33:39.679406","","","","","","",""
17.0,0.06446399539709091,0.001975556379156549,"train",18760.0,"2021-12-01 00:33:43.431418","","","","","","",""
17.0,0.0948350578546524,0.0019751877053372823,"train",18780.0,"2021-12-01 00:33:47.190608","","","","","","",""
17.0,0.06494530290365219,0.001974816306926373,"train",18800.0,"2021-12-01 00:33:51.296891","","","","","","",""
17.0,0.0770554170012474,0.001974442184961482,"train",18820.0,"2021-12-01 00:33:54.993695","","","","","","",""
17.0,0.04305015504360199,0.0019740653404878776,"train",18840.0,"2021-12-01 00:33:58.786033","","","","","","",""
17.0,0.046507012099027634,0.0019736857745584362,"train",18860.0,"2021-12-01 00:34:02.976914","","","","","","",""
17.0,0.05879056826233864,0.0019733034882336367,"train",18880.0,"2021-12-01 00:34:06.812170","","","","","","",""
17.0,0.051466237753629684,0.0019729184825815586,"train",18900.0,"2021-12-01 00:34:10.648970","","","","","","",""
17.0,0.0890505239367485,0.0019725307586778806,"train",18920.0,"2021-12-01 00:34:14.926392","","","","","","",""
17.0,0.043991073966026306,0.001972140317605874,"train",18940.0,"2021-12-01 00:34:18.844119","","","","","","",""
17.0,0.05048202723264694,0.0019717471604564028,"train",18960.0,"2021-12-01 00:34:22.642004","","","","","","",""
17.0,0.09042054414749146,0.0019713512883279185,"train",18980.0,"2021-12-01 00:34:26.802210","","","","","","",""
17.0,0.05904272571206093,0.00197095270232646,"train",19000.0,"2021-12-01 00:34:30.629365","","","","","","",""
17.0,0.04610338807106018,0.001970551403565646,"train",19020.0,"2021-12-01 00:34:34.440252","","","","","","",""
17.0,0.07775987684726715,0.0019701473931666765,"train",19040.0,"2021-12-01 00:34:38.641093","","","","","","",""
17.0,0.0679282397031784,0.001969740672258327,"train",19060.0,"2021-12-01 00:34:42.468710","","","","","","",""
17.0,0.09386944770812988,0.0019693312419769454,"train",19080.0,"2021-12-01 00:34:46.292101","","","","","","",""
17.0,0.04146541655063629,0.0019689191034664498,"train",19100.0,"2021-12-01 00:34:50.455827","","","","","","",""
17.0,0.04891068860888481,0.0019685042578783257,"train",19120.0,"2021-12-01 00:34:54.288368","","","","","","",""
17.0,0.08426009118556976,0.00196808670637162,"train",19140.0,"2021-12-01 00:34:57.990761","","","","","","",""
17.0,0.04879717528820038,0.001967666450112942,"train",19160.0,"2021-12-01 00:35:02.073211","","","","","","",""
17.0,0.04829982668161392,0.001967243490276456,"train",19180.0,"2021-12-01 00:35:05.806087","","","","","","",""
17.0,0.08260641992092133,0.0019668178280438818,"train",19200.0,"2021-12-01 00:35:09.569083","","","","","","",""
17.0,0.0398828350007534,0.0019663894646044875,"train",19220.0,"2021-12-01 00:35:13.771027","","","","","","",""
17.0,0.06929970532655716,0.001965958401155089,"train",19240.0,"2021-12-01 00:35:17.507965","","","","","","",""
17.0,0.053447797894477844,0.0019655246389000463,"train",19260.0,"2021-12-01 00:35:21.193759","","","","","","",""
17.0,0.06360925734043121,0.0019650881790512597,"train",19280.0,"2021-12-01 00:35:25.324073","","","","","","",""
17.0,0.07687829434871674,0.001964649022828165,"train",19300.0,"2021-12-01 00:35:29.149835","","","","","","",""
17.0,0.03969718515872955,0.0019642071714577325,"train",19320.0,"2021-12-01 00:35:32.994028","","","","","","",""
17.0,"","","train",19332.0,"2021-12-01 00:37:17.028661",0.6837371752892382,0.7586906681913977,0.9778911173008052,0.7069785492437848,0.6141970742159371,0.6447449818055511,0.4507135943414745
17.0,"","","val",19332.0,"2021-12-01 00:38:01.175616",0.6248985271947118,0.6417206878219173,0.9557370156698757,0.640400801008465,0.541424093380514,0.5648325982448462,0.37040281990231594
18.0,0.07584606856107712,0.0019637626261744634,"train",19340.0,"2021-12-01 00:38:11.002963","","","","","","",""
18.0,0.0348050557076931,0.001963315388220384,"train",19360.0,"2021-12-01 00:38:14.892134","","","","","","",""
18.0,0.06140332296490669,0.0019628654588450443,"train",19380.0,"2021-12-01 00:38:18.724287","","","","","","",""
18.0,0.043645914644002914,0.001962412839305514,"train",19400.0,"2021-12-01 00:38:22.995453","","","","","","",""
18.0,0.07215525954961777,0.0019619575308663785,"train",19420.0,"2021-12-01 00:38:26.726017","","","","","","",""
18.0,0.04230363667011261,0.001961499534799737,"train",19440.0,"2021-12-01 00:38:30.469334","","","","","","",""
18.0,0.08286511152982712,0.001961038852385196,"train",19460.0,"2021-12-01 00:38:34.667110","","","","","","",""
18.0,0.051678385585546494,0.0019605754849098683,"train",19480.0,"2021-12-01 00:38:38.485288","","","","","","",""
18.0,0.0353894904255867,0.0019601094336683693,"train",19500.0,"2021-12-01 00:38:42.303455","","","","","","",""
18.0,0.03626445680856705,0.0019596406999628116,"train",19520.0,"2021-12-01 00:38:46.552734","","","","","","",""
18.0,0.030360067263245583,0.0019591692851028022,"train",19540.0,"2021-12-01 00:38:50.501041","","","","","","",""
18.0,0.03782762214541435,0.001958695190405441,"train",19560.0,"2021-12-01 00:38:54.291217","","","","","","",""
18.0,0.07824765890836716,0.001958218417195312,"train",19580.0,"2021-12-01 00:38:58.408458","","","","","","",""
18.0,0.03814338147640228,0.001957738966804486,"train",19600.0,"2021-12-01 00:39:02.184885","","","","","","",""
18.0,0.04514537751674652,0.001957256840572511,"train",19620.0,"2021-12-01 00:39:05.945886","","","","","","",""
18.0,0.03497575968503952,0.0019567720398464133,"train",19640.0,"2021-12-01 00:39:10.085187","","","","","","",""
18.0,0.06433971226215363,0.00195628456598069,"train",19660.0,"2021-12-01 00:39:13.962725","","","","","","",""
18.0,0.09111732989549637,0.001955794420337307,"train",19680.0,"2021-12-01 00:39:17.766952","","","","","","",""
18.0,0.05679585412144661,0.0019553016042856957,"train",19700.0,"2021-12-01 00:39:21.949601","","","","","","",""
18.0,0.046752482652664185,0.001954806119202748,"train",19720.0,"2021-12-01 00:39:25.795357","","","","","","",""
18.0,0.08843746036291122,0.001954307966472812,"train",19740.0,"2021-12-01 00:39:29.600880","","","","","","",""
18.0,0.06297536194324493,0.0019538071474876914,"train",19760.0,"2021-12-01 00:39:33.789860","","","","","","",""
18.0,0.047745298594236374,0.001953303663646636,"train",19780.0,"2021-12-01 00:39:37.608635","","","","","","",""
18.0,0.03925961256027222,0.0019527975163563436,"train",19800.0,"2021-12-01 00:39:41.428289","","","","","","",""
18.0,0.04426350072026253,0.0019522887070309524,"train",19820.0,"2021-12-01 00:39:45.604518","","","","","","",""
18.0,0.06089574471116066,0.0019517772370920379,"train",19840.0,"2021-12-01 00:39:49.422313","","","","","","",""
18.0,0.09199698269367218,0.0019512631079686104,"train",19860.0,"2021-12-01 00:39:53.262000","","","","","","",""
18.0,0.05467147380113602,0.001950746321097108,"train",19880.0,"2021-12-01 00:39:57.444334","","","","","","",""
18.0,0.07122901827096939,0.0019502268779213957,"train",19900.0,"2021-12-01 00:40:01.252933","","","","","","",""
18.0,0.04263100400567055,0.0019497047798927598,"train",19920.0,"2021-12-01 00:40:05.132186","","","","","","",""
18.0,0.07600881159305573,0.001949180028469903,"train",19940.0,"2021-12-01 00:40:09.334993","","","","","","",""
18.0,0.0515267513692379,0.0019486526251189435,"train",19960.0,"2021-12-01 00:40:13.151010","","","","","","",""
18.0,0.053197212517261505,0.0019481225713134064,"train",19980.0,"2021-12-01 00:40:16.970292","","","","","","",""
18.0,0.07283784449100494,0.0019475898685342235,"train",20000.0,"2021-12-01 00:40:21.151720","","","","","","",""
18.0,0.0758364126086235,0.0019470545182697272,"train",20020.0,"2021-12-01 00:40:24.969521","","","","","","",""
18.0,0.041938938200473785,0.001946516522015647,"train",20040.0,"2021-12-01 00:40:28.727800","","","","","","",""
18.0,0.039121877402067184,0.0019459758812751047,"train",20060.0,"2021-12-01 00:40:32.489357","","","","","","",""
18.0,0.0349135585129261,0.0019454325975586106,"train",20080.0,"2021-12-01 00:40:36.651366","","","","","","",""
18.0,0.07746388018131256,0.0019448866723840602,"train",20100.0,"2021-12-01 00:40:40.457097","","","","","","",""
18.0,0.05809719115495682,0.001944338107276728,"train",20120.0,"2021-12-01 00:40:44.659149","","","","","","",""
18.0,0.09484777599573135,0.0019437869037692644,"train",20140.0,"2021-12-01 00:40:48.382722","","","","","","",""
18.0,0.043819889426231384,0.0019432330634016912,"train",20160.0,"2021-12-01 00:40:52.172072","","","","","","",""
18.0,0.058478549122810364,0.0019426765877213986,"train",20180.0,"2021-12-01 00:40:55.915764","","","","","","",""
18.0,0.08806454390287399,0.0019421174782831383,"train",20200.0,"2021-12-01 00:41:00.145494","","","","","","",""
18.0,0.06088722497224808,0.0019415557366490208,"train",20220.0,"2021-12-01 00:41:03.869006","","","","","","",""
18.0,0.08464235812425613,0.0019409913643885113,"train",20240.0,"2021-12-01 00:41:07.575032","","","","","","",""
