"epoch","loss","lr","part","step","time","accuracy","auprc","auroc","challenge_metric","f_beta_measure","f_measure","g_beta_measure"
0.0,0.15872064232826233,8.000730236035311e-05,"train",20.0,"2021-12-01 08:27:08.526467","","","","","","",""
0.0,0.15871918201446533,8.002920933031948e-05,"train",40.0,"2021-12-01 08:27:12.224313","","","","","","",""
0.0,0.13985517621040344,8.006572057662293e-05,"train",60.0,"2021-12-01 08:27:15.879830","","","","","","",""
0.0,0.16397599875926971,8.011683554380914e-05,"train",80.0,"2021-12-01 08:27:19.971928","","","","","","",""
0.0,0.14591026306152344,8.018255345425274e-05,"train",100.0,"2021-12-01 08:27:23.691432","","","","","","",""
0.0,0.1412642002105713,8.026287330817079e-05,"train",120.0,"2021-12-01 08:27:27.398648","","","","","","",""
0.0,0.13561886548995972,8.03577938836373e-05,"train",140.0,"2021-12-01 08:27:31.169510","","","","","","",""
0.0,0.14881135523319244,8.04673137366021e-05,"train",160.0,"2021-12-01 08:27:35.297737","","","","","","",""
0.0,0.12816447019577026,8.059143120091187e-05,"train",180.0,"2021-12-01 08:27:39.003219","","","","","","",""
0.0,0.12447049468755722,8.073014438833613e-05,"train",200.0,"2021-12-01 08:27:42.740821","","","","","","",""
0.0,0.15135091543197632,8.088345118859724e-05,"train",220.0,"2021-12-01 08:27:46.915455","","","","","","",""
0.0,0.12585823237895966,8.10513492693996e-05,"train",240.0,"2021-12-01 08:27:50.657609","","","","","","",""
0.0,0.10868226736783981,8.123383607646804e-05,"train",260.0,"2021-12-01 08:27:54.336554","","","","","","",""
0.0,0.12045644968748093,8.143090883358495e-05,"train",280.0,"2021-12-01 08:27:58.347638","","","","","","",""
0.0,0.12128771841526031,8.164256454263295e-05,"train",300.0,"2021-12-01 08:28:01.994522","","","","","","",""
0.0,0.1450294405221939,8.186879998364088e-05,"train",320.0,"2021-12-01 08:28:05.629680","","","","","","",""
0.0,0.11842506378889084,8.210961171483213e-05,"train",340.0,"2021-12-01 08:28:09.666816","","","","","","",""
0.0,0.0987081527709961,8.236499607267717e-05,"train",360.0,"2021-12-01 08:28:13.314242","","","","","","",""
0.0,0.1289866417646408,8.26349491719505e-05,"train",380.0,"2021-12-01 08:28:16.960758","","","","","","",""
0.0,0.1482134610414505,8.291946690578713e-05,"train",400.0,"2021-12-01 08:28:21.065440","","","","","","",""
0.0,0.12886294722557068,8.321854494574774e-05,"train",420.0,"2021-12-01 08:28:24.732331","","","","","","",""
0.0,0.11677520722150803,8.353217874188293e-05,"train",440.0,"2021-12-01 08:28:28.444095","","","","","","",""
0.0,0.12895989418029785,8.38603635228035e-05,"train",460.0,"2021-12-01 08:28:32.592934","","","","","","",""
0.0,0.11305302381515503,8.420309429575212e-05,"train",480.0,"2021-12-01 08:28:36.251900","","","","","","",""
0.0,0.11093698441982269,8.456036584667914e-05,"train",500.0,"2021-12-01 08:28:39.886863","","","","","","",""
0.0,0.09651795774698257,8.493217274032315e-05,"train",520.0,"2021-12-01 08:28:43.967139","","","","","","",""
0.0,0.12365171313285828,8.531850932029235e-05,"train",540.0,"2021-12-01 08:28:47.600989","","","","","","",""
0.0,0.11543670296669006,8.571936970915212e-05,"train",560.0,"2021-12-01 08:28:51.246713","","","","","","",""
0.0,0.12700383365154266,8.613474780851246e-05,"train",580.0,"2021-12-01 08:28:54.996467","","","","","","",""
0.0,0.1072048470377922,8.656463729912224e-05,"train",600.0,"2021-12-01 08:28:59.106059","","","","","","",""
0.0,0.12969689071178436,8.700903164096468e-05,"train",620.0,"2021-12-01 08:29:02.830091","","","","","","",""
0.0,0.12418387830257416,8.746792407335769e-05,"train",640.0,"2021-12-01 08:29:06.519734","","","","","","",""
0.0,0.10542862862348557,8.794130761505497e-05,"train",660.0,"2021-12-01 08:29:10.554795","","","","","","",""
0.0,0.1145271435379982,8.842917506435462e-05,"train",680.0,"2021-12-01 08:29:14.208836","","","","","","",""
0.0,0.08744606375694275,8.893151899920645e-05,"train",700.0,"2021-12-01 08:29:17.889520","","","","","","",""
0.0,0.11294510215520859,8.944833177732632e-05,"train",720.0,"2021-12-01 08:29:21.921018","","","","","","",""
0.0,0.10661686956882477,8.997960553631186e-05,"train",740.0,"2021-12-01 08:29:25.586928","","","","","","",""
0.0,0.10079151391983032,9.052533219376224e-05,"train",760.0,"2021-12-01 08:29:29.281707","","","","","","",""
0.0,0.11876016855239868,9.108550344740104e-05,"train",780.0,"2021-12-01 08:29:33.287942","","","","","","",""
0.0,0.10868280380964279,9.166011077520208e-05,"train",800.0,"2021-12-01 08:29:36.927174","","","","","","",""
0.0,0.12540343403816223,9.224914543552059e-05,"train",820.0,"2021-12-01 08:29:40.543180","","","","","","",""
0.0,0.08856795728206635,9.285259846722417e-05,"train",840.0,"2021-12-01 08:29:44.450376","","","","","","",""
0.0,0.118589848279953,9.34704606898307e-05,"train",860.0,"2021-12-01 08:29:47.996918","","","","","","",""
0.0,0.12200599163770676,9.410272270364735e-05,"train",880.0,"2021-12-01 08:29:51.734999","","","","","","",""
0.0,0.11201046407222748,9.474937488991348e-05,"train",900.0,"2021-12-01 08:29:55.792552","","","","","","",""
0.0,0.13309000432491302,9.541040741094719e-05,"train",920.0,"2021-12-01 08:29:59.506426","","","","","","",""
0.0,0.12365935742855072,9.608581021029522e-05,"train",940.0,"2021-12-01 08:30:03.213023","","","","","","",""
0.0,0.10275224596261978,9.677557301288509e-05,"train",960.0,"2021-12-01 08:30:07.309264","","","","","","",""
0.0,0.10319104790687561,9.747968532518238e-05,"train",980.0,"2021-12-01 08:30:10.964689","","","","","","",""
0.0,0.11572867631912231,9.819813643535029e-05,"train",1000.0,"2021-12-01 08:30:14.554726","","","","","","",""
0.0,0.10159053653478622,9.893091541341185e-05,"train",1020.0,"2021-12-01 08:30:18.529906","","","","","","",""
0.0,0.10819009691476822,9.967801111141644e-05,"train",1040.0,"2021-12-01 08:30:22.103783","","","","","","",""
0.0,0.11699793487787247,0.00010043941216361023,"train",1060.0,"2021-12-01 08:30:25.684074","","","","","","",""
0.0,"","","train",1074.0,"2021-12-01 08:32:08.812470",0.39819544495379466,0.2997312538070363,0.8430922453572971,0.33913452786346987,0.2183535250159341,0.21351424037162317,0.1318327254661723
0.0,"","","val",1074.0,"2021-12-01 08:32:36.313754",0.39736750550852373,0.29727292012551076,0.8383740019305426,0.3324063809222666,0.21399355014768326,0.20776360163546673,0.12832873220171892
1.0,0.08421964198350906,0.00010121510698660771,"train",1080.0,"2021-12-01 08:32:41.196211","","","","","","",""
1.0,0.09263765811920166,0.00010200508377956928,"train",1100.0,"2021-12-01 08:32:44.892735","","","","","","",""
1.0,0.09890080988407135,0.00010280933052437993,"train",1120.0,"2021-12-01 08:32:48.385635","","","","","","",""
1.0,0.10535293817520142,0.00010362783498583223,"train",1140.0,"2021-12-01 08:32:51.856966","","","","","","",""
1.0,0.08719727396965027,0.0001044605847118124,"train",1160.0,"2021-12-01 08:32:55.717655","","","","","","",""
1.0,0.08586937189102173,0.0001053075670334907,"train",1180.0,"2021-12-01 08:32:59.378497","","","","","","",""
1.0,0.11374600231647491,0.00010616876906551181,"train",1200.0,"2021-12-01 08:33:03.051901","","","","","","",""
1.0,0.10497935116291046,0.0001070441777061941,"train",1220.0,"2021-12-01 08:33:07.156679","","","","","","",""
1.0,0.09985839575529099,0.00010793377963772563,"train",1240.0,"2021-12-01 08:33:10.805623","","","","","","",""
1.0,0.08641289919614792,0.0001088375613263698,"train",1260.0,"2021-12-01 08:33:14.429599","","","","","","",""
1.0,0.09803950041532516,0.00010975550902266908,"train",1280.0,"2021-12-01 08:33:18.491329","","","","","","",""
1.0,0.09720934927463531,0.00011068760876165474,"train",1300.0,"2021-12-01 08:33:22.216362","","","","","","",""
1.0,0.0896194651722908,0.0001116338463630598,"train",1320.0,"2021-12-01 08:33:25.868578","","","","","","",""
1.0,0.10833364725112915,0.00011259420743153455,"train",1340.0,"2021-12-01 08:33:29.892694","","","","","","",""
1.0,0.10058585554361343,0.00011356867735686535,"train",1360.0,"2021-12-01 08:33:33.578384","","","","","","",""
1.0,0.11266350001096725,0.00011455724131419621,"train",1380.0,"2021-12-01 08:33:37.292164","","","","","","",""
1.0,0.09677471965551376,0.00011555988426425654,"train",1400.0,"2021-12-01 08:33:41.378137","","","","","","",""
1.0,0.10544777661561966,0.00011657659095358746,"train",1420.0,"2021-12-01 08:33:45.061649","","","","","","",""
1.0,0.09500784426927567,0.00011760734591477516,"train",1440.0,"2021-12-01 08:33:48.890652","","","","","","",""
1.0,0.09024790674448013,0.00011865213346668618,"train",1460.0,"2021-12-01 08:33:53.052626","","","","","","",""
1.0,0.10357565432786942,0.00011971093771470502,"train",1480.0,"2021-12-01 08:33:56.744557","","","","","","",""
1.0,0.09991537034511566,0.0001207837425509777,"train",1500.0,"2021-12-01 08:34:00.524889","","","","","","",""
1.0,0.09141778945922852,0.00012187053165465503,"train",1520.0,"2021-12-01 08:34:04.295148","","","","","","",""
1.0,0.08409761637449265,0.000122971288492142,"train",1540.0,"2021-12-01 08:34:08.418488","","","","","","",""
1.0,0.08031781017780304,0.00012408599631734863,"train",1560.0,"2021-12-01 08:34:12.192295","","","","","","",""
1.0,0.07573531568050385,0.00012521463817194542,"train",1580.0,"2021-12-01 08:34:15.941537","","","","","","",""
1.0,0.08978980034589767,0.00012635719688562077,"train",1600.0,"2021-12-01 08:34:20.128118","","","","","","",""
1.0,0.09468511492013931,0.00012751365507634267,"train",1620.0,"2021-12-01 08:34:23.911566","","","","","","",""
1.0,0.12388400733470917,0.0001286839951506226,"train",1640.0,"2021-12-01 08:34:27.610715","","","","","","",""
1.0,0.10347304493188858,0.00012986819930378333,"train",1660.0,"2021-12-01 08:34:31.734486","","","","","","",""
1.0,0.0897696316242218,0.00013106624952023064,"train",1680.0,"2021-12-01 08:34:35.473706","","","","","","",""
1.0,0.11762990057468414,0.00013227812757372545,"train",1700.0,"2021-12-01 08:34:39.188558","","","","","","",""
1.0,0.07940144836902618,0.00013350381502766394,"train",1720.0,"2021-12-01 08:34:43.343483","","","","","","",""
1.0,0.09922273457050323,0.00013474329323535494,"train",1740.0,"2021-12-01 08:34:47.098490","","","","","","",""
1.0,0.10343910753726959,0.0001359965433403059,"train",1760.0,"2021-12-01 08:34:50.901419","","","","","","",""
1.0,0.09946689754724503,0.00013726354627650872,"train",1780.0,"2021-12-01 08:34:55.227708","","","","","","",""
1.0,0.09381566941738129,0.00013854428276873052,"train",1800.0,"2021-12-01 08:34:58.983912","","","","","","",""
1.0,0.1216634064912796,0.00013983873333280506,"train",1820.0,"2021-12-01 08:35:02.731315","","","","","","",""
1.0,0.10350854694843292,0.00014114687827593156,"train",1840.0,"2021-12-01 08:35:06.868905","","","","","","",""
1.0,0.07909487187862396,0.00014246869769697352,"train",1860.0,"2021-12-01 08:35:10.645648","","","","","","",""
1.0,0.09961064159870148,0.00014380417148676054,"train",1880.0,"2021-12-01 08:35:14.427425","","","","","","",""
1.0,0.09397084265947342,0.00014515327932839404,"train",1900.0,"2021-12-01 08:35:18.147788","","","","","","",""
1.0,0.12562984228134155,0.0001465160006975598,"train",1920.0,"2021-12-01 08:35:22.180538","","","","","","",""
1.0,0.08699575811624527,0.00014789231486283454,"train",1940.0,"2021-12-01 08:35:25.984137","","","","","","",""
1.0,0.1104067713022232,0.00014928220088600633,"train",1960.0,"2021-12-01 08:35:29.641652","","","","","","",""
1.0,0.12527111172676086,0.00015068563762239045,"train",1980.0,"2021-12-01 08:35:33.683572","","","","","","",""
1.0,0.09595885872840881,0.00015210260372115238,"train",2000.0,"2021-12-01 08:35:37.327903","","","","","","",""
1.0,0.10495281964540482,0.00015353307762563115,"train",2020.0,"2021-12-01 08:35:40.963287","","","","","","",""
1.0,0.08836659789085388,0.00015497703757366872,"train",2040.0,"2021-12-01 08:35:44.981262","","","","","","",""
1.0,0.0856984332203865,0.00015643446159794,"train",2060.0,"2021-12-01 08:35:48.749057","","","","","","",""
1.0,0.08560845255851746,0.0001579053275262887,"train",2080.0,"2021-12-01 08:35:52.497164","","","","","","",""
1.0,0.09578553587198257,0.00015938961298206183,"train",2100.0,"2021-12-01 08:35:56.590560","","","","","","",""
1.0,0.09245309978723526,0.00016088729538445297,"train",2120.0,"2021-12-01 08:36:00.374241","","","","","","",""
1.0,0.09822355955839157,0.000162398351948844,"train",2140.0,"2021-12-01 08:36:04.154251","","","","","","",""
1.0,"","","train",2148.0,"2021-12-01 08:37:45.851618",0.45649421523684786,0.38991310067160345,0.8881888898186194,0.4252109679186803,0.28104076010516094,0.2824989142456996,0.18086968079471177
1.0,"","","val",2148.0,"2021-12-01 08:38:13.710860",0.453844369708918,0.3797713022604841,0.882641115974637,0.41751331576631023,0.2762737761490544,0.27494842523409446,0.17542592464053974
2.0,0.09062482416629791,0.00016392275968715297,"train",2160.0,"2021-12-01 08:38:19.815834","","","","","","",""
2.0,0.09325617551803589,0.00016546049540818223,"train",2180.0,"2021-12-01 08:38:23.544761","","","","","","",""
2.0,0.08414839208126068,0.00016701153571797313,"train",2200.0,"2021-12-01 08:38:27.231982","","","","","","",""
2.0,0.08851844072341919,0.00016857585702016015,"train",2220.0,"2021-12-01 08:38:31.354377","","","","","","",""
2.0,0.09586095809936523,0.00017015343551633126,"train",2240.0,"2021-12-01 08:38:34.997979","","","","","","",""
2.0,0.09339891374111176,0.0001717442472063892,"train",2260.0,"2021-12-01 08:38:38.707483","","","","","","",""
2.0,0.10013995319604874,0.00017334826788891681,"train",2280.0,"2021-12-01 08:38:42.727865","","","","","","",""
2.0,0.08850768953561783,0.00017496547316154555,"train",2300.0,"2021-12-01 08:38:46.397285","","","","","","",""
2.0,0.10050918906927109,0.00017659583842132573,"train",2320.0,"2021-12-01 08:38:50.164881","","","","","","",""
2.0,0.0940098911523819,0.00017823933886510217,"train",2340.0,"2021-12-01 08:38:54.222165","","","","","","",""
2.0,0.07886137068271637,0.00017989594948989015,"train",2360.0,"2021-12-01 08:38:57.869552","","","","","","",""
2.0,0.12864618003368378,0.00018156564509325753,"train",2380.0,"2021-12-01 08:39:01.513079","","","","","","",""
2.0,0.084586501121521,0.0001832484002737059,"train",2400.0,"2021-12-01 08:39:05.522553","","","","","","",""
2.0,0.0815499797463417,0.00018494418943105877,"train",2420.0,"2021-12-01 08:39:09.151839","","","","","","",""
2.0,0.11019513756036758,0.00018665298676685078,"train",2440.0,"2021-12-01 08:39:12.856371","","","","","","",""
2.0,0.0946178138256073,0.0001883747662847191,"train",2460.0,"2021-12-01 08:39:16.629326","","","","","","",""
2.0,0.08578112721443176,0.00019010950179080112,"train",2480.0,"2021-12-01 08:39:20.621964","","","","","","",""
2.0,0.11216142773628235,0.00019185716689412995,"train",2500.0,"2021-12-01 08:39:24.317763","","","","","","",""
2.0,0.09700410813093185,0.00019361773500703797,"train",2520.0,"2021-12-01 08:39:28.069689","","","","","","",""
2.0,0.10964496433734894,0.00019539117934556168,"train",2540.0,"2021-12-01 08:39:32.128802","","","","","","",""
2.0,0.108671635389328,0.00019717747292984696,"train",2560.0,"2021-12-01 08:39:35.743275","","","","","","",""
2.0,0.08983801305294037,0.0001989765885845624,"train",2580.0,"2021-12-01 08:39:39.379123","","","","","","",""
2.0,0.0913250669836998,0.00020078849893931014,"train",2600.0,"2021-12-01 08:39:43.418695","","","","","","",""
2.0,0.09364300966262817,0.0002026131764290434,"train",2620.0,"2021-12-01 08:39:47.044537","","","","","","",""
2.0,0.09877800941467285,0.00020445059329448614,"train",2640.0,"2021-12-01 08:39:50.622376","","","","","","",""
2.0,0.09497963637113571,0.00020630072158255497,"train",2660.0,"2021-12-01 08:39:54.586015","","","","","","",""
2.0,0.08828912675380707,0.00020816353314678467,"train",2680.0,"2021-12-01 08:39:58.210587","","","","","","",""
2.0,0.09220883250236511,0.00021003899964775505,"train",2700.0,"2021-12-01 08:40:01.863269","","","","","","",""
2.0,0.08766689151525497,0.00021192709255352473,"train",2720.0,"2021-12-01 08:40:05.946004","","","","","","",""
2.0,0.08761546015739441,0.00021382778314006255,"train",2740.0,"2021-12-01 08:40:09.663535","","","","","","",""
2.0,0.09100142121315002,0.00021574104249168615,"train",2760.0,"2021-12-01 08:40:13.378536","","","","","","",""
2.0,0.09038133174180984,0.00021766684150150133,"train",2780.0,"2021-12-01 08:40:17.549035","","","","","","",""
2.0,0.07669521123170853,0.00021960515087184485,"train",2800.0,"2021-12-01 08:40:21.312286","","","","","","",""
2.0,0.08023981004953384,0.00022155594111472978,"train",2820.0,"2021-12-01 08:40:25.095788","","","","","","",""
2.0,0.08957894146442413,0.0002235191825522959,"train",2840.0,"2021-12-01 08:40:29.242349","","","","","","",""
2.0,0.07716689258813858,0.00022549484531725838,"train",2860.0,"2021-12-01 08:40:33.007876","","","","","","",""
2.0,0.06984978169202805,0.00022748289935336434,"train",2880.0,"2021-12-01 08:40:36.682673","","","","","","",""
2.0,0.07998142391443253,0.00022948331441584964,"train",2900.0,"2021-12-01 08:40:40.260682","","","","","","",""
2.0,0.11429936438798904,0.00023149606007189785,"train",2920.0,"2021-12-01 08:40:44.253162","","","","","","",""
2.0,0.08951563388109207,0.00023352110570110476,"train",2940.0,"2021-12-01 08:40:47.817648","","","","","","",""
2.0,0.10693854093551636,0.00023555842049594305,"train",2960.0,"2021-12-01 08:40:51.472081","","","","","","",""
2.0,0.08452397584915161,0.00023760797346223305,"train",2980.0,"2021-12-01 08:40:55.405455","","","","","","",""
2.0,0.1035781130194664,0.00023966973341961028,"train",3000.0,"2021-12-01 08:40:58.945727","","","","","","",""
2.0,0.1070631593465805,0.0002417436690020044,"train",3020.0,"2021-12-01 08:41:02.672904","","","","","","",""
2.0,0.1154872477054596,0.00024382974865811325,"train",3040.0,"2021-12-01 08:41:06.786984","","","","","","",""
2.0,0.0945797935128212,0.000245927940651884,"train",3060.0,"2021-12-01 08:41:10.520930","","","","","","",""
2.0,0.08354996144771576,0.0002480382130629953,"train",3080.0,"2021-12-01 08:41:14.273403","","","","","","",""
2.0,0.08569405227899551,0.0002501605337873443,"train",3100.0,"2021-12-01 08:41:18.372512","","","","","","",""
2.0,0.0958741307258606,0.0002522948705375337,"train",3120.0,"2021-12-01 08:41:22.026719","","","","","","",""
2.0,0.09877676516771317,0.00025444119084336303,"train",3140.0,"2021-12-01 08:41:25.611299","","","","","","",""
2.0,0.11273867636919022,0.00025659946205232364,"train",3160.0,"2021-12-01 08:41:29.588943","","","","","","",""
2.0,0.11996586620807648,0.0002587696513300941,"train",3180.0,"2021-12-01 08:41:33.280491","","","","","","",""
2.0,0.06512203067541122,0.0002609517256610412,"train",3200.0,"2021-12-01 08:41:37.064773","","","","","","",""
2.0,0.10362973809242249,0.00026314565184872084,"train",3220.0,"2021-12-01 08:41:41.098474","","","","","","",""
2.0,"","","train",3222.0,"2021-12-01 08:43:21.889428",0.5036600451138762,0.45734018771011126,0.9201344289124592,0.502761767586722,0.34131746328603013,0.3439131350264272,0.23120201200230694
2.0,"","","val",3222.0,"2021-12-01 08:43:52.938289",0.5009277513626348,0.44414107998485963,0.9117681762137858,0.4942995170794022,0.3331592002028781,0.3348629530843753,0.2222508369919052
3.0,0.0841776430606842,0.0002653513965163838,"train",3240.0,"2021-12-01 08:44:00.259925","","","","","","",""
3.0,0.08083302527666092,0.0002675689261074836,"train",3260.0,"2021-12-01 08:44:03.859763","","","","","","",""
3.0,0.08696839213371277,0.00026979820688618605,"train",3280.0,"2021-12-01 08:44:07.458042","","","","","","",""
3.0,0.08697464317083359,0.00027203920493788433,"train",3300.0,"2021-12-01 08:44:11.536417","","","","","","",""
3.0,0.09265311062335968,0.00027429188616971277,"train",3320.0,"2021-12-01 08:44:15.144678","","","","","","",""
3.0,0.11374747008085251,0.0002765562163110668,"train",3340.0,"2021-12-01 08:44:18.737673","","","","","","",""
3.0,0.08773035556077957,0.00027883216091412503,"train",3360.0,"2021-12-01 08:44:22.764936","","","","","","",""
3.0,0.0919383317232132,0.0002811196853543707,"train",3380.0,"2021-12-01 08:44:26.367186","","","","","","",""
3.0,0.06962128728628159,0.00028341875483112134,"train",3400.0,"2021-12-01 08:44:29.951394","","","","","","",""
3.0,0.10751456767320633,0.00028572933436805644,"train",3420.0,"2021-12-01 08:44:33.918507","","","","","","",""
3.0,0.07626240700483322,0.0002880513888137504,"train",3440.0,"2021-12-01 08:44:37.509235","","","","","","",""
3.0,0.0875241756439209,0.0002903848828422063,"train",3460.0,"2021-12-01 08:44:41.112806","","","","","","",""
3.0,0.06782177835702896,0.00029272978095339465,"train",3480.0,"2021-12-01 08:44:45.101545","","","","","","",""
3.0,0.09230086207389832,0.00029508604747379243,"train",3500.0,"2021-12-01 08:44:48.695056","","","","","","",""
3.0,0.10935225337743759,0.00029745364655692653,"train",3520.0,"2021-12-01 08:44:52.292596","","","","","","",""
3.0,0.09889642149209976,0.0002998325421839181,"train",3540.0,"2021-12-01 08:44:56.275244","","","","","","",""
3.0,0.08353827893733978,0.0003022226981640318,"train",3560.0,"2021-12-01 08:44:59.892638","","","","","","",""
3.0,0.07413025200366974,0.00030462407813522494,"train",3580.0,"2021-12-01 08:45:03.613253","","","","","","",""
3.0,0.07915041595697403,0.0003070366455647027,"train",3600.0,"2021-12-01 08:45:07.688545","","","","","","",""
3.0,0.0821492150425911,0.000309460363749471,"train",3620.0,"2021-12-01 08:45:11.300742","","","","","","",""
3.0,0.058884087949991226,0.0003118951958168978,"train",3640.0,"2021-12-01 08:45:14.948516","","","","","","",""
3.0,0.0860409066081047,0.0003143411047252722,"train",3660.0,"2021-12-01 08:45:18.627665","","","","","","",""
3.0,0.0882304385304451,0.0003167980532643691,"train",3680.0,"2021-12-01 08:45:22.764234","","","","","","",""
3.0,0.1205146536231041,0.0003192660040560141,"train",3700.0,"2021-12-01 08:45:26.585636","","","","","","",""
3.0,0.07453210651874542,0.0003217449195546528,"train",3720.0,"2021-12-01 08:45:30.282866","","","","","","",""
3.0,0.06069658696651459,0.00032423476204792244,"train",3740.0,"2021-12-01 08:45:34.296767","","","","","","",""
3.0,0.07801305502653122,0.0003267354936572248,"train",3760.0,"2021-12-01 08:45:37.971446","","","","","","",""
3.0,0.08390866219997406,0.0003292470763383026,"train",3780.0,"2021-12-01 08:45:41.597927","","","","","","",""
3.0,0.08245085924863815,0.0003317694718818192,"train",3800.0,"2021-12-01 08:45:45.642068","","","","","","",""
3.0,0.0795840248465538,0.00033430264191393853,"train",3820.0,"2021-12-01 08:45:49.321274","","","","","","",""
3.0,0.08008375018835068,0.0003368465478969097,"train",3840.0,"2021-12-01 08:45:52.979443","","","","","","",""
3.0,0.07550118118524551,0.0003394011511296533,"train",3860.0,"2021-12-01 08:45:57.054022","","","","","","",""
3.0,0.09762056171894073,0.0003419664127483496,"train",3880.0,"2021-12-01 08:46:00.730336","","","","","","",""
3.0,0.07651590555906296,0.00034454229372703074,"train",3900.0,"2021-12-01 08:46:04.385664","","","","","","",""
3.0,0.07798261195421219,0.00034712875487817314,"train",3920.0,"2021-12-01 08:46:08.434400","","","","","","",""
3.0,0.09147476404905319,0.00034972575685329526,"train",3940.0,"2021-12-01 08:46:12.033512","","","","","","",""
3.0,0.08247562497854233,0.0003523332601435541,"train",3960.0,"2021-12-01 08:46:15.629570","","","","","","",""
3.0,0.09761085361242294,0.00035495122508034916,"train",3980.0,"2021-12-01 08:46:19.611741","","","","","","",""
3.0,0.1047753244638443,0.0003575796118359231,"train",4000.0,"2021-12-01 08:46:23.242230","","","","","","",""
3.0,0.09452507644891739,0.00036021838042396906,"train",4020.0,"2021-12-01 08:46:26.855405","","","","","","",""
3.0,0.05584106221795082,0.0003628674907002389,"train",4040.0,"2021-12-01 08:46:30.905381","","","","","","",""
3.0,0.0862005278468132,0.00036552690236315395,"train",4060.0,"2021-12-01 08:46:34.595379","","","","","","",""
3.0,0.10438435524702072,0.00036819657495441773,"train",4080.0,"2021-12-01 08:46:38.293713","","","","","","",""
3.0,0.09547017514705658,0.0003708764678596317,"train",4100.0,"2021-12-01 08:46:42.391609","","","","","","",""
3.0,0.07672133296728134,0.00037356654030891293,"train",4120.0,"2021-12-01 08:46:46.100965","","","","","","",""
3.0,0.06795404851436615,0.0003762667513775148,"train",4140.0,"2021-12-01 08:46:49.787717","","","","","","",""
3.0,0.08999917656183243,0.0003789770599864498,"train",4160.0,"2021-12-01 08:46:53.455052","","","","","","",""
3.0,0.0928569957613945,0.000381697424903113,"train",4180.0,"2021-12-01 08:46:57.463418","","","","","","",""
3.0,0.07714330404996872,0.0003844278047419108,"train",4200.0,"2021-12-01 08:47:01.136886","","","","","","",""
3.0,0.07472339272499084,0.0003871681579648903,"train",4220.0,"2021-12-01 08:47:04.793282","","","","","","",""
3.0,0.08929645270109177,0.0003899184428823709,"train",4240.0,"2021-12-01 08:47:08.807988","","","","","","",""
3.0,0.07937126606702805,0.0003926786176535783,"train",4260.0,"2021-12-01 08:47:12.381930","","","","","","",""
3.0,0.08945001661777496,0.0003954486402872818,"train",4280.0,"2021-12-01 08:47:16.064939","","","","","","",""
3.0,"","","train",4296.0,"2021-12-01 08:48:59.223791",0.5299425161900604,0.4921537141754856,0.9270602804385474,0.5140094694231099,0.3612440051726227,0.36644098750468734,0.24458248088857545
3.0,"","","val",4296.0,"2021-12-01 08:49:31.148734",0.5205264988982953,0.4739523297457685,0.918690704026723,0.5008608277415996,0.35444288222750997,0.3555354014690445,0.23649304502824633
4.0,0.0659060925245285,0.0003982284686424324,"train",4300.0,"2021-12-01 08:49:35.258305","","","","","","",""
4.0,0.10750383883714676,0.0004010180604288045,"train",4320.0,"2021-12-01 08:49:39.084470","","","","","","",""
4.0,0.0780068188905716,0.00040381737320763873,"train",4340.0,"2021-12-01 08:49:42.797117","","","","","","",""
4.0,0.10424215346574783,0.0004066263643922878,"train",4360.0,"2021-12-01 08:49:46.968228","","","","","","",""
4.0,0.09059415012598038,0.0004094449912488646,"train",4380.0,"2021-12-01 08:49:50.643193","","","","","","",""
4.0,0.09182248264551163,0.0004122732108968923,"train",4400.0,"2021-12-01 08:49:54.307064","","","","","","",""
4.0,0.07720597088336945,0.0004151109803099558,"train",4420.0,"2021-12-01 08:49:58.376935","","","","","","",""
4.0,0.07480897754430771,0.00041795825631635764,"train",4440.0,"2021-12-01 08:50:02.049928","","","","","","",""
4.0,0.08507847785949707,0.0004208149955997739,"train",4460.0,"2021-12-01 08:50:05.767132","","","","","","",""
4.0,0.10099901258945465,0.0004236811546999141,"train",4480.0,"2021-12-01 08:50:09.923714","","","","","","",""
4.0,0.06366276741027832,0.0004265566900131805,"train",4500.0,"2021-12-01 08:50:13.560429","","","","","","",""
4.0,0.10582437366247177,0.0004294415577933337,"train",4520.0,"2021-12-01 08:50:17.154616","","","","","","",""
4.0,0.06167472526431084,0.00043233571415215717,"train",4540.0,"2021-12-01 08:50:21.214851","","","","","","",""
4.0,0.08204124867916107,0.0004352391150601242,"train",4560.0,"2021-12-01 08:50:24.885360","","","","","","",""
4.0,0.0795944333076477,0.0004381517163470684,"train",4580.0,"2021-12-01 08:50:28.570617","","","","","","",""
4.0,0.07710448652505875,0.00044107347370285683,"train",4600.0,"2021-12-01 08:50:32.230424","","","","","","",""
4.0,0.05623944476246834,0.00044400434267806194,"train",4620.0,"2021-12-01 08:50:36.332919","","","","","","",""
4.0,0.0990564227104187,0.00044694427868463907,"train",4640.0,"2021-12-01 08:50:40.036086","","","","","","",""
4.0,0.057209163904190063,0.00044989323699660467,"train",4660.0,"2021-12-01 08:50:43.620699","","","","","","",""
4.0,0.08660370856523514,0.0004528511727507165,"train",4680.0,"2021-12-01 08:50:47.629091","","","","","","",""
4.0,0.1114087700843811,0.00045581804094715645,"train",4700.0,"2021-12-01 08:50:51.292095","","","","","","",""
4.0,0.06974544376134872,0.00045879379645021425,"train",4720.0,"2021-12-01 08:50:54.940534","","","","","","",""
4.0,0.08504805713891983,0.0004617783939889759,"train",4740.0,"2021-12-01 08:50:59.022807","","","","","","",""
4.0,0.07318082451820374,0.0004647717881580103,"train",4760.0,"2021-12-01 08:51:02.708435","","","","","","",""
4.0,0.08078551292419434,0.0004677739334180617,"train",4780.0,"2021-12-01 08:51:06.376818","","","","","","",""
4.0,0.07305267453193665,0.00047078478409674144,"train",4800.0,"2021-12-01 08:51:10.378668","","","","","","",""
4.0,0.08612897247076035,0.00047380429438922305,"train",4820.0,"2021-12-01 08:51:14.027867","","","","","","",""
4.0,0.07278070598840714,0.00047683241835893946,"train",4840.0,"2021-12-01 08:51:17.725178","","","","","","",""
4.0,0.08721931278705597,0.0004798691099382815,"train",4860.0,"2021-12-01 08:51:21.778545","","","","","","",""
4.0,0.07984546571969986,0.0004829143229292986,"train",4880.0,"2021-12-01 08:51:25.420117","","","","","","",""
4.0,0.06223461776971817,0.0004859680110044023,"train",4900.0,"2021-12-01 08:51:29.107715","","","","","","",""
4.0,0.09529632329940796,0.0004890301277070699,"train",4920.0,"2021-12-01 08:51:33.009289","","","","","","",""
4.0,0.07797757536172867,0.0004921006264525525,"train",4940.0,"2021-12-01 08:51:36.471193","","","","","","",""
4.0,0.06848154962062836,0.0004951794605285824,"train",4960.0,"2021-12-01 08:51:39.991386","","","","","","",""
4.0,0.07579131424427032,0.0004982665830960853,"train",4980.0,"2021-12-01 08:51:43.583870","","","","","","",""
4.0,0.06213605776429176,0.0005013619471898913,"train",5000.0,"2021-12-01 08:51:47.622345","","","","","","",""
4.0,0.09735332429409027,0.0005044655057194504,"train",5020.0,"2021-12-01 08:51:51.197343","","","","","","",""
4.0,0.0791923776268959,0.0005075772114695486,"train",5040.0,"2021-12-01 08:51:54.752691","","","","","","",""
4.0,0.09064092487096786,0.0005106970171010257,"train",5060.0,"2021-12-01 08:51:58.618054","","","","","","",""
4.0,0.06839413940906525,0.0005138248751514966,"train",5080.0,"2021-12-01 08:52:02.063481","","","","","","",""
4.0,0.08297842741012573,0.0005169607380360731,"train",5100.0,"2021-12-01 08:52:05.575987","","","","","","",""
4.0,0.07459737360477448,0.000520104558048086,"train",5120.0,"2021-12-01 08:52:09.525348","","","","","","",""
4.0,0.06780944019556046,0.0005232562873598136,"train",5140.0,"2021-12-01 08:52:13.195727","","","","","","",""
4.0,0.08815448731184006,0.0005264158780232072,"train",5160.0,"2021-12-01 08:52:16.804433","","","","","","",""
4.0,0.08454974740743637,0.0005295832819706228,"train",5180.0,"2021-12-01 08:52:20.669948","","","","","","",""
4.0,0.08688457310199738,0.0005327584510155488,"train",5200.0,"2021-12-01 08:52:24.151513","","","","","","",""
4.0,0.056600186973810196,0.000535941336853343,"train",5220.0,"2021-12-01 08:52:27.654481","","","","","","",""
4.0,0.10165688395500183,0.0005391318910619655,"train",5240.0,"2021-12-01 08:52:31.593162","","","","","","",""
4.0,0.06443147361278534,0.0005423300651027144,"train",5260.0,"2021-12-01 08:52:35.260278","","","","","","",""
4.0,0.049498166888952255,0.0005455358103209663,"train",5280.0,"2021-12-01 08:52:38.931956","","","","","","",""
4.0,0.08822423219680786,0.0005487490779469157,"train",5300.0,"2021-12-01 08:52:42.932098","","","","","","",""
4.0,0.10628623515367508,0.000551969819096316,"train",5320.0,"2021-12-01 08:52:46.569982","","","","","","",""
4.0,0.057744547724723816,0.0005551979847712252,"train",5340.0,"2021-12-01 08:52:50.224922","","","","","","",""
4.0,0.10229866951704025,0.0005584335258607489,"train",5360.0,"2021-12-01 08:52:54.246321","","","","","","",""
4.0,"","","train",5370.0,"2021-12-01 08:54:37.510680",0.556472385941934,0.5229406803673127,0.933406353778784,0.5492545335192475,0.3931211093452012,0.39970252910245085,0.26913555505318426
4.0,"","","val",5370.0,"2021-12-01 08:55:05.289979",0.5462715992114113,0.500090617623098,0.9239588567499984,0.5353397052046572,0.3807254162662034,0.3840168272685704,0.2558185960863374
5.0,0.0768805593252182,0.0005616763931417894,"train",5380.0,"2021-12-01 08:55:10.500315","","","","","","",""
5.0,0.06489585340023041,0.0005649265372797939,"train",5400.0,"2021-12-01 08:55:14.222848","","","","","","",""
5.0,0.055090948939323425,0.0005681839088295046,"train",5420.0,"2021-12-01 08:55:18.064651","","","","","","",""
5.0,0.06338495016098022,0.0005714484582357109,"train",5440.0,"2021-12-01 08:55:22.363861","","","","","","",""
5.0,0.08611562848091125,0.0005747201358340048,"train",5460.0,"2021-12-01 08:55:26.034871","","","","","","",""
5.0,0.06927476823329926,0.0005779988918515344,"train",5480.0,"2021-12-01 08:55:29.669739","","","","","","",""
5.0,0.06606046110391617,0.0005812846764077623,"train",5500.0,"2021-12-01 08:55:33.680070","","","","","","",""
5.0,0.06664982438087463,0.0005845774395152243,"train",5520.0,"2021-12-01 08:55:37.314013","","","","","","",""
5.0,0.05496154725551605,0.0005878771310802895,"train",5540.0,"2021-12-01 08:55:40.943824","","","","","","",""
5.0,0.08917851001024246,0.0005911837009039229,"train",5560.0,"2021-12-01 08:55:45.064005","","","","","","",""
5.0,0.06175768002867699,0.0005944970986824485,"train",5580.0,"2021-12-01 08:55:48.819770","","","","","","",""
5.0,0.08093224465847015,0.000597817274008315,"train",5600.0,"2021-12-01 08:55:52.522442","","","","","","",""
5.0,0.09741046279668808,0.0006011441763708635,"train",5620.0,"2021-12-01 08:55:56.571761","","","","","","",""
5.0,0.11388707906007767,0.0006044777551570929,"train",5640.0,"2021-12-01 08:56:00.261258","","","","","","",""
5.0,0.08572738617658615,0.000607817959652434,"train",5660.0,"2021-12-01 08:56:03.929459","","","","","","",""
5.0,0.07960468530654907,0.0006111647390415189,"train",5680.0,"2021-12-01 08:56:07.992158","","","","","","",""
5.0,0.10432664304971695,0.0006145180424089525,"train",5700.0,"2021-12-01 08:56:11.651484","","","","","","",""
5.0,0.09998761117458344,0.0006178778187400902,"train",5720.0,"2021-12-01 08:56:15.320069","","","","","","",""
5.0,0.09739630669355392,0.0006212440169218129,"train",5740.0,"2021-12-01 08:56:19.396864","","","","","","",""
5.0,0.037771232426166534,0.0006246165857433027,"train",5760.0,"2021-12-01 08:56:23.091943","","","","","","",""
5.0,0.07772869616746902,0.0006279954738968251,"train",5780.0,"2021-12-01 08:56:26.823737","","","","","","",""
5.0,0.08176607638597488,0.0006313806299785075,"train",5800.0,"2021-12-01 08:56:30.974052","","","","","","",""
5.0,0.07127510011196136,0.0006347720024891209,"train",5820.0,"2021-12-01 08:56:34.746188","","","","","","",""
5.0,0.10083406418561935,0.0006381695398348657,"train",5840.0,"2021-12-01 08:56:38.540024","","","","","","",""
5.0,0.08449318259954453,0.0006415731903281542,"train",5860.0,"2021-12-01 08:56:42.671159","","","","","","",""
5.0,0.06372245401144028,0.0006449829021883979,"train",5880.0,"2021-12-01 08:56:46.403231","","","","","","",""
5.0,0.07928329706192017,0.0006483986235427956,"train",5900.0,"2021-12-01 08:56:50.129498","","","","","","",""
5.0,0.0731102004647255,0.0006518203024271213,"train",5920.0,"2021-12-01 08:56:53.857254","","","","","","",""
5.0,0.09069787710905075,0.0006552478867865169,"train",5940.0,"2021-12-01 08:56:57.986963","","","","","","",""
5.0,0.0617118738591671,0.0006586813244762815,"train",5960.0,"2021-12-01 08:57:01.697648","","","","","","",""
5.0,0.07804540544748306,0.0006621205632626672,"train",5980.0,"2021-12-01 08:57:05.387213","","","","","","",""
5.0,0.11297348886728287,0.0006655655508236717,"train",6000.0,"2021-12-01 08:57:09.446385","","","","","","",""
5.0,0.05812184885144234,0.0006690162347498356,"train",6020.0,"2021-12-01 08:57:13.125498","","","","","","",""
5.0,0.08213970810174942,0.0006724725625450389,"train",6040.0,"2021-12-01 08:57:16.834966","","","","","","",""
5.0,0.07864516973495483,0.0006759344816273003,"train",6060.0,"2021-12-01 08:57:20.915481","","","","","","",""
5.0,0.07775115966796875,0.0006794019393295771,"train",6080.0,"2021-12-01 08:57:24.627463","","","","","","",""
5.0,0.0757150873541832,0.0006828748829005654,"train",6100.0,"2021-12-01 08:57:28.354965","","","","","","",""
5.0,0.07502065598964691,0.0006863532595055041,"train",6120.0,"2021-12-01 08:57:32.446906","","","","","","",""
5.0,0.10051621496677399,0.0006898370162269777,"train",6140.0,"2021-12-01 08:57:36.093501","","","","","","",""
5.0,0.05442465841770172,0.0006933261000657217,"train",6160.0,"2021-12-01 08:57:39.841079","","","","","","",""
5.0,0.08363401889801025,0.000696820457941429,"train",6180.0,"2021-12-01 08:57:44.039103","","","","","","",""
5.0,0.05621839687228203,0.000700320036693557,"train",6200.0,"2021-12-01 08:57:47.745656","","","","","","",""
5.0,0.08735362440347672,0.0007038247830821358,"train",6220.0,"2021-12-01 08:57:51.467174","","","","","","",""
5.0,0.07399473339319229,0.0007073346437885815,"train",6240.0,"2021-12-01 08:57:55.477675","","","","","","",""
5.0,0.08387572318315506,0.000710849565416502,"train",6260.0,"2021-12-01 08:57:59.117930","","","","","","",""
5.0,0.07673096656799316,0.0007143694944925134,"train",6280.0,"2021-12-01 08:58:02.740079","","","","","","",""
5.0,0.08440015465021133,0.0007178943774670524,"train",6300.0,"2021-12-01 08:58:06.364320","","","","","","",""
5.0,0.06910644471645355,0.0007214241607151901,"train",6320.0,"2021-12-01 08:58:10.376685","","","","","","",""
5.0,0.08341538161039352,0.000724958790537449,"train",6340.0,"2021-12-01 08:58:14.106421","","","","","","",""
5.0,0.0862388089299202,0.0007284982131606195,"train",6360.0,"2021-12-01 08:58:17.705100","","","","","","",""
5.0,0.10168267786502838,0.0007320423747385781,"train",6380.0,"2021-12-01 08:58:21.718405","","","","","","",""
5.0,0.07709576934576035,0.0007355912213531054,"train",6400.0,"2021-12-01 08:58:25.445147","","","","","","",""
5.0,0.08185284584760666,0.000739144699014708,"train",6420.0,"2021-12-01 08:58:29.149228","","","","","","",""
5.0,0.0860641598701477,0.0007427027536634401,"train",6440.0,"2021-12-01 08:58:33.183768","","","","","","",""
5.0,"","","train",6444.0,"2021-12-01 09:00:15.712108",0.5678090664338209,0.5565456964887093,0.9427087219189777,0.5842950784039849,0.4255344936878011,0.4411066464758839,0.29021210878744336
5.0,"","","val",6444.0,"2021-12-01 09:00:42.878348",0.5534616722718312,0.5265327782946818,0.9346329515633448,0.5666191178397925,0.408287635678481,0.41983394774042987,0.2744143688251874
6.0,0.06166830658912659,0.0007462653311697235,"train",6460.0,"2021-12-01 09:00:49.213841","","","","","","",""
6.0,0.1011841669678688,0.0007498323773351733,"train",6480.0,"2021-12-01 09:00:52.851921","","","","","","",""
6.0,0.07108435779809952,0.0007534038378934223,"train",6500.0,"2021-12-01 09:00:57.002821","","","","","","",""
6.0,0.09468567371368408,0.0007569796585109453,"train",6520.0,"2021-12-01 09:01:00.641359","","","","","","",""
6.0,0.0715009793639183,0.0007605597847878862,"train",6540.0,"2021-12-01 09:01:04.261057","","","","","","",""
6.0,0.08257078379392624,0.0007641441622588871,"train",6560.0,"2021-12-01 09:01:08.240624","","","","","","",""
6.0,0.08074212074279785,0.0007677327363939143,"train",6580.0,"2021-12-01 09:01:11.789117","","","","","","",""
6.0,0.09038983285427094,0.0007713254525990895,"train",6600.0,"2021-12-01 09:01:15.409176","","","","","","",""
6.0,0.06862752139568329,0.0007749222562175211,"train",6620.0,"2021-12-01 09:01:19.522990","","","","","","",""
6.0,0.06576237827539444,0.000778523092530133,"train",6640.0,"2021-12-01 09:01:23.367825","","","","","","",""
6.0,0.07175971567630768,0.0007821279067564996,"train",6660.0,"2021-12-01 09:01:27.080217","","","","","","",""
6.0,0.07819174230098724,0.0007857366440556786,"train",6680.0,"2021-12-01 09:01:30.785483","","","","","","",""
6.0,0.06236566603183746,0.0007893492495270442,"train",6700.0,"2021-12-01 09:01:34.853220","","","","","","",""
6.0,0.07181905210018158,0.0007929656682111239,"train",6720.0,"2021-12-01 09:01:38.536917","","","","","","",""
6.0,0.0586809404194355,0.0007965858450904332,"train",6740.0,"2021-12-01 09:01:42.231456","","","","","","",""
6.0,0.08260921388864517,0.000800209725090314,"train",6760.0,"2021-12-01 09:01:46.350998","","","","","","",""
6.0,0.0856732428073883,0.0008038372530797706,"train",6780.0,"2021-12-01 09:01:50.048865","","","","","","",""
6.0,0.06765861809253693,0.0008074683738723109,"train",6800.0,"2021-12-01 09:01:53.714519","","","","","","",""
6.0,0.09039624035358429,0.0008111030322267832,"train",6820.0,"2021-12-01 09:01:57.707639","","","","","","",""
6.0,0.09722299128770828,0.0008147411728482187,"train",6840.0,"2021-12-01 09:02:01.326945","","","","","","",""
6.0,0.06928205490112305,0.0008183827403886721,"train",6860.0,"2021-12-01 09:02:04.892473","","","","","","",""
6.0,0.06468106806278229,0.0008220276794480633,"train",6880.0,"2021-12-01 09:02:08.850313","","","","","","",""
6.0,0.06430293619632721,0.0008256759345750203,"train",6900.0,"2021-12-01 09:02:12.448670","","","","","","",""
6.0,0.0679640993475914,0.0008293274502677234,"train",6920.0,"2021-12-01 09:02:15.912072","","","","","","",""
6.0,0.07203631848096848,0.0008329821709747486,"train",6940.0,"2021-12-01 09:02:19.796181","","","","","","",""
6.0,0.050742167979478836,0.0008366400410959136,"train",6960.0,"2021-12-01 09:02:23.300269","","","","","","",""
6.0,0.08836811035871506,0.000840301004983123,"train",6980.0,"2021-12-01 09:02:27.035427","","","","","","",""
6.0,0.10488039255142212,0.0008439650069412147,"train",7000.0,"2021-12-01 09:02:30.909068","","","","","","",""
6.0,0.05376424267888069,0.0008476319912288095,"train",7020.0,"2021-12-01 09:02:34.419634","","","","","","",""
6.0,0.08804372698068619,0.0008513019020591544,"train",7040.0,"2021-12-01 09:02:38.062728","","","","","","",""
6.0,0.06326059997081757,0.0008549746836009771,"train",7060.0,"2021-12-01 09:02:42.072783","","","","","","",""
6.0,0.10046647489070892,0.0008586502799793306,"train",7080.0,"2021-12-01 09:02:45.772666","","","","","","",""
6.0,0.08584026247262955,0.0008623286352764453,"train",7100.0,"2021-12-01 09:02:49.436834","","","","","","",""
6.0,0.08325105160474777,0.0008660096935325802,"train",7120.0,"2021-12-01 09:02:53.124546","","","","","","",""
6.0,0.09955000877380371,0.0008696933987468731,"train",7140.0,"2021-12-01 09:02:57.218918","","","","","","",""
6.0,0.06293362379074097,0.0008733796948781924,"train",7160.0,"2021-12-01 09:03:00.900015","","","","","","",""
6.0,0.08258926868438721,0.0008770685258459915,"train",7180.0,"2021-12-01 09:03:04.589428","","","","","","",""
6.0,0.10657321661710739,0.0008807598355311595,"train",7200.0,"2021-12-01 09:03:08.658738","","","","","","",""
6.0,0.07339027523994446,0.0008844535677768764,"train",7220.0,"2021-12-01 09:03:12.291012","","","","","","",""
6.0,0.05857214704155922,0.0008881496663894681,"train",7240.0,"2021-12-01 09:03:15.824612","","","","","","",""
6.0,0.10404343903064728,0.0008918480751392592,"train",7260.0,"2021-12-01 09:03:19.660171","","","","","","",""
6.0,0.07619094103574753,0.00089554873776143,"train",7280.0,"2021-12-01 09:03:23.239218","","","","","","",""
6.0,0.08998524397611618,0.0008992515979568724,"train",7300.0,"2021-12-01 09:03:26.788413","","","","","","",""
6.0,0.08741028606891632,0.0009029565993930457,"train",7320.0,"2021-12-01 09:03:30.845746","","","","","","",""
6.0,0.07653786987066269,0.0009066636857048339,"train",7340.0,"2021-12-01 09:03:34.493682","","","","","","",""
6.0,0.05546332523226738,0.0009103728004954039,"train",7360.0,"2021-12-01 09:03:38.151136","","","","","","",""
6.0,0.057312026619911194,0.0009140838873370617,"train",7380.0,"2021-12-01 09:03:42.198963","","","","","","",""
6.0,0.1119031310081482,0.0009177968897721136,"train",7400.0,"2021-12-01 09:03:45.881338","","","","","","",""
6.0,0.07607877254486084,0.0009215117513137218,"train",7420.0,"2021-12-01 09:03:49.577083","","","","","","",""
6.0,0.0775163322687149,0.0009252284154467663,"train",7440.0,"2021-12-01 09:03:53.650106","","","","","","",""
6.0,0.06648992002010345,0.0009289468256287042,"train",7460.0,"2021-12-01 09:03:57.338861","","","","","","",""
6.0,0.0838928371667862,0.0009326669252904287,"train",7480.0,"2021-12-01 09:04:00.985452","","","","","","",""
6.0,0.08159823715686798,0.0009363886578371307,"train",7500.0,"2021-12-01 09:04:04.994283","","","","","","",""
6.0,"","","train",7518.0,"2021-12-01 09:05:48.973210",0.5864803900167358,0.5827299414932484,0.9466578681460509,0.590706006171102,0.4587542886960186,0.47262769419332795,0.3147962357609723
6.0,"","","val",7518.0,"2021-12-01 09:06:16.272151",0.5643627507827902,0.5471923542063523,0.9370685219616058,0.5648770069298974,0.43548513618226203,0.44463536790480285,0.29149880751414553
7.0,0.06061386317014694,0.0009401119666491604,"train",7520.0,"2021-12-01 09:06:19.942014","","","","","","",""
7.0,0.0987204983830452,0.0009438367950828869,"train",7540.0,"2021-12-01 09:06:23.733597","","","","","","",""
7.0,0.07507911324501038,0.000947563086471561,"train",7560.0,"2021-12-01 09:06:27.792701","","","","","","",""
7.0,0.04728318378329277,0.0009512907841261783,"train",7580.0,"2021-12-01 09:06:31.406688","","","","","","",""
7.0,0.0943671390414238,0.0009550198313363391,"train",7600.0,"2021-12-01 09:06:35.006581","","","","","","",""
7.0,0.10232193768024445,0.0009587501713711128,"train",7620.0,"2021-12-01 09:06:38.611932","","","","","","",""
7.0,0.09663063287734985,0.0009624817474799023,"train",7640.0,"2021-12-01 09:06:42.659388","","","","","","",""
7.0,0.07083934545516968,0.0009662145028933038,"train",7660.0,"2021-12-01 09:06:46.316379","","","","","","",""
7.0,0.08464568853378296,0.0009699483808239733,"train",7680.0,"2021-12-01 09:06:50.029085","","","","","","",""
7.0,0.07088150829076767,0.0009736833244674895,"train",7700.0,"2021-12-01 09:06:53.969315","","","","","","",""
7.0,0.10283679515123367,0.0009774192770032192,"train",7720.0,"2021-12-01 09:06:57.520376","","","","","","",""
7.0,0.08497968316078186,0.0009811561815951785,"train",7740.0,"2021-12-01 09:07:01.095630","","","","","","",""
7.0,0.08238714188337326,0.0009848939813929015,"train",7760.0,"2021-12-01 09:07:05.046664","","","","","","",""
7.0,0.06179528310894966,0.0009886326195323026,"train",7780.0,"2021-12-01 09:07:08.614105","","","","","","",""
7.0,0.11549590528011322,0.0009923720391365428,"train",7800.0,"2021-12-01 09:07:12.186112","","","","","","",""
7.0,0.06583211570978165,0.000996112183316893,"train",7820.0,"2021-12-01 09:07:16.118945","","","","","","",""
7.0,0.06654892861843109,0.0009998529951736029,"train",7840.0,"2021-12-01 09:07:19.775210","","","","","","",""
7.0,0.057441595941782,0.0010035944177967638,"train",7860.0,"2021-12-01 09:07:23.414278","","","","","","",""
7.0,0.05183990299701691,0.0010073363942671744,"train",7880.0,"2021-12-01 09:07:27.474603","","","","","","",""
7.0,0.053751733154058456,0.0010110788676572094,"train",7900.0,"2021-12-01 09:07:31.138710","","","","","","",""
7.0,0.06419207900762558,0.0010148217810316822,"train",7920.0,"2021-12-01 09:07:34.742433","","","","","","",""
7.0,0.06887892633676529,0.0010185650774487127,"train",7940.0,"2021-12-01 09:07:38.677692","","","","","","",""
7.0,0.0705152377486229,0.0010223086999605951,"train",7960.0,"2021-12-01 09:07:42.287167","","","","","","",""
7.0,0.05383574590086937,0.0010260525916146609,"train",7980.0,"2021-12-01 09:07:45.910300","","","","","","",""
7.0,0.06378110498189926,0.0010297966954541469,"train",8000.0,"2021-12-01 09:07:49.512696","","","","","","",""
7.0,0.09191378951072693,0.001033540954519064,"train",8020.0,"2021-12-01 09:07:53.494970","","","","","","",""
7.0,0.054018501192331314,0.0010372853118470592,"train",8040.0,"2021-12-01 09:07:57.117113","","","","","","",""
7.0,0.05316212773323059,0.0010410297104742857,"train",8060.0,"2021-12-01 09:08:00.700692","","","","","","",""
7.0,0.08537410199642181,0.0010447740934362692,"train",8080.0,"2021-12-01 09:08:04.650876","","","","","","",""
7.0,0.09768807142972946,0.0010485184037687715,"train",8100.0,"2021-12-01 09:08:08.255846","","","","","","",""
7.0,0.09475162625312805,0.0010522625845086615,"train",8120.0,"2021-12-01 09:08:11.927182","","","","","","",""
7.0,0.10804621130228043,0.0010560065786947796,"train",8140.0,"2021-12-01 09:08:15.946613","","","","","","",""
7.0,0.05894908681511879,0.0010597503293688013,"train",8160.0,"2021-12-01 09:08:19.611161","","","","","","",""
7.0,0.08697135001420975,0.001063493779576111,"train",8180.0,"2021-12-01 09:08:23.275150","","","","","","",""
7.0,0.08508135378360748,0.0010672368723666614,"train",8200.0,"2021-12-01 09:08:27.380007","","","","","","",""
7.0,0.06387970596551895,0.0010709795507958426,"train",8220.0,"2021-12-01 09:08:31.095751","","","","","","",""
7.0,0.07954929769039154,0.0010747217579253504,"train",8240.0,"2021-12-01 09:08:34.818988","","","","","","",""
7.0,0.06373953074216843,0.0010784634368240487,"train",8260.0,"2021-12-01 09:08:38.849230","","","","","","",""
7.0,0.05955420807003975,0.0010822045305688382,"train",8280.0,"2021-12-01 09:08:42.502071","","","","","","",""
7.0,0.06503549218177795,0.0010859449822455227,"train",8300.0,"2021-12-01 09:08:46.023551","","","","","","",""
7.0,0.09499616920948029,0.001089684734949672,"train",8320.0,"2021-12-01 09:08:49.947802","","","","","","",""
7.0,0.07511189579963684,0.00109342373178749,"train",8340.0,"2021-12-01 09:08:53.618279","","","","","","",""
7.0,0.06259072571992874,0.0010971619158766821,"train",8360.0,"2021-12-01 09:08:57.270696","","","","","","",""
7.0,0.0725918859243393,0.0011008992303473152,"train",8380.0,"2021-12-01 09:09:00.944227","","","","","","",""
7.0,0.09829101711511612,0.001104635618342687,"train",8400.0,"2021-12-01 09:09:04.912748","","","","","","",""
7.0,0.06842587888240814,0.001108371023020191,"train",8420.0,"2021-12-01 09:09:08.475766","","","","","","",""
7.0,0.07361628115177155,0.0011121053875521787,"train",8440.0,"2021-12-01 09:09:12.113739","","","","","","",""
7.0,0.10452989488840103,0.0011158386551268257,"train",8460.0,"2021-12-01 09:09:16.092899","","","","","","",""
7.0,0.08080688863992691,0.0011195707689489972,"train",8480.0,"2021-12-01 09:09:19.638145","","","","","","",""
7.0,0.05766100436449051,0.0011233016722411097,"train",8500.0,"2021-12-01 09:09:23.196688","","","","","","",""
7.0,0.08327972888946533,0.0011270313082439951,"train",8520.0,"2021-12-01 09:09:27.159948","","","","","","",""
7.0,0.06419295817613602,0.001130759620217767,"train",8540.0,"2021-12-01 09:09:30.710447","","","","","","",""
7.0,0.05089070275425911,0.0011344865514426794,"train",8560.0,"2021-12-01 09:09:34.283348","","","","","","",""
7.0,0.07698452472686768,0.0011382120452199938,"train",8580.0,"2021-12-01 09:09:38.287617","","","","","","",""
7.0,"","","train",8592.0,"2021-12-01 09:11:21.205661",0.6018191079094812,0.5955984312141308,0.9516434813282848,0.6090818701503433,0.4634980989728438,0.48450610622330603,0.32139746341280867
7.0,"","","val",8592.0,"2021-12-01 09:11:52.070697",0.5847152963005915,0.5596927839293112,0.9411274152233846,0.5867611840560407,0.44248118353006716,0.46123719203764446,0.30019827104791885
8.0,0.047454964369535446,0.001141936044872839,"train",8600.0,"2021-12-01 09:11:56.977611","","","","","","",""
8.0,0.07152415812015533,0.0011456584937470744,"train",8620.0,"2021-12-01 09:12:00.691590","","","","","","",""
8.0,0.08425412327051163,0.0011493793352121522,"train",8640.0,"2021-12-01 09:12:04.836084","","","","","","",""
8.0,0.07075905054807663,0.0011530985126619784,"train",8660.0,"2021-12-01 09:12:08.316702","","","","","","",""
8.0,0.06139453500509262,0.001156815969515773,"train",8680.0,"2021-12-01 09:12:11.813605","","","","","","",""
8.0,0.08120159059762955,0.001160531649218934,"train",8700.0,"2021-12-01 09:12:15.757855","","","","","","",""
8.0,0.09375796467065811,0.001164245495243894,"train",8720.0,"2021-12-01 09:12:19.464324","","","","","","",""
8.0,0.08236777037382126,0.0011679574510909817,"train",8740.0,"2021-12-01 09:12:23.150417","","","","","","",""
8.0,0.06452353298664093,0.0011716674602892828,"train",8760.0,"2021-12-01 09:12:27.274888","","","","","","",""
8.0,0.06879524886608124,0.0011753754663974968,"train",8780.0,"2021-12-01 09:12:31.003322","","","","","","",""
8.0,0.09601336717605591,0.0011790814130047968,"train",8800.0,"2021-12-01 09:12:34.777667","","","","","","",""
8.0,0.07167330384254456,0.001182785243731688,"train",8820.0,"2021-12-01 09:12:38.812012","","","","","","",""
8.0,0.05251816287636757,0.0011864869022308656,"train",8840.0,"2021-12-01 09:12:42.472407","","","","","","",""
8.0,0.0644763633608818,0.0011901863321880693,"train",8860.0,"2021-12-01 09:12:46.154740","","","","","","",""
8.0,0.09068642556667328,0.001193883477322945,"train",8880.0,"2021-12-01 09:12:49.737406","","","","","","",""
8.0,0.07977422326803207,0.0011975782813898961,"train",8900.0,"2021-12-01 09:12:53.790790","","","","","","",""
8.0,0.11431489139795303,0.0012012706881789417,"train",8920.0,"2021-12-01 09:12:57.370658","","","","","","",""
8.0,0.04249244183301926,0.001204960641516572,"train",8940.0,"2021-12-01 09:13:01.021314","","","","","","",""
8.0,0.08445952832698822,0.0012086480852666014,"train",8960.0,"2021-12-01 09:13:05.030532","","","","","","",""
8.0,0.06282338500022888,0.0012123329633310235,"train",8980.0,"2021-12-01 09:13:08.608969","","","","","","",""
8.0,0.04112657904624939,0.0012160152196508643,"train",9000.0,"2021-12-01 09:13:12.238861","","","","","","",""
8.0,0.06165268272161484,0.0012196947982070355,"train",9020.0,"2021-12-01 09:13:16.229950","","","","","","",""
8.0,0.05326502397656441,0.0012233716430211856,"train",9040.0,"2021-12-01 09:13:19.830082","","","","","","",""
8.0,0.04719674587249756,0.001227045698156553,"train",9060.0,"2021-12-01 09:13:23.514490","","","","","","",""
8.0,0.0876879170536995,0.0012307169077188148,"train",9080.0,"2021-12-01 09:13:27.552543","","","","","","",""
8.0,0.0553826279938221,0.0012343852158569401,"train",9100.0,"2021-12-01 09:13:31.216402","","","","","","",""
8.0,0.09273990988731384,0.0012380505667640377,"train",9120.0,"2021-12-01 09:13:34.913752","","","","","","",""
8.0,0.06448358297348022,0.0012417129046782046,"train",9140.0,"2021-12-01 09:13:38.946461","","","","","","",""
8.0,0.059699345380067825,0.0012453721738833758,"train",9160.0,"2021-12-01 09:13:42.607456","","","","","","",""
8.0,0.09685901552438736,0.001249028318710172,"train",9180.0,"2021-12-01 09:13:47.076544","","","","","","",""
8.0,0.05287003889679909,0.0012526812835367447,"train",9200.0,"2021-12-01 09:13:51.166812","","","","","","",""
8.0,0.061948131769895554,0.0012563310127896242,"train",9220.0,"2021-12-01 09:13:54.838035","","","","","","",""
8.0,0.09876440465450287,0.0012599774509445645,"train",9240.0,"2021-12-01 09:13:58.452989","","","","","","",""
8.0,0.06529645621776581,0.0012636205425273874,"train",9260.0,"2021-12-01 09:14:02.488033","","","","","","",""
8.0,0.06959173828363419,0.0012672602321148268,"train",9280.0,"2021-12-01 09:14:06.092839","","","","","","",""
8.0,0.052105631679296494,0.0012708964643353732,"train",9300.0,"2021-12-01 09:14:09.752373","","","","","","",""
8.0,0.07068589329719543,0.001274529183870114,"train",9320.0,"2021-12-01 09:14:13.348455","","","","","","",""
8.0,0.062437307089567184,0.0012781583354535748,"train",9340.0,"2021-12-01 09:14:17.290082","","","","","","",""
8.0,0.0959644466638565,0.0012817838638745646,"train",9360.0,"2021-12-01 09:14:20.836788","","","","","","",""
8.0,0.05814586952328682,0.001285405713977009,"train",9380.0,"2021-12-01 09:14:24.407791","","","","","","",""
8.0,0.08967624604701996,0.0012890238306607947,"train",9400.0,"2021-12-01 09:14:28.375564","","","","","","",""
8.0,0.07292339205741882,0.001292638158882606,"train",9420.0,"2021-12-01 09:14:32.052525","","","","","","",""
8.0,0.0947517678141594,0.0012962486436567603,"train",9440.0,"2021-12-01 09:14:35.630642","","","","","","",""
8.0,0.08336873352527618,0.0012998552300560484,"train",9460.0,"2021-12-01 09:14:39.602635","","","","","","",""
8.0,0.08623698353767395,0.0013034578632125668,"train",9480.0,"2021-12-01 09:14:43.171013","","","","","","",""
8.0,0.053218044340610504,0.0013070564883185534,"train",9500.0,"2021-12-01 09:14:46.823134","","","","","","",""
8.0,0.08655375242233276,0.001310651050627223,"train",9520.0,"2021-12-01 09:14:50.860410","","","","","","",""
8.0,0.09142661094665527,0.001314241495453598,"train",9540.0,"2021-12-01 09:14:54.535236","","","","","","",""
8.0,0.056602783501148224,0.00131782776817534,"train",9560.0,"2021-12-01 09:14:58.124139","","","","","","",""
8.0,0.07843784242868423,0.0013214098142335837,"train",9580.0,"2021-12-01 09:15:02.138910","","","","","","",""
8.0,0.08906088024377823,0.001324987579133764,"train",9600.0,"2021-12-01 09:15:05.832225","","","","","","",""
8.0,0.08131115883588791,0.0013285610084464463,"train",9620.0,"2021-12-01 09:15:09.540165","","","","","","",""
8.0,0.056167300790548325,0.001332130047808155,"train",9640.0,"2021-12-01 09:15:13.603434","","","","","","",""
8.0,0.05601796135306358,0.001335694642922199,"train",9660.0,"2021-12-01 09:15:17.332868","","","","","","",""
8.0,"","","train",9666.0,"2021-12-01 09:17:00.630588",0.6140144073346431,0.617047131410797,0.9537833794538499,0.6202741053065359,0.4828263197260867,0.5049783980261213,0.3384822121594506
8.0,"","","val",9666.0,"2021-12-01 09:17:30.713220",0.5910356024585411,0.5755342339991429,0.9431966558459643,0.5892964739212601,0.44296786661778087,0.46259489452161634,0.3025601967840819
9.0,0.04551708325743675,0.0013392547395594985,"train",9680.0,"2021-12-01 09:17:36.787069","","","","","","",""
9.0,0.0528428852558136,0.001342810283559412,"train",9700.0,"2021-12-01 09:17:41.094602","","","","","","",""
9.0,0.04032342508435249,0.0013463612208305564,"train",9720.0,"2021-12-01 09:17:45.346612","","","","","","",""
9.0,0.09496089816093445,0.0013499074973516321,"train",9740.0,"2021-12-01 09:17:49.184440","","","","","","",""
9.0,0.049179788678884506,0.0013534490591722464,"train",9760.0,"2021-12-01 09:17:52.901794","","","","","","",""
9.0,0.07250451296567917,0.0013569858524137305,"train",9780.0,"2021-12-01 09:17:56.988817","","","","","","",""
9.0,0.05593423917889595,0.001360517823269962,"train",9800.0,"2021-12-01 09:18:00.704987","","","","","","",""
9.0,0.05318986251950264,0.0013640449180081834,"train",9820.0,"2021-12-01 09:18:04.397870","","","","","","",""
9.0,0.05452656000852585,0.0013675670829698173,"train",9840.0,"2021-12-01 09:18:08.498545","","","","","","",""
9.0,0.048343922942876816,0.0013710842645712853,"train",9860.0,"2021-12-01 09:18:12.190221","","","","","","",""
9.0,0.06117607280611992,0.0013745964093048219,"train",9880.0,"2021-12-01 09:18:15.874912","","","","","","",""
9.0,0.05321882665157318,0.0013781034637392886,"train",9900.0,"2021-12-01 09:18:19.961856","","","","","","",""
9.0,0.06423012912273407,0.0013816053745209864,"train",9920.0,"2021-12-01 09:18:23.608360","","","","","","",""
9.0,0.07417729496955872,0.0013851020883744697,"train",9940.0,"2021-12-01 09:18:27.071631","","","","","","",""
9.0,0.09045854210853577,0.001388593552103353,"train",9960.0,"2021-12-01 09:18:31.135068","","","","","","",""
9.0,0.08233445137739182,0.0013920797125911233,"train",9980.0,"2021-12-01 09:18:34.762205","","","","","","",""
9.0,0.06734508275985718,0.001395560516801947,"train",10000.0,"2021-12-01 09:18:38.191500","","","","","","",""
9.0,0.07374811172485352,0.0013990359117814774,"train",10020.0,"2021-12-01 09:18:42.000417","","","","","","",""
9.0,0.05559195950627327,0.0014025058446576583,"train",10040.0,"2021-12-01 09:18:45.436072","","","","","","",""
9.0,0.061052270233631134,0.0014059702626415317,"train",10060.0,"2021-12-01 09:18:48.879728","","","","","","",""
9.0,0.09732016921043396,0.0014094291130280377,"train",10080.0,"2021-12-01 09:18:52.334453","","","","","","",""
9.0,0.07243535667657852,0.0014128823431968183,"train",10100.0,"2021-12-01 09:18:56.380512","","","","","","",""
9.0,0.08964627236127853,0.001416329900613017,"train",10120.0,"2021-12-01 09:18:59.982260","","","","","","",""
9.0,0.0641179084777832,0.0014197717328280782,"train",10140.0,"2021-12-01 09:19:03.567607","","","","","","",""
9.0,0.05353175476193428,0.0014232077874805457,"train",10160.0,"2021-12-01 09:19:07.603867","","","","","","",""
9.0,0.06390385329723358,0.0014266380122968589,"train",10180.0,"2021-12-01 09:19:11.324302","","","","","","",""
9.0,0.06080498918890953,0.0014300623550921468,"train",10200.0,"2021-12-01 09:19:14.960074","","","","","","",""
9.0,0.0737273171544075,0.0014334807637710243,"train",10220.0,"2021-12-01 09:19:19.035107","","","","","","",""
9.0,0.05281165987253189,0.0014368931863283831,"train",10240.0,"2021-12-01 09:19:22.722287","","","","","","",""
9.0,0.10283569246530533,0.0014402995708501826,"train",10260.0,"2021-12-01 09:19:26.407410","","","","","","",""
9.0,0.10394812375307083,0.0014436998655142422,"train",10280.0,"2021-12-01 09:19:30.492615","","","","","","",""
9.0,0.085078664124012,0.0014470940185910258,"train",10300.0,"2021-12-01 09:19:34.150975","","","","","","",""
9.0,0.049195606261491776,0.001450481978444431,"train",10320.0,"2021-12-01 09:19:37.795158","","","","","","",""
9.0,0.05545514076948166,0.0014538636935325763,"train",10340.0,"2021-12-01 09:19:41.794252","","","","","","",""
9.0,0.08203595876693726,0.0014572391124085817,"train",10360.0,"2021-12-01 09:19:45.430901","","","","","","",""
9.0,0.062079716473817825,0.0014606081837213525,"train",10380.0,"2021-12-01 09:19:49.064278","","","","","","",""
9.0,0.05769006162881851,0.0014639708562163639,"train",10400.0,"2021-12-01 09:19:53.088101","","","","","","",""
9.0,0.041058044880628586,0.001467327078736435,"train",10420.0,"2021-12-01 09:19:56.795194","","","","","","",""
9.0,0.07545690983533859,0.0014706768002225108,"train",10440.0,"2021-12-01 09:20:00.475279","","","","","","",""
9.0,0.06292605400085449,0.0014740199697144392,"train",10460.0,"2021-12-01 09:20:04.574746","","","","","","",""
9.0,0.05989402160048485,0.0014773565363517442,"train",10480.0,"2021-12-01 09:20:08.294827","","","","","","",""
9.0,0.09893544018268585,0.0014806864493744007,"train",10500.0,"2021-12-01 09:20:11.961684","","","","","","",""
9.0,0.08390642702579498,0.0014840096581236072,"train",10520.0,"2021-12-01 09:20:16.020024","","","","","","",""
9.0,0.05385180935263634,0.001487326112042556,"train",10540.0,"2021-12-01 09:20:19.665524","","","","","","",""
9.0,0.047167062759399414,0.0014906357606772013,"train",10560.0,"2021-12-01 09:20:23.346879","","","","","","",""
9.0,0.06163543835282326,0.0014939385536770291,"train",10580.0,"2021-12-01 09:20:27.086003","","","","","","",""
9.0,0.09783446043729782,0.0014972344407958218,"train",10600.0,"2021-12-01 09:20:31.168083","","","","","","",""
9.0,0.07472628355026245,0.0015005233718924213,"train",10620.0,"2021-12-01 09:20:34.861841","","","","","","",""
9.0,0.0835731253027916,0.0015038052969314946,"train",10640.0,"2021-12-01 09:20:38.552779","","","","","","",""
9.0,0.07047580927610397,0.0015070801659842939,"train",10660.0,"2021-12-01 09:20:42.628178","","","","","","",""
9.0,0.07245776057243347,0.001510347929229414,"train",10680.0,"2021-12-01 09:20:46.346370","","","","","","",""
9.0,0.06109274551272392,0.0015136085369535537,"train",10700.0,"2021-12-01 09:20:49.984970","","","","","","",""
9.0,0.09229229390621185,0.0015168619395522708,"train",10720.0,"2021-12-01 09:20:53.996451","","","","","","",""
9.0,0.049745529890060425,0.0015201080875307349,"train",10740.0,"2021-12-01 09:20:57.585480","","","","","","",""
9.0,"","","train",10740.0,"2021-12-01 09:22:38.501515",0.6045695990686167,0.6228663970270868,0.954167629848856,0.634467474369691,0.48411084920633546,0.5089408215632631,0.3340668823355522
9.0,"","","val",10740.0,"2021-12-01 09:23:06.302103",0.5813521976110403,0.5765254226848984,0.9435509235385252,0.6046580911195589,0.45638808052729324,0.4776830857005673,0.3085527742037891
10.0,0.05129041150212288,0.0015233469315044834,"train",10760.0,"2021-12-01 09:23:13.363022","","","","","","",""
10.0,0.07293102890253067,0.0015265784222001709,"train",10780.0,"2021-12-01 09:23:17.518282","","","","","","",""
10.0,0.0517338290810585,0.0015298025104563185,"train",10800.0,"2021-12-01 09:23:21.203346","","","","","","",""
10.0,0.07901211827993393,0.001533019147224064,"train",10820.0,"2021-12-01 09:23:24.954453","","","","","","",""
10.0,0.07724636048078537,0.0015362282835679054,"train",10840.0,"2021-12-01 09:23:28.925626","","","","","","",""
10.0,0.09824630618095398,0.0015394298706664469,"train",10860.0,"2021-12-01 09:23:32.564908","","","","","","",""
10.0,0.07145491987466812,0.001542623859813141,"train",10880.0,"2021-12-01 09:23:36.202353","","","","","","",""
10.0,0.04345846176147461,0.00154581020241703,"train",10900.0,"2021-12-01 09:23:40.153302","","","","","","",""
10.0,0.047637272626161575,0.0015489888500034858,"train",10920.0,"2021-12-01 09:23:43.716194","","","","","","",""
10.0,0.08087471127510071,0.0015521597542149444,"train",10940.0,"2021-12-01 09:23:47.362884","","","","","","",""
10.0,0.04277507960796356,0.0015553228668116455,"train",10960.0,"2021-12-01 09:23:51.445491","","","","","","",""
10.0,0.052391719073057175,0.0015584781396723642,"train",10980.0,"2021-12-01 09:23:55.085635","","","","","","",""
10.0,0.04701283574104309,0.0015616255247951432,"train",11000.0,"2021-12-01 09:23:58.738939","","","","","","",""
10.0,0.066921167075634,0.0015647649742980233,"train",11020.0,"2021-12-01 09:24:02.354489","","","","","","",""
10.0,0.056494880467653275,0.0015678964404197727,"train",11040.0,"2021-12-01 09:24:06.370433","","","","","","",""
10.0,0.047769639641046524,0.0015710198755206112,"train",11060.0,"2021-12-01 09:24:10.035742","","","","","","",""
10.0,0.10438545048236847,0.0015741352320829379,"train",11080.0,"2021-12-01 09:24:13.655834","","","","","","",""
10.0,0.05962163954973221,0.0015772424627120527,"train",11100.0,"2021-12-01 09:24:17.658803","","","","","","",""
10.0,0.0791730284690857,0.0015803415201368761,"train",11120.0,"2021-12-01 09:24:21.266943","","","","","","",""
10.0,0.06798233836889267,0.001583432357210671,"train",11140.0,"2021-12-01 09:24:24.885325","","","","","","",""
10.0,0.07931359112262726,0.001586514926911758,"train",11160.0,"2021-12-01 09:24:28.959697","","","","","","",""
10.0,0.07923208922147751,0.0015895891823442313,"train",11180.0,"2021-12-01 09:24:32.578055","","","","","","",""
10.0,0.07644743472337723,0.0015926550767386717,"train",11200.0,"2021-12-01 09:24:36.171042","","","","","","",""
10.0,0.0648973286151886,0.0015957125634528599,"train",11220.0,"2021-12-01 09:24:40.157919","","","","","","",""
10.0,0.07281769812107086,0.0015987615959724836,"train",11240.0,"2021-12-01 09:24:43.775874","","","","","","",""
10.0,0.09824215620756149,0.0016018021279118457,"train",11260.0,"2021-12-01 09:24:47.406322","","","","","","",""
10.0,0.05586511641740799,0.0016048341130145728,"train",11280.0,"2021-12-01 09:24:51.550914","","","","","","",""
10.0,0.07118582725524902,0.0016078575051543145,"train",11300.0,"2021-12-01 09:24:55.201444","","","","","","",""
10.0,0.05064086988568306,0.0016108722583354478,"train",11320.0,"2021-12-01 09:24:58.874241","","","","","","",""
10.0,0.05929164960980415,0.0016138783266937777,"train",11340.0,"2021-12-01 09:25:02.966277","","","","","","",""
10.0,0.074405737221241,0.0016168756644972322,"train",11360.0,"2021-12-01 09:25:06.572496","","","","","","",""
10.0,0.06508643925189972,0.0016198642261465587,"train",11380.0,"2021-12-01 09:25:10.184409","","","","","","",""
10.0,0.0919918343424797,0.0016228439661760208,"train",11400.0,"2021-12-01 09:25:13.798047","","","","","","",""
10.0,0.05942945554852486,0.001625814839254086,"train",11420.0,"2021-12-01 09:25:17.769405","","","","","","",""
10.0,0.10587514936923981,0.0016287768001841164,"train",11440.0,"2021-12-01 09:25:21.385587","","","","","","",""
10.0,0.08180356025695801,0.001631729803905059,"train",11460.0,"2021-12-01 09:25:24.985523","","","","","","",""
10.0,0.04731236770749092,0.0016346738054921273,"train",11480.0,"2021-12-01 09:25:28.958081","","","","","","",""
10.0,0.0753139778971672,0.001637608760157486,"train",11500.0,"2021-12-01 09:25:32.532440","","","","","","",""
10.0,0.052146922796964645,0.0016405346232509356,"train",11520.0,"2021-12-01 09:25:36.179708","","","","","","",""
10.0,0.060430463403463364,0.0016434513502605861,"train",11540.0,"2021-12-01 09:25:40.207536","","","","","","",""
10.0,0.07216916978359222,0.0016463588968135383,"train",11560.0,"2021-12-01 09:25:43.887727","","","","","","",""
10.0,0.04874758794903755,0.0016492572186765577,"train",11580.0,"2021-12-01 09:25:47.582983","","","","","","",""
10.0,0.0960657075047493,0.001652146271756747,"train",11600.0,"2021-12-01 09:25:51.660124","","","","","","",""
10.0,0.11219195276498795,0.0016550260121022172,"train",11620.0,"2021-12-01 09:25:55.334476","","","","","","",""
10.0,0.08654644340276718,0.0016578963959027562,"train",11640.0,"2021-12-01 09:25:58.912150","","","","","","",""
10.0,0.06258543580770493,0.001660757379490496,"train",11660.0,"2021-12-01 09:26:02.873982","","","","","","",""
10.0,0.08129234611988068,0.0016636089193405761,"train",11680.0,"2021-12-01 09:26:06.542271","","","","","","",""
10.0,0.09165120124816895,0.0016664509720718049,"train",11700.0,"2021-12-01 09:26:10.206472","","","","","","",""
10.0,0.06744134426116943,0.0016692834944473224,"train",11720.0,"2021-12-01 09:26:14.153182","","","","","","",""
10.0,0.07903126627206802,0.0016721064433752554,"train",11740.0,"2021-12-01 09:26:17.743818","","","","","","",""
10.0,0.08449237793684006,0.0016749197759093734,"train",11760.0,"2021-12-01 09:26:21.322717","","","","","","",""
10.0,0.10602375864982605,0.0016777234492497436,"train",11780.0,"2021-12-01 09:26:25.334748","","","","","","",""
10.0,0.09537170827388763,0.0016805174207433808,"train",11800.0,"2021-12-01 09:26:29.034096","","","","","","",""
10.0,"","","train",11814.0,"2021-12-01 09:28:13.133408",0.6192679909772247,0.6364957877664718,0.9569706250800727,0.646526999155535,0.508416010351917,0.5292179767968095,0.3535664767578114
10.0,"","","val",11814.0,"2021-12-01 09:28:40.737093",0.5886582395917894,0.5838300623885597,0.9469199249197001,0.6101382131057478,0.4783327334348553,0.49600681600486757,0.3240964509792653
11.0,0.07230424135923386,0.0016833016478848956,"train",11820.0,"2021-12-01 09:28:45.299844","","","","","","",""
11.0,0.049663059413433075,0.0016860760883171426,"train",11840.0,"2021-12-01 09:28:49.124867","","","","","","",""
11.0,0.0801829919219017,0.001688840699831864,"train",11860.0,"2021-12-01 09:28:53.385463","","","","","","",""
11.0,0.050504133105278015,0.0016915954403703313,"train",11880.0,"2021-12-01 09:28:57.073591","","","","","","",""
11.0,0.09887133538722992,0.0016943402680239862,"train",11900.0,"2021-12-01 09:29:00.744244","","","","","","",""
11.0,0.06556349992752075,0.0016970751410350774,"train",11920.0,"2021-12-01 09:29:04.732174","","","","","","",""
11.0,0.05790697783231735,0.001699800017797296,"train",11940.0,"2021-12-01 09:29:08.322956","","","","","","",""
11.0,0.07393485307693481,0.0017025148568564086,"train",11960.0,"2021-12-01 09:29:11.995902","","","","","","",""
11.0,0.057355716824531555,0.001705219616910888,"train",11980.0,"2021-12-01 09:29:16.047057","","","","","","",""
11.0,0.06584759801626205,0.001707914256812541,"train",12000.0,"2021-12-01 09:29:19.709569","","","","","","",""
11.0,0.04855596646666527,0.0017105987355671352,"train",12020.0,"2021-12-01 09:29:23.377270","","","","","","",""
11.0,0.0858202576637268,0.0017132730123350227,"train",12040.0,"2021-12-01 09:29:27.447291","","","","","","",""
11.0,0.05273621901869774,0.00171593704643176,"train",12060.0,"2021-12-01 09:29:31.145213","","","","","","",""
11.0,0.06837689131498337,0.0017185907973287285,"train",12080.0,"2021-12-01 09:29:34.919440","","","","","","",""
11.0,0.06081385910511017,0.0017212342246537506,"train",12100.0,"2021-12-01 09:29:38.960576","","","","","","",""
11.0,0.061903998255729675,0.0017238672881917032,"train",12120.0,"2021-12-01 09:29:42.632474","","","","","","",""
11.0,0.04631625860929489,0.001726489947885131,"train",12140.0,"2021-12-01 09:29:46.298566","","","","","","",""
11.0,0.0550985261797905,0.0017291021638348543,"train",12160.0,"2021-12-01 09:29:50.259916","","","","","","",""
11.0,0.06867163628339767,0.0017317038963005765,"train",12180.0,"2021-12-01 09:29:53.896523","","","","","","",""
11.0,0.06717152148485184,0.00173429510570149,"train",12200.0,"2021-12-01 09:29:57.540773","","","","","","",""
11.0,0.08805970102548599,0.0017368757526168759,"train",12220.0,"2021-12-01 09:30:01.534785","","","","","","",""
11.0,0.09169922024011612,0.0017394457977867057,"train",12240.0,"2021-12-01 09:30:05.135052","","","","","","",""
11.0,0.08813139796257019,0.0017420052021122378,"train",12260.0,"2021-12-01 09:30:08.603815","","","","","","",""
11.0,0.05673612281680107,0.0017445539266566128,"train",12280.0,"2021-12-01 09:30:12.406002","","","","","","",""
11.0,0.05873863771557808,0.001747091932645445,"train",12300.0,"2021-12-01 09:30:15.823012","","","","","","",""
11.0,0.07532703876495361,0.0017496191814674125,"train",12320.0,"2021-12-01 09:30:19.230716","","","","","","",""
11.0,0.09308861196041107,0.001752135634674846,"train",12340.0,"2021-12-01 09:30:22.639837","","","","","","",""
11.0,0.08112020790576935,0.0017546412539843118,"train",12360.0,"2021-12-01 09:30:26.400781","","","","","","",""
11.0,0.08019711822271347,0.001757136001277194,"train",12380.0,"2021-12-01 09:30:29.807231","","","","","","",""
11.0,0.05742219090461731,0.001759619838600278,"train",12400.0,"2021-12-01 09:30:33.229250","","","","","","",""
11.0,0.050679199397563934,0.0017620927281663229,"train",12420.0,"2021-12-01 09:30:37.126775","","","","","","",""
11.0,0.05108484998345375,0.0017645546323546398,"train",12440.0,"2021-12-01 09:30:40.533836","","","","","","",""
11.0,0.09003069251775742,0.0017670055137116636,"train",12460.0,"2021-12-01 09:30:44.027516","","","","","","",""
11.0,0.06550826877355576,0.0017694453349515209,"train",12480.0,"2021-12-01 09:30:48.034520","","","","","","",""
11.0,0.05870835483074188,0.0017718740589566,"train",12500.0,"2021-12-01 09:30:51.681393","","","","","","",""
11.0,0.08477713912725449,0.0017742916487781134,"train",12520.0,"2021-12-01 09:30:55.330433","","","","","","",""
11.0,0.039390843361616135,0.0017766980676366608,"train",12540.0,"2021-12-01 09:30:59.389129","","","","","","",""
11.0,0.0584062896668911,0.001779093278922789,"train",12560.0,"2021-12-01 09:31:03.051923","","","","","","",""
11.0,0.04503898695111275,0.001781477246197548,"train",12580.0,"2021-12-01 09:31:06.691481","","","","","","",""
11.0,0.06492997705936432,0.0017838499331930462,"train",12600.0,"2021-12-01 09:31:10.697994","","","","","","",""
11.0,0.08656885474920273,0.001786211303813001,"train",12620.0,"2021-12-01 09:31:14.328352","","","","","","",""
11.0,0.05956977233290672,0.0017885613221332894,"train",12640.0,"2021-12-01 09:31:17.958406","","","","","","",""
11.0,0.0670413225889206,0.0017908999524024931,"train",12660.0,"2021-12-01 09:31:21.996363","","","","","","",""
11.0,0.04092584177851677,0.0017932271590424438,"train",12680.0,"2021-12-01 09:31:25.634873","","","","","","",""
11.0,0.06531614065170288,0.0017955429066487635,"train",12700.0,"2021-12-01 09:31:29.339157","","","","","","",""
11.0,0.07646706700325012,0.0017978471599914025,"train",12720.0,"2021-12-01 09:31:33.027059","","","","","","",""
11.0,0.10149303078651428,0.0018001398840151778,"train",12740.0,"2021-12-01 09:31:37.101955","","","","","","",""
11.0,0.06228025257587433,0.0018024210438403031,"train",12760.0,"2021-12-01 09:31:40.789280","","","","","","",""
11.0,0.06066756695508957,0.0018046906047629228,"train",12780.0,"2021-12-01 09:31:44.483303","","","","","","",""
11.0,0.041416287422180176,0.0018069485322556372,"train",12800.0,"2021-12-01 09:31:48.562085","","","","","","",""
11.0,0.07322459667921066,0.001809194791968029,"train",12820.0,"2021-12-01 09:31:52.244687","","","","","","",""
11.0,0.06257882714271545,0.0018114293497271863,"train",12840.0,"2021-12-01 09:31:55.969757","","","","","","",""
11.0,0.05271947756409645,0.0018136521715382218,"train",12860.0,"2021-12-01 09:32:00.035878","","","","","","",""
11.0,0.06095142662525177,0.0018158632235847892,"train",12880.0,"2021-12-01 09:32:03.742430","","","","","","",""
11.0,"","","train",12888.0,"2021-12-01 09:33:45.738830",0.6428581823473768,0.668593923532623,0.9631378796739081,0.6656505165434131,0.5459587914269922,0.56521468296648,0.387658030409255
11.0,"","","val",12888.0,"2021-12-01 09:34:13.546540",0.6141714020642468,0.6075936090144366,0.9506831068828069,0.6268799440938169,0.5066615703035512,0.5263878189537183,0.343924770343734
12.0,0.05508749186992645,0.0018180624722295999,"train",12900.0,"2021-12-01 09:34:19.315684","","","","","","",""
12.0,0.049292996525764465,0.001820249884014933,"train",12920.0,"2021-12-01 09:34:23.575234","","","","","","",""
12.0,0.08771409094333649,0.001822425425663144,"train",12940.0,"2021-12-01 09:34:27.299097","","","","","","",""
12.0,0.07246103137731552,0.0018245890640771725,"train",12960.0,"2021-12-01 09:34:30.954926","","","","","","",""
12.0,0.05172795429825783,0.0018267407663410452,"train",12980.0,"2021-12-01 09:34:34.989489","","","","","","",""
12.0,0.09147156774997711,0.0018288804997203755,"train",13000.0,"2021-12-01 09:34:38.610359","","","","","","",""
12.0,0.059534475207328796,0.0018310082316628634,"train",13020.0,"2021-12-01 09:34:42.204319","","","","","","",""
12.0,0.06178189441561699,0.0018331239297987893,"train",13040.0,"2021-12-01 09:34:46.190345","","","","","","",""
12.0,0.06659076362848282,0.0018352275619415066,"train",13060.0,"2021-12-01 09:34:49.932056","","","","","","",""
12.0,0.04542797431349754,0.0018373190960879326,"train",13080.0,"2021-12-01 09:34:53.804065","","","","","","",""
12.0,0.08373596519231796,0.0018393985004190336,"train",13100.0,"2021-12-01 09:34:57.553244","","","","","","",""
12.0,0.057718537747859955,0.00184146574330031,"train",13120.0,"2021-12-01 09:35:01.650392","","","","","","",""
12.0,0.07675457000732422,0.001843520793282278,"train",13140.0,"2021-12-01 09:35:05.365337","","","","","","",""
12.0,0.05223764106631279,0.0018455636191009464,"train",13160.0,"2021-12-01 09:35:09.042019","","","","","","",""
12.0,0.07061752676963806,0.001847594189678294,"train",13180.0,"2021-12-01 09:35:13.117914","","","","","","",""
12.0,0.0686860904097557,0.0018496124741227415,"train",13200.0,"2021-12-01 09:35:16.832740","","","","","","",""
12.0,0.06074220687150955,0.001851618441729622,"train",13220.0,"2021-12-01 09:35:20.526024","","","","","","",""
12.0,0.050125185400247574,0.0018536120619816467,"train",13240.0,"2021-12-01 09:35:24.704817","","","","","","",""
12.0,0.0638565793633461,0.0018555933045493712,"train",13260.0,"2021-12-01 09:35:28.455524","","","","","","",""
12.0,0.05814795196056366,0.0018575621392916554,"train",13280.0,"2021-12-01 09:35:32.123757","","","","","","",""
12.0,0.06734323501586914,0.0018595185362561225,"train",13300.0,"2021-12-01 09:35:36.150983","","","","","","",""
12.0,0.10021092742681503,0.0018614624656796155,"train",13320.0,"2021-12-01 09:35:39.794849","","","","","","",""
12.0,0.07032283395528793,0.0018633938979886484,"train",13340.0,"2021-12-01 09:35:43.436775","","","","","","",""
12.0,0.06630609929561615,0.0018653128037998568,"train",13360.0,"2021-12-01 09:35:47.444065","","","","","","",""
12.0,0.08263705670833588,0.0018672191539204459,"train",13380.0,"2021-12-01 09:35:51.053933","","","","","","",""
12.0,0.0585135743021965,0.0018691129193486335,"train",13400.0,"2021-12-01 09:35:54.662040","","","","","","",""
12.0,0.051959406584501266,0.0018709940712740908,"train",13420.0,"2021-12-01 09:35:58.650456","","","","","","",""
12.0,0.10218065977096558,0.0018728625810783823,"train",13440.0,"2021-12-01 09:36:02.240281","","","","","","",""
12.0,0.07536402344703674,0.0018747184203353996,"train",13460.0,"2021-12-01 09:36:05.837378","","","","","","",""
12.0,0.062156036496162415,0.0018765615608117947,"train",13480.0,"2021-12-01 09:36:09.856943","","","","","","",""
12.0,0.04958706721663475,0.0018783919744674096,"train",13500.0,"2021-12-01 09:36:13.460499","","","","","","",""
12.0,0.0818784162402153,0.0018802096334557027,"train",13520.0,"2021-12-01 09:36:17.088489","","","","","","",""
12.0,0.06563834100961685,0.0018820145101241712,"train",13540.0,"2021-12-01 09:36:20.676418","","","","","","",""
12.0,0.06119707226753235,0.0018838065770147745,"train",13560.0,"2021-12-01 09:36:24.727920","","","","","","",""
12.0,0.07552754133939743,0.0018855858068643496,"train",13580.0,"2021-12-01 09:36:28.515559","","","","","","",""
12.0,0.07774754613637924,0.001887352172605026,"train",13600.0,"2021-12-01 09:36:32.208657","","","","","","",""
12.0,0.06761844456195831,0.0018891056473646398,"train",13620.0,"2021-12-01 09:36:36.280218","","","","","","",""
12.0,0.06078478321433067,0.0018908462044671395,"train",13640.0,"2021-12-01 09:36:39.917622","","","","","","",""
12.0,0.05015070363879204,0.001892573817432993,"train",13660.0,"2021-12-01 09:36:43.517079","","","","","","",""
12.0,0.05238983780145645,0.0018942884599795914,"train",13680.0,"2021-12-01 09:36:47.591389","","","","","","",""
12.0,0.06711029261350632,0.001895990106021648,"train",13700.0,"2021-12-01 09:36:51.303585","","","","","","",""
12.0,0.054080039262771606,0.0018976787296715943,"train",13720.0,"2021-12-01 09:36:55.011367","","","","","","",""
12.0,0.059814754873514175,0.0018993543052399757,"train",13740.0,"2021-12-01 09:36:59.110165","","","","","","",""
12.0,0.058265961706638336,0.0019010168072358413,"train",13760.0,"2021-12-01 09:37:02.821732","","","","","","",""
12.0,0.0732288658618927,0.0019026662103671305,"train",13780.0,"2021-12-01 09:37:06.489025","","","","","","",""
12.0,0.0528012253344059,0.0019043024895410605,"train",13800.0,"2021-12-01 09:37:10.546954","","","","","","",""
12.0,0.05180760845541954,0.001905925619864506,"train",13820.0,"2021-12-01 09:37:14.239841","","","","","","",""
12.0,0.05041522905230522,0.001907535576644378,"train",13840.0,"2021-12-01 09:37:17.977819","","","","","","",""
12.0,0.04941951483488083,0.0019091323353880008,"train",13860.0,"2021-12-01 09:37:23.599880","","","","","","",""
12.0,0.06181863695383072,0.0019107158718034828,"train",13880.0,"2021-12-01 09:37:27.967825","","","","","","",""
12.0,0.08519263565540314,0.001912286161800088,"train",13900.0,"2021-12-01 09:37:31.637058","","","","","","",""
12.0,0.058981284499168396,0.0019138431814886008,"train",13920.0,"2021-12-01 09:37:35.743744","","","","","","",""
12.0,0.044361013919115067,0.0019153869071816896,"train",13940.0,"2021-12-01 09:37:39.321641","","","","","","",""
12.0,0.09653230011463165,0.0019169173153942693,"train",13960.0,"2021-12-01 09:37:42.780292","","","","","","",""
12.0,"","","train",13962.0,"2021-12-01 09:39:25.085670",0.6506876227897839,0.6806000229450004,0.965693348199294,0.6678334010019367,0.5466945651307644,0.5726547042453789,0.3899147772319325
12.0,"","","val",13962.0,"2021-12-01 09:39:52.836680",0.6162008581700105,0.6183876980116931,0.9519133835937854,0.6265956414947292,0.5074456529099354,0.5301050410752992,0.34774441966292524
13.0,0.039391499012708664,0.0019184343828438557,"train",13980.0,"2021-12-01 09:40:00.030432","","","","","","",""
13.0,0.05209847912192345,0.0019199380864509208,"train",14000.0,"2021-12-01 09:40:03.764664","","","","","","",""
13.0,0.059342287480831146,0.0019214284033392457,"train",14020.0,"2021-12-01 09:40:07.573635","","","","","","",""
13.0,0.04729759693145752,0.0019229053108362649,"train",14040.0,"2021-12-01 09:40:11.198898","","","","","","",""
13.0,0.04232945665717125,0.0019243687864734145,"train",14060.0,"2021-12-01 09:40:15.198266","","","","","","",""
13.0,0.0849931463599205,0.0019258188079864732,"train",14080.0,"2021-12-01 09:40:18.821983","","","","","","",""
13.0,0.04131660982966423,0.0019272553533158999,"train",14100.0,"2021-12-01 09:40:22.511339","","","","","","",""
13.0,0.08521249145269394,0.0019286784006071697,"train",14120.0,"2021-12-01 09:40:26.558500","","","","","","",""
13.0,0.06992292404174805,0.0019300879282111083,"train",14140.0,"2021-12-01 09:40:30.275475","","","","","","",""
13.0,0.057900916785001755,0.0019314839146842185,"train",14160.0,"2021-12-01 09:40:34.014850","","","","","","",""
13.0,0.05990780517458916,0.0019328663387890076,"train",14180.0,"2021-12-01 09:40:38.104470","","","","","","",""
13.0,0.05935254693031311,0.0019342351794943119,"train",14200.0,"2021-12-01 09:40:41.737759","","","","","","",""
13.0,0.055512841790914536,0.0019355904159756138,"train",14220.0,"2021-12-01 09:40:45.419268","","","","","","",""
13.0,0.06811393797397614,0.0019369320276153613,"train",14240.0,"2021-12-01 09:40:49.494688","","","","","","",""
13.0,0.04862949624657631,0.00193825999400328,"train",14260.0,"2021-12-01 09:40:53.224881","","","","","","",""
13.0,0.06944902241230011,0.0019395742949366843,"train",14280.0,"2021-12-01 09:40:56.875076","","","","","","",""
13.0,0.052742715924978256,0.0019408749104207845,"train",14300.0,"2021-12-01 09:41:00.903914","","","","","","",""
13.0,0.051597025245428085,0.0019421618206689913,"train",14320.0,"2021-12-01 09:41:04.509934","","","","","","",""
13.0,0.05719565600156784,0.0019434350061032163,"train",14340.0,"2021-12-01 09:41:08.111920","","","","","","",""
13.0,0.0436115525662899,0.0019446944473541703,"train",14360.0,"2021-12-01 09:41:12.150372","","","","","","",""
13.0,0.06508263200521469,0.0019459401252616573,"train",14380.0,"2021-12-01 09:41:15.958063","","","","","","",""
13.0,0.05781206861138344,0.001947172020874868,"train",14400.0,"2021-12-01 09:41:19.698950","","","","","","",""
13.0,0.07087092846632004,0.0019483901154526647,"train",14420.0,"2021-12-01 09:41:23.325957","","","","","","",""
13.0,0.057221826165914536,0.0019495943904638694,"train",14440.0,"2021-12-01 09:41:27.286409","","","","","","",""
13.0,0.09390890598297119,0.0019507848275875444,"train",14460.0,"2021-12-01 09:41:30.869754","","","","","","",""
13.0,0.06281278282403946,0.0019519614087132712,"train",14480.0,"2021-12-01 09:41:34.443847","","","","","","",""
13.0,0.08079936355352402,0.0019531241159414263,"train",14500.0,"2021-12-01 09:41:38.328852","","","","","","",""
13.0,0.06357447803020477,0.001954272931583453,"train",14520.0,"2021-12-01 09:41:41.932266","","","","","","",""
13.0,0.0947272777557373,0.0019554078381621306,"train",14540.0,"2021-12-01 09:41:45.591279","","","","","","",""
13.0,0.0982675552368164,0.0019565288184118417,"train",14560.0,"2021-12-01 09:41:49.597551","","","","","","",""
13.0,0.0675119012594223,0.0019576358552788314,"train",14580.0,"2021-12-01 09:41:53.105216","","","","","","",""
13.0,0.058034323155879974,0.0019587289319214713,"train",14600.0,"2021-12-01 09:41:56.608272","","","","","","",""
13.0,0.050447795540094376,0.0019598080317105113,"train",14620.0,"2021-12-01 09:42:00.498057","","","","","","",""
13.0,0.058570895344018936,0.001960873138229337,"train",14640.0,"2021-12-01 09:42:04.040529","","","","","","",""
13.0,0.0461522601544857,0.0019619242352742153,"train",14660.0,"2021-12-01 09:42:07.693107","","","","","","",""
13.0,0.078094981610775,0.001962961306854543,"train",14680.0,"2021-12-01 09:42:11.718429","","","","","","",""
13.0,0.04744362831115723,0.0019639843371930905,"train",14700.0,"2021-12-01 09:42:15.378474","","","","","","",""
13.0,0.06159019097685814,0.001964993310726241,"train",14720.0,"2021-12-01 09:42:19.039657","","","","","","",""
13.0,0.048854243010282516,0.0019659882121042262,"train",14740.0,"2021-12-01 09:42:23.055555","","","","","","",""
13.0,0.08638973534107208,0.001966969026191363,"train",14760.0,"2021-12-01 09:42:26.701531","","","","","","",""
13.0,0.08612018823623657,0.0019679357380662805,"train",14780.0,"2021-12-01 09:42:30.327733","","","","","","",""
13.0,0.06331948935985565,0.001968888333022148,"train",14800.0,"2021-12-01 09:42:33.936493","","","","","","",""
13.0,0.08365265280008316,0.0019698267965669,"train",14820.0,"2021-12-01 09:42:37.945964","","","","","","",""
13.0,0.051681894809007645,0.0019707511144234557,"train",14840.0,"2021-12-01 09:42:41.602371","","","","","","",""
13.0,0.1070304661989212,0.001971661272529935,"train",14860.0,"2021-12-01 09:42:45.287596","","","","","","",""
13.0,0.08904819935560226,0.001972557257039875,"train",14880.0,"2021-12-01 09:42:49.334774","","","","","","",""
13.0,0.08349444717168808,0.0019734390543224385,"train",14900.0,"2021-12-01 09:42:53.110976","","","","","","",""
13.0,0.048704955726861954,0.001974306650962622,"train",14920.0,"2021-12-01 09:42:56.862624","","","","","","",""
13.0,0.06339313089847565,0.0019751600337614608,"train",14940.0,"2021-12-01 09:43:00.922410","","","","","","",""
13.0,0.04687119647860527,0.0019759991897362284,"train",14960.0,"2021-12-01 09:43:04.587242","","","","","","",""
13.0,0.07309988886117935,0.0019768241061206343,"train",14980.0,"2021-12-01 09:43:08.271240","","","","","","",""
13.0,0.06399659812450409,0.0019776347703650186,"train",15000.0,"2021-12-01 09:43:12.394284","","","","","","",""
13.0,0.059902340173721313,0.001978431170136543,"train",15020.0,"2021-12-01 09:43:16.103570","","","","","","",""
13.0,"","","train",15036.0,"2021-12-01 09:44:59.720902",0.6589682019937423,0.6953309912987972,0.9690211805901486,0.6963798780667374,0.575832347361088,0.6003849335266266,0.4111499093487724
13.0,"","","val",15036.0,"2021-12-01 09:45:27.569576",0.6196219413197264,0.6207449884075704,0.9542682423795176,0.6494595872714589,0.5291753932503801,0.546913268001869,0.36127018158909024
14.0,0.05019553005695343,0.0019792132933193784,"train",15040.0,"2021-12-01 09:45:31.668636","","","","","","",""
14.0,0.0655118077993393,0.001979981128014888,"train",15060.0,"2021-12-01 09:45:36.144337","","","","","","",""
14.0,0.07616899162530899,0.001980734662541811,"train",15080.0,"2021-12-01 09:45:40.014095","","","","","","",""
14.0,0.0631394013762474,0.0019814738854364374,"train",15100.0,"2021-12-01 09:45:43.697088","","","","","","",""
14.0,0.04824862256646156,0.0019821987854527832,"train",15120.0,"2021-12-01 09:45:47.775337","","","","","","",""
14.0,0.05225864797830582,0.0019829093515627634,"train",15140.0,"2021-12-01 09:45:51.463402","","","","","","",""
14.0,0.05035588890314102,0.001983605572956358,"train",15160.0,"2021-12-01 09:45:55.196385","","","","","","",""
14.0,0.046534743160009384,0.001984287439041775,"train",15180.0,"2021-12-01 09:45:59.296115","","","","","","",""
14.0,0.05996967852115631,0.001984954939445616,"train",15200.0,"2021-12-01 09:46:03.006162","","","","","","",""
14.0,0.05062329024076462,0.0019856080640130295,"train",15220.0,"2021-12-01 09:46:06.685729","","","","","","",""
14.0,0.09096239507198334,0.0019862468028078676,"train",15240.0,"2021-12-01 09:46:10.818237","","","","","","",""
14.0,0.06772837787866592,0.001986871146112837,"train",15260.0,"2021-12-01 09:46:14.573345","","","","","","",""
14.0,0.07553056627511978,0.0019874810844296466,"train",15280.0,"2021-12-01 09:46:18.390303","","","","","","",""
14.0,0.04309322312474251,0.0019880766084791517,"train",15300.0,"2021-12-01 09:46:22.098891","","","","","","",""
14.0,0.052489589899778366,0.0019886577092014953,"train",15320.0,"2021-12-01 09:46:26.167368","","","","","","",""
14.0,0.053957197815179825,0.001989224377756247,"train",15340.0,"2021-12-01 09:46:29.835130","","","","","","",""
14.0,0.0615815669298172,0.0019897766055225353,"train",15360.0,"2021-12-01 09:46:33.504676","","","","","","",""
14.0,0.06497149169445038,0.0019903143840991813,"train",15380.0,"2021-12-01 09:46:37.528127","","","","","","",""
14.0,0.09314427524805069,0.0019908377053048246,"train",15400.0,"2021-12-01 09:46:41.209018","","","","","","",""
14.0,0.05012696236371994,0.001991346561178048,"train",15420.0,"2021-12-01 09:46:44.867501","","","","","","",""
14.0,0.06139573082327843,0.0019918409439775003,"train",15440.0,"2021-12-01 09:46:49.034708","","","","","","",""
14.0,0.0635753870010376,0.0019923208461820117,"train",15460.0,"2021-12-01 09:46:52.746100","","","","","","",""
14.0,0.04065563157200813,0.001992786260490709,"train",15480.0,"2021-12-01 09:46:56.457230","","","","","","",""
14.0,0.08928611129522324,0.0019932371798231287,"train",15500.0,"2021-12-01 09:47:00.546488","","","","","","",""
14.0,0.0582331046462059,0.0019936735973193212,"train",15520.0,"2021-12-01 09:47:04.263936","","","","","","",""
14.0,0.06294647604227066,0.001994095506339958,"train",15540.0,"2021-12-01 09:47:07.988773","","","","","","",""
14.0,0.05646158382296562,0.001994502900466431,"train",15560.0,"2021-12-01 09:47:12.094560","","","","","","",""
14.0,0.046978820115327835,0.0019948957735009517,"train",15580.0,"2021-12-01 09:47:15.777484","","","","","","",""
14.0,0.07234776765108109,0.0019952741194666436,"train",15600.0,"2021-12-01 09:47:19.478295","","","","","","",""
14.0,0.07309623062610626,0.0019956379326076354,"train",15620.0,"2021-12-01 09:47:23.624234","","","","","","",""
14.0,0.048993177711963654,0.001995987207389146,"train",15640.0,"2021-12-01 09:47:27.350276","","","","","","",""
14.0,0.04656572267413139,0.0019963219384975706,"train",15660.0,"2021-12-01 09:47:31.039825","","","","","","",""
14.0,0.06458958238363266,0.001996642120840561,"train",15680.0,"2021-12-01 09:47:35.181670","","","","","","",""
14.0,0.05013681575655937,0.001996947749547103,"train",15700.0,"2021-12-01 09:47:38.869076","","","","","","",""
14.0,0.04110359773039818,0.0019972388199675905,"train",15720.0,"2021-12-01 09:47:42.543624","","","","","","",""
14.0,0.08450993150472641,0.001997515327673896,"train",15740.0,"2021-12-01 09:47:46.270881","","","","","","",""
14.0,0.06902731955051422,0.0019977772684594388,"train",15760.0,"2021-12-01 09:47:50.355402","","","","","","",""
14.0,0.04365532472729683,0.0019980246383392475,"train",15780.0,"2021-12-01 09:47:54.092628","","","","","","",""
14.0,0.05619784817099571,0.0019982574335500225,"train",15800.0,"2021-12-01 09:47:57.825010","","","","","","",""
14.0,0.04390078783035278,0.001998475650550192,"train",15820.0,"2021-12-01 09:48:01.955254","","","","","","",""
14.0,0.09753091633319855,0.0019986792860199657,"train",15840.0,"2021-12-01 09:48:05.697635","","","","","","",""
14.0,0.09498980641365051,0.001998868336861386,"train",15860.0,"2021-12-01 09:48:09.422198","","","","","","",""
14.0,0.041629474610090256,0.001999042800198376,"train",15880.0,"2021-12-01 09:48:13.521958","","","","","","",""
14.0,0.047431327402591705,0.00199920267337678,"train",15900.0,"2021-12-01 09:48:17.228687","","","","","","",""
14.0,0.04792773723602295,0.0019993479539644077,"train",15920.0,"2021-12-01 09:48:20.967055","","","","","","",""
14.0,0.05496687814593315,0.0019994786397510697,"train",15940.0,"2021-12-01 09:48:25.037853","","","","","","",""
14.0,0.09530472755432129,0.0019995947287486096,"train",15960.0,"2021-12-01 09:48:28.753259","","","","","","",""
14.0,0.04073826223611832,0.0019996962191909367,"train",15980.0,"2021-12-01 09:48:32.440807","","","","","","",""
14.0,0.06205206364393234,0.0019997831095340513,"train",16000.0,"2021-12-01 09:48:36.528622","","","","","","",""
14.0,0.04758729413151741,0.001999855398456069,"train",16020.0,"2021-12-01 09:48:40.215005","","","","","","",""
14.0,0.0755595713853836,0.00199991308485724,"train",16040.0,"2021-12-01 09:48:43.868903","","","","","","",""
14.0,0.03842194378376007,0.001999956167859967,"train",16060.0,"2021-12-01 09:48:47.892286","","","","","","",""
14.0,0.05531042441725731,0.0019999846468088172,"train",16080.0,"2021-12-01 09:48:51.599062","","","","","","",""
14.0,0.09117484092712402,0.0019999985212705335,"train",16100.0,"2021-12-01 09:48:55.267615","","","","","","",""
14.0,"","","train",16110.0,"2021-12-01 09:50:38.347970",0.6598413737902933,0.708796377508619,0.9704976063371002,0.7015031785785923,0.5964033135679767,0.6232306145423169,0.4232944333564854
14.0,"","","val",16110.0,"2021-12-01 09:51:10.432762",0.6150991534268816,0.6249604919530349,0.9564281432438627,0.6486968197802385,0.5384919850987627,0.5580713317754346,0.3636448537380714
15.0,0.0600222647190094,0.0019999995774202316,"train",16120.0,"2021-12-01 09:51:16.599282","","","","","","",""
15.0,0.04157840833067894,0.0019999966438102564,"train",16140.0,"2021-12-01 09:51:21.008862","","","","","","",""
15.0,0.05018780380487442,0.0019999909162942875,"train",16160.0,"2021-12-01 09:51:24.721715","","","","","","",""
15.0,0.055867962539196014,0.001999982394888327,"train",16180.0,"2021-12-01 09:51:28.417995","","","","","","",""
15.0,0.056393422186374664,0.0019999710796161823,"train",16200.0,"2021-12-01 09:51:32.503032","","","","","","",""
15.0,0.05203218013048172,0.0019999569705094686,"train",16220.0,"2021-12-01 09:51:36.206192","","","","","","",""
15.0,0.0507507361471653,0.001999940067607605,"train",16240.0,"2021-12-01 09:51:39.947485","","","","","","",""
15.0,0.10995298624038696,0.001999920370957817,"train",16260.0,"2021-12-01 09:51:44.040034","","","","","","",""
15.0,0.07070249319076538,0.0019998978806151355,"train",16280.0,"2021-12-01 09:51:47.755847","","","","","","",""
15.0,0.04315359145402908,0.0019998725966423976,"train",16300.0,"2021-12-01 09:51:51.498876","","","","","","",""
15.0,0.05212661996483803,0.001999844519110244,"train",16320.0,"2021-12-01 09:51:55.654200","","","","","","",""
15.0,0.05029219761490822,0.001999813648097122,"train",16340.0,"2021-12-01 09:51:59.372161","","","","","","",""
15.0,0.04664383828639984,0.001999779983689282,"train",16360.0,"2021-12-01 09:52:03.065893","","","","","","",""
15.0,0.05537520349025726,0.0019997435259807806,"train",16380.0,"2021-12-01 09:52:07.122777","","","","","","",""
15.0,0.05510485917329788,0.001999704275073478,"train",16400.0,"2021-12-01 09:52:10.796024","","","","","","",""
15.0,0.05605484917759895,0.0019996622310770383,"train",16420.0,"2021-12-01 09:52:14.414741","","","","","","",""
15.0,0.0476832240819931,0.0019996173941089286,"train",16440.0,"2021-12-01 09:52:18.376083","","","","","","",""
15.0,0.05605301260948181,0.0019995697642944212,"train",16460.0,"2021-12-01 09:52:21.956563","","","","","","",""
15.0,0.054527945816516876,0.0019995193417665894,"train",16480.0,"2021-12-01 09:52:25.537475","","","","","","",""
15.0,0.05616030842065811,0.0019994661266663108,"train",16500.0,"2021-12-01 09:52:29.110979","","","","","","",""
15.0,0.05991508811712265,0.001999410119142264,"train",16520.0,"2021-12-01 09:52:33.047753","","","","","","",""
15.0,0.06453549861907959,0.0019993513193509297,"train",16540.0,"2021-12-01 09:52:36.592134","","","","","","",""
15.0,0.0687614232301712,0.0019992897274565906,"train",16560.0,"2021-12-01 09:52:40.279588","","","","","","",""
15.0,0.04352681338787079,0.0019992253436313303,"train",16580.0,"2021-12-01 09:52:44.326300","","","","","","",""
15.0,0.043523963540792465,0.0019991581680550313,"train",16600.0,"2021-12-01 09:52:47.898996","","","","","","",""
15.0,0.047025375068187714,0.0019990882009153785,"train",16620.0,"2021-12-01 09:52:51.557662","","","","","","",""
15.0,0.09963510930538177,0.001999015442407854,"train",16640.0,"2021-12-01 09:52:55.621707","","","","","","",""
15.0,0.05079776793718338,0.0019989398927357403,"train",16660.0,"2021-12-01 09:52:59.316560","","","","","","",""
15.0,0.09368878602981567,0.0019988615521101174,"train",16680.0,"2021-12-01 09:53:03.087707","","","","","","",""
15.0,0.07824670523405075,0.0019987804207498637,"train",16700.0,"2021-12-01 09:53:07.282382","","","","","","",""
15.0,0.048080991953611374,0.0019986964988816533,"train",16720.0,"2021-12-01 09:53:10.975903","","","","","","",""
15.0,0.08252187818288803,0.0019986097867399585,"train",16740.0,"2021-12-01 09:53:14.672486","","","","","","",""
15.0,0.04991123080253601,0.0019985202845670463,"train",16760.0,"2021-12-01 09:53:18.760989","","","","","","",""
15.0,0.05534619837999344,0.0019984279926129798,"train",16780.0,"2021-12-01 09:53:22.479910","","","","","","",""
15.0,0.09873467683792114,0.001998332911135615,"train",16800.0,"2021-12-01 09:53:26.158256","","","","","","",""
15.0,0.07436313480138779,0.0019982350404006036,"train",16820.0,"2021-12-01 09:53:30.209756","","","","","","",""
15.0,0.041319627314805984,0.0019981343806813883,"train",16840.0,"2021-12-01 09:53:33.894679","","","","","","",""
15.0,0.07740400731563568,0.001998030932259205,"train",16860.0,"2021-12-01 09:53:37.549546","","","","","","",""
15.0,0.04819505661725998,0.0019979246954230823,"train",16880.0,"2021-12-01 09:53:41.535697","","","","","","",""
15.0,0.08407264202833176,0.0019978156704698363,"train",16900.0,"2021-12-01 09:53:45.155623","","","","","","",""
15.0,0.06587445735931396,0.001997703857704076,"train",16920.0,"2021-12-01 09:53:48.785422","","","","","","",""
15.0,0.05459923297166824,0.0019975892574381976,"train",16940.0,"2021-12-01 09:53:52.827670","","","","","","",""
15.0,0.06745298206806183,0.001997471869992386,"train",16960.0,"2021-12-01 09:53:56.521544","","","","","","",""
15.0,0.06352327764034271,0.0019973516956946127,"train",16980.0,"2021-12-01 09:54:00.198998","","","","","","",""
15.0,0.04092535749077797,0.0019972287348806366,"train",17000.0,"2021-12-01 09:54:03.859551","","","","","","",""
15.0,0.08169800788164139,0.0019971029878940003,"train",17020.0,"2021-12-01 09:54:07.811943","","","","","","",""
15.0,0.05942792445421219,0.0019969744550860317,"train",17040.0,"2021-12-01 09:54:11.388321","","","","","","",""
15.0,0.08191193640232086,0.0019968431368158433,"train",17060.0,"2021-12-01 09:54:15.024214","","","","","","",""
15.0,0.06037198752164841,0.001996709033450327,"train",17080.0,"2021-12-01 09:54:19.004996","","","","","","",""
15.0,0.05758415535092354,0.0019965721453641585,"train",17100.0,"2021-12-01 09:54:22.690327","","","","","","",""
15.0,0.038770269602537155,0.0019964324729397935,"train",17120.0,"2021-12-01 09:54:26.400684","","","","","","",""
15.0,0.05861837416887283,0.0019962900165674657,"train",17140.0,"2021-12-01 09:54:30.476732","","","","","","",""
15.0,0.044898342341184616,0.0019961447766451887,"train",17160.0,"2021-12-01 09:54:34.167775","","","","","","",""
15.0,0.07170597463846207,0.001995996753578751,"train",17180.0,"2021-12-01 09:54:37.836615","","","","","","",""
15.0,"","","train",17184.0,"2021-12-01 09:56:23.946871",0.6704213053918359,0.7214953793843518,0.9725077572837691,0.7129150986189191,0.603081209738251,0.6276616096025409,0.4344926342886479
15.0,"","","val",17184.0,"2021-12-01 09:56:51.700029",0.6197379102400556,0.6293039284478705,0.9552346787278585,0.6547495394197643,0.5457718097502205,0.56738036744904,0.3686741147098637
16.0,0.044807981699705124,0.001995845947781719,"train",17200.0,"2021-12-01 09:57:02.381100","","","","","","",""
16.0,0.057286474853754044,0.001995692359675433,"train",17220.0,"2021-12-01 09:57:06.136411","","","","","","",""
16.0,0.05264505371451378,0.0019955359896890066,"train",17240.0,"2021-12-01 09:57:09.831155","","","","","","",""
16.0,0.055901769548654556,0.0019953768382593258,"train",17260.0,"2021-12-01 09:57:14.002070","","","","","","",""
16.0,0.03980578854680061,0.0019952149058310486,"train",17280.0,"2021-12-01 09:57:17.740615","","","","","","",""
16.0,0.0899268165230751,0.001995050192856602,"train",17300.0,"2021-12-01 09:57:21.484341","","","","","","",""
16.0,0.03544992953538895,0.001994882699796182,"train",17320.0,"2021-12-01 09:57:25.642902","","","","","","",""
16.0,0.08028233051300049,0.001994712427117752,"train",17340.0,"2021-12-01 09:57:29.414418","","","","","","",""
16.0,0.04957742989063263,0.0019945393752970413,"train",17360.0,"2021-12-01 09:57:33.217956","","","","","","",""
16.0,0.08179373294115067,0.001994363544817544,"train",17380.0,"2021-12-01 09:57:37.446243","","","","","","",""
16.0,0.07678786665201187,0.001994184936170517,"train",17400.0,"2021-12-01 09:57:41.171611","","","","","","",""
16.0,0.046479787677526474,0.0019940035498549804,"train",17420.0,"2021-12-01 09:57:44.897308","","","","","","",""
16.0,0.0597938671708107,0.0019938193863777145,"train",17440.0,"2021-12-01 09:57:48.644806","","","","","","",""
16.0,0.08162430673837662,0.001993632446253258,"train",17460.0,"2021-12-01 09:57:52.711532","","","","","","",""
16.0,0.06419781595468521,0.0019934427300039074,"train",17480.0,"2021-12-01 09:57:56.412594","","","","","","",""
16.0,0.07643766701221466,0.001993250238159717,"train",17500.0,"2021-12-01 09:58:00.124987","","","","","","",""
16.0,0.06649406999349594,0.0019930549712584944,"train",17520.0,"2021-12-01 09:58:04.257296","","","","","","",""
16.0,0.08242901414632797,0.001992856929845801,"train",17540.0,"2021-12-01 09:58:08.004274","","","","","","",""
16.0,0.08685444295406342,0.0019926561144749497,"train",17560.0,"2021-12-01 09:58:11.710837","","","","","","",""
16.0,0.07922996580600739,0.001992452525707004,"train",17580.0,"2021-12-01 09:58:15.789972","","","","","","",""
16.0,0.055202361196279526,0.0019922461641107767,"train",17600.0,"2021-12-01 09:58:19.427110","","","","","","",""
16.0,0.060738906264305115,0.001992037030262826,"train",17620.0,"2021-12-01 09:58:23.133934","","","","","","",""
16.0,0.06605856120586395,0.0019918251247474567,"train",17640.0,"2021-12-01 09:58:27.252281","","","","","","",""
16.0,0.0883282721042633,0.001991610448156718,"train",17660.0,"2021-12-01 09:58:31.168807","","","","","","",""
16.0,0.07922616600990295,0.0019913930010903996,"train",17680.0,"2021-12-01 09:58:34.967710","","","","","","",""
16.0,0.05476450175046921,0.001991172784156033,"train",17700.0,"2021-12-01 09:58:39.159632","","","","","","",""
16.0,0.03685377910733223,0.0019909497979688877,"train",17720.0,"2021-12-01 09:58:42.952790","","","","","","",""
16.0,0.10320316255092621,0.0019907240431519713,"train",17740.0,"2021-12-01 09:58:46.701028","","","","","","",""
16.0,0.07670175284147263,0.001990495520336026,"train",17760.0,"2021-12-01 09:58:50.810534","","","","","","",""
16.0,0.06191359832882881,0.0019902642301595284,"train",17780.0,"2021-12-01 09:58:54.541292","","","","","","",""
16.0,0.0780758261680603,0.001990030173268685,"train",17800.0,"2021-12-01 09:58:58.266853","","","","","","",""
16.0,0.046047210693359375,0.0019897933503174345,"train",17820.0,"2021-12-01 09:59:02.019282","","","","","","",""
16.0,0.043203145265579224,0.0019895537619674425,"train",17840.0,"2021-12-01 09:59:06.167344","","","","","","",""
16.0,0.040884315967559814,0.001989311408888101,"train",17860.0,"2021-12-01 09:59:09.946476","","","","","","",""
16.0,0.09648598730564117,0.001989066291756527,"train",17880.0,"2021-12-01 09:59:13.663246","","","","","","",""
16.0,0.06799556314945221,0.00198881841125756,"train",17900.0,"2021-12-01 09:59:17.762233","","","","","","",""
16.0,0.038159873336553574,0.0019885677680837595,"train",17920.0,"2021-12-01 09:59:21.472838","","","","","","",""
16.0,0.050578441470861435,0.001988314362935404,"train",17940.0,"2021-12-01 09:59:25.173529","","","","","","",""
16.0,0.04449523612856865,0.0019880581965204896,"train",17960.0,"2021-12-01 09:59:29.304801","","","","","","",""
16.0,0.06925536692142487,0.0019877992695547255,"train",17980.0,"2021-12-01 09:59:33.011923","","","","","","",""
16.0,0.06141381338238716,0.0019875375827615354,"train",18000.0,"2021-12-01 09:59:36.695858","","","","","","",""
16.0,0.10118823498487473,0.0019872731368720527,"train",18020.0,"2021-12-01 09:59:40.769173","","","","","","",""
16.0,0.04795706272125244,0.00198700593262512,"train",18040.0,"2021-12-01 09:59:44.491882","","","","","","",""
16.0,0.07587722688913345,0.001986735970767286,"train",18060.0,"2021-12-01 09:59:48.156481","","","","","","",""
16.0,0.05858040973544121,0.001986463252052804,"train",18080.0,"2021-12-01 09:59:52.193407","","","","","","",""
16.0,0.058909088373184204,0.0019861877772436305,"train",18100.0,"2021-12-01 09:59:55.836639","","","","","","",""
16.0,0.0606825016438961,0.001985909547109422,"train",18120.0,"2021-12-01 09:59:59.551691","","","","","","",""
16.0,0.0652192011475563,0.001985628562427533,"train",18140.0,"2021-12-01 10:00:03.640181","","","","","","",""
16.0,0.08726751059293747,0.001985344823983014,"train",18160.0,"2021-12-01 10:00:07.384438","","","","","","",""
16.0,0.07083063572645187,0.001985058332568609,"train",18180.0,"2021-12-01 10:00:11.166704","","","","","","",""
16.0,0.060085926204919815,0.001984769088984755,"train",18200.0,"2021-12-01 10:00:15.295936","","","","","","",""
16.0,0.045326679944992065,0.001984477094039576,"train",18220.0,"2021-12-01 10:00:19.052543","","","","","","",""
16.0,0.054143182933330536,0.001984182348548885,"train",18240.0,"2021-12-01 10:00:22.856270","","","","","","",""
16.0,"","","train",18258.0,"2021-12-01 10:02:06.828821",0.6717019573601106,0.7278124822673229,0.974082073344724,0.7039559478124423,0.6034261125244901,0.6359078050477682,0.43412271787094703
16.0,"","","val",18258.0,"2021-12-01 10:02:34.189841",0.6224631798677954,0.6298651848776727,0.956171100397261,0.6448635069241102,0.5411544072651453,0.5658835148247395,0.36809500830644293
17.0,0.08677473664283752,0.00198388485333618,"train",18260.0,"2021-12-01 10:02:42.213983","","","","","","",""
17.0,0.07481817156076431,0.0019835846092326396,"train",18280.0,"2021-12-01 10:02:46.586669","","","","","","",""
17.0,0.047730859369039536,0.0019832816170771246,"train",18300.0,"2021-12-01 10:02:50.477826","","","","","","",""
17.0,0.10322935879230499,0.001982975877716172,"train",18320.0,"2021-12-01 10:02:54.359849","","","","","","",""
17.0,0.05270992964506149,0.0019826673920039957,"train",18340.0,"2021-12-01 10:02:58.564544","","","","","","",""
17.0,0.050284434109926224,0.0019823561608024822,"train",18360.0,"2021-12-01 10:03:02.389745","","","","","","",""
17.0,0.047022588551044464,0.0019820421849811886,"train",18380.0,"2021-12-01 10:03:06.221631","","","","","","",""
17.0,0.061202529817819595,0.0019817254654173402,"train",18400.0,"2021-12-01 10:03:10.409484","","","","","","",""
17.0,0.04547502100467682,0.0019814060029958278,"train",18420.0,"2021-12-01 10:03:14.415455","","","","","","",""
17.0,0.049847621470689774,0.001981083798609206,"train",18440.0,"2021-12-01 10:03:18.483839","","","","","","",""
17.0,0.06003638356924057,0.0019807588531576908,"train",18460.0,"2021-12-01 10:03:22.690126","","","","","","",""
17.0,0.06099148094654083,0.0019804311675491555,"train",18480.0,"2021-12-01 10:03:26.358124","","","","","","",""
17.0,0.04443899169564247,0.00198010074269913,"train",18500.0,"2021-12-01 10:03:30.122852","","","","","","",""
17.0,0.04916514828801155,0.0019797675795307965,"train",18520.0,"2021-12-01 10:03:34.176482","","","","","","",""
17.0,0.0660177692770958,0.0019794316789749885,"train",18540.0,"2021-12-01 10:03:37.982055","","","","","","",""
17.0,0.048060979694128036,0.0019790930419701877,"train",18560.0,"2021-12-01 10:03:41.715297","","","","","","",""
17.0,0.08107846230268478,0.0019787516694625214,"train",18580.0,"2021-12-01 10:03:45.749882","","","","","","",""
17.0,0.03675350919365883,0.0019784075624057584,"train",18600.0,"2021-12-01 10:03:49.516746","","","","","","",""
17.0,0.0565144382417202,0.0019780607217613094,"train",18620.0,"2021-12-01 10:03:53.245950","","","","","","",""
17.0,0.07755910605192184,0.001977711148498221,"train",18640.0,"2021-12-01 10:03:57.304418","","","","","","",""
17.0,0.04535049945116043,0.0019773588435931756,"train",18660.0,"2021-12-01 10:04:01.024195","","","","","","",""
17.0,0.07304495573043823,0.0019770038080304873,"train",18680.0,"2021-12-01 10:04:04.783463","","","","","","",""
17.0,0.04734401777386665,0.001976646042802099,"train",18700.0,"2021-12-01 10:04:08.881231","","","","","","",""
17.0,0.06589928269386292,0.0019762855489075808,"train",18720.0,"2021-12-01 10:04:12.896690","","","","","","",""
17.0,0.08764313161373138,0.001975922327354126,"train",18740.0,"2021-12-01 10:04:16.870546","","","","","","",""
17.0,0.08158538490533829,0.001975556379156549,"train",18760.0,"2021-12-01 10:04:20.936939","","","","","","",""
17.0,0.06745020300149918,0.0019751877053372823,"train",18780.0,"2021-12-01 10:04:25.076913","","","","","","",""
17.0,0.08012981712818146,0.001974816306926373,"train",18800.0,"2021-12-01 10:04:28.848178","","","","","","",""
17.0,0.0857519581913948,0.001974442184961482,"train",18820.0,"2021-12-01 10:04:32.838539","","","","","","",""
17.0,0.06965804100036621,0.0019740653404878776,"train",18840.0,"2021-12-01 10:04:37.017459","","","","","","",""
17.0,0.0836900994181633,0.0019736857745584362,"train",18860.0,"2021-12-01 10:04:40.791532","","","","","","",""
17.0,0.06641308218240738,0.0019733034882336367,"train",18880.0,"2021-12-01 10:04:44.561692","","","","","","",""
17.0,0.06135746091604233,0.0019729184825815586,"train",18900.0,"2021-12-01 10:04:48.655886","","","","","","",""
17.0,0.05860185995697975,0.0019725307586778806,"train",18920.0,"2021-12-01 10:04:52.371100","","","","","","",""
17.0,0.05936117470264435,0.001972140317605874,"train",18940.0,"2021-12-01 10:04:56.151875","","","","","","",""
17.0,0.05854538083076477,0.0019717471604564028,"train",18960.0,"2021-12-01 10:05:00.343898","","","","","","",""
17.0,0.08009784668684006,0.0019713512883279185,"train",18980.0,"2021-12-01 10:05:04.182803","","","","","","",""
17.0,0.04771636798977852,0.00197095270232646,"train",19000.0,"2021-12-01 10:05:08.001759","","","","","","",""
17.0,0.04493502527475357,0.001970551403565646,"train",19020.0,"2021-12-01 10:05:12.216735","","","","","","",""
17.0,0.031762223690748215,0.0019701473931666765,"train",19040.0,"2021-12-01 10:05:16.066130","","","","","","",""
17.0,0.0777016282081604,0.001969740672258327,"train",19060.0,"2021-12-01 10:05:19.910291","","","","","","",""
17.0,0.05792902410030365,0.0019693312419769454,"train",19080.0,"2021-12-01 10:05:24.117534","","","","","","",""
17.0,0.07962784916162491,0.0019689191034664498,"train",19100.0,"2021-12-01 10:05:28.073470","","","","","","",""
17.0,0.05786087363958359,0.0019685042578783257,"train",19120.0,"2021-12-01 10:05:31.989387","","","","","","",""
17.0,0.07955783605575562,0.00196808670637162,"train",19140.0,"2021-12-01 10:05:35.997005","","","","","","",""
17.0,0.05324067175388336,0.001967666450112942,"train",19160.0,"2021-12-01 10:05:40.219118","","","","","","",""
17.0,0.051722798496484756,0.001967243490276456,"train",19180.0,"2021-12-01 10:05:44.003733","","","","","","",""
17.0,0.09252245724201202,0.0019668178280438818,"train",19200.0,"2021-12-01 10:05:47.794824","","","","","","",""
17.0,0.052464619278907776,0.0019663894646044875,"train",19220.0,"2021-12-01 10:05:51.921143","","","","","","",""
17.0,0.07578908652067184,0.001965958401155089,"train",19240.0,"2021-12-01 10:05:55.686122","","","","","","",""
17.0,0.08798685669898987,0.0019655246389000463,"train",19260.0,"2021-12-01 10:05:59.361491","","","","","","",""
17.0,0.045654766261577606,0.0019650881790512597,"train",19280.0,"2021-12-01 10:06:03.495011","","","","","","",""
17.0,0.055322859436273575,0.001964649022828165,"train",19300.0,"2021-12-01 10:06:07.227066","","","","","","",""
17.0,0.0777193084359169,0.0019642071714577325,"train",19320.0,"2021-12-01 10:06:11.015952","","","","","","",""
17.0,"","","train",19332.0,"2021-12-01 10:07:56.154526",0.6869096994833733,0.7492963731072902,0.9775201384540971,0.7262295115603782,0.6073898776218901,0.6357945197376595,0.44919840247704373
17.0,"","","val",19332.0,"2021-12-01 10:08:28.735584",0.6287255015655804,0.646720367796928,0.959662203353321,0.6572957697785577,0.538708375041606,0.5630219810625469,0.370480145343628
18.0,0.07775110751390457,0.0019637626261744634,"train",19340.0,"2021-12-01 10:08:33.662047","","","","","","",""
18.0,0.05682491883635521,0.001963315388220384,"train",19360.0,"2021-12-01 10:08:37.453409","","","","","","",""
18.0,0.05185766890645027,0.0019628654588450443,"train",19380.0,"2021-12-01 10:08:41.152837","","","","","","",""
18.0,0.04177447035908699,0.001962412839305514,"train",19400.0,"2021-12-01 10:08:45.298825","","","","","","",""
18.0,0.0699039101600647,0.0019619575308663785,"train",19420.0,"2021-12-01 10:08:48.993904","","","","","","",""
18.0,0.047716472297906876,0.001961499534799737,"train",19440.0,"2021-12-01 10:08:52.698665","","","","","","",""
18.0,0.03668893128633499,0.001961038852385196,"train",19460.0,"2021-12-01 10:08:56.804536","","","","","","",""
18.0,0.05342596396803856,0.0019605754849098683,"train",19480.0,"2021-12-01 10:09:00.543613","","","","","","",""
18.0,0.03967147693037987,0.0019601094336683693,"train",19500.0,"2021-12-01 10:09:04.295418","","","","","","",""
18.0,0.06033448129892349,0.0019596406999628116,"train",19520.0,"2021-12-01 10:09:08.375683","","","","","","",""
18.0,0.08497029542922974,0.0019591692851028022,"train",19540.0,"2021-12-01 10:09:12.051863","","","","","","",""
18.0,0.04725473001599312,0.001958695190405441,"train",19560.0,"2021-12-01 10:09:15.668213","","","","","","",""
18.0,0.0939330980181694,0.001958218417195312,"train",19580.0,"2021-12-01 10:09:19.291535","","","","","","",""
18.0,0.06586374342441559,0.001957738966804486,"train",19600.0,"2021-12-01 10:09:23.278447","","","","","","",""
18.0,0.036446209996938705,0.001957256840572511,"train",19620.0,"2021-12-01 10:09:27.006279","","","","","","",""
18.0,0.08456987887620926,0.0019567720398464133,"train",19640.0,"2021-12-01 10:09:30.737662","","","","","","",""
18.0,0.0724489763379097,0.00195628456598069,"train",19660.0,"2021-12-01 10:09:34.851622","","","","","","",""
18.0,0.05972938984632492,0.001955794420337307,"train",19680.0,"2021-12-01 10:09:38.601991","","","","","","",""
18.0,0.06356468796730042,0.0019553016042856957,"train",19700.0,"2021-12-01 10:09:42.350308","","","","","","",""
18.0,0.046581219881772995,0.001954806119202748,"train",19720.0,"2021-12-01 10:09:46.509896","","","","","","",""
18.0,0.04236176982522011,0.001954307966472812,"train",19740.0,"2021-12-01 10:09:50.228333","","","","","","",""
18.0,0.049863800406455994,0.0019538071474876914,"train",19760.0,"2021-12-01 10:09:53.946596","","","","","","",""
18.0,0.040543921291828156,0.001953303663646636,"train",19780.0,"2021-12-01 10:09:58.099453","","","","","","",""
18.0,0.04260324686765671,0.0019527975163563436,"train",19800.0,"2021-12-01 10:10:01.870735","","","","","","",""
18.0,0.05067676678299904,0.0019522887070309524,"train",19820.0,"2021-12-01 10:10:05.649615","","","","","","",""
18.0,0.03591115400195122,0.0019517772370920379,"train",19840.0,"2021-12-01 10:10:09.851057","","","","","","",""
18.0,0.050605520606040955,0.0019512631079686104,"train",19860.0,"2021-12-01 10:10:13.566853","","","","","","",""
18.0,0.05813322961330414,0.001950746321097108,"train",19880.0,"2021-12-01 10:10:17.285647","","","","","","",""
18.0,0.04837724193930626,0.0019502268779213957,"train",19900.0,"2021-12-01 10:10:21.376026","","","","","","",""
18.0,0.04862967133522034,0.0019497047798927598,"train",19920.0,"2021-12-01 10:10:25.034185","","","","","","",""
18.0,0.04715250805020332,0.001949180028469903,"train",19940.0,"2021-12-01 10:10:28.745783","","","","","","",""
18.0,0.07305633276700974,0.0019486526251189435,"train",19960.0,"2021-12-01 10:10:32.842470","","","","","","",""
18.0,0.037171345204114914,0.0019481225713134064,"train",19980.0,"2021-12-01 10:10:36.572959","","","","","","",""
18.0,0.09103788435459137,0.0019475898685342235,"train",20000.0,"2021-12-01 10:10:40.284802","","","","","","",""
18.0,0.051868706941604614,0.0019470545182697272,"train",20020.0,"2021-12-01 10:10:43.989172","","","","","","",""
18.0,0.06621604412794113,0.001946516522015647,"train",20040.0,"2021-12-01 10:10:48.212714","","","","","","",""
18.0,0.0463176965713501,0.0019459758812751047,"train",20060.0,"2021-12-01 10:10:51.862051","","","","","","",""
18.0,0.07501343637704849,0.0019454325975586106,"train",20080.0,"2021-12-01 10:10:55.604994","","","","","","",""
18.0,0.0538749136030674,0.0019448866723840602,"train",20100.0,"2021-12-01 10:10:59.648487","","","","","","",""
18.0,0.058531396090984344,0.001944338107276728,"train",20120.0,"2021-12-01 10:11:03.313596","","","","","","",""
18.0,0.07307715713977814,0.0019437869037692644,"train",20140.0,"2021-12-01 10:11:06.982835","","","","","","",""
18.0,0.08097623288631439,0.0019432330634016912,"train",20160.0,"2021-12-01 10:11:11.009120","","","","","","",""
18.0,0.04977330192923546,0.0019426765877213986,"train",20180.0,"2021-12-01 10:11:14.669115","","","","","","",""
18.0,0.03327423334121704,0.0019421174782831383,"train",20200.0,"2021-12-01 10:11:18.316706","","","","","","",""
18.0,0.03322792798280716,0.0019415557366490208,"train",20220.0,"2021-12-01 10:11:22.339555","","","","","","",""
