"epoch","loss","lr","part","step","time","accuracy","auprc","auroc","challenge_metric","f_beta_measure","f_measure","g_beta_measure"
0.0,0.45514175295829773,8.000730236035311e-05,"train",20.0,"2021-11-30 08:02:03.860048","","","","","","",""
0.0,0.3344298303127289,8.002920933031948e-05,"train",40.0,"2021-11-30 08:02:08.382253","","","","","","",""
0.0,0.23474013805389404,8.006572057662293e-05,"train",60.0,"2021-11-30 08:02:12.510801","","","","","","",""
0.0,0.17732569575309753,8.011683554380914e-05,"train",80.0,"2021-11-30 08:02:16.788724","","","","","","",""
0.0,0.15692424774169922,8.018255345425274e-05,"train",100.0,"2021-11-30 08:02:21.208066","","","","","","",""
0.0,0.15855908393859863,8.026287330817079e-05,"train",120.0,"2021-11-30 08:02:25.197183","","","","","","",""
0.0,0.12869440019130707,8.03577938836373e-05,"train",140.0,"2021-11-30 08:02:29.587292","","","","","","",""
0.0,0.15574133396148682,8.04673137366021e-05,"train",160.0,"2021-11-30 08:02:33.606160","","","","","","",""
0.0,0.14236874878406525,8.059143120091187e-05,"train",180.0,"2021-11-30 08:02:38.020756","","","","","","",""
0.0,0.13866080343723297,8.073014438833613e-05,"train",200.0,"2021-11-30 08:02:42.390427","","","","","","",""
0.0,0.13687868416309357,8.088345118859724e-05,"train",220.0,"2021-11-30 08:02:46.449380","","","","","","",""
0.0,0.13446009159088135,8.10513492693996e-05,"train",240.0,"2021-11-30 08:02:50.983134","","","","","","",""
0.0,0.13978400826454163,8.123383607646804e-05,"train",260.0,"2021-11-30 08:02:55.493097","","","","","","",""
0.0,0.14890272915363312,8.143090883358495e-05,"train",280.0,"2021-11-30 08:02:59.646515","","","","","","",""
0.0,0.13933506608009338,8.164256454263295e-05,"train",300.0,"2021-11-30 08:03:04.106742","","","","","","",""
0.0,0.16213582456111908,8.186879998364088e-05,"train",320.0,"2021-11-30 08:03:08.222105","","","","","","",""
0.0,0.1326380968093872,8.210961171483213e-05,"train",340.0,"2021-11-30 08:03:12.849111","","","","","","",""
0.0,0.15343406796455383,8.236499607267717e-05,"train",360.0,"2021-11-30 08:03:17.309871","","","","","","",""
0.0,0.14292500913143158,8.26349491719505e-05,"train",380.0,"2021-11-30 08:03:21.467137","","","","","","",""
0.0,0.14627967774868011,8.291946690578713e-05,"train",400.0,"2021-11-30 08:03:25.832019","","","","","","",""
0.0,0.12878796458244324,8.321854494574774e-05,"train",420.0,"2021-11-30 08:03:30.182041","","","","","","",""
0.0,0.13882435858249664,8.353217874188293e-05,"train",440.0,"2021-11-30 08:03:34.113728","","","","","","",""
0.0,0.14972023665905,8.38603635228035e-05,"train",460.0,"2021-11-30 08:03:38.464019","","","","","","",""
0.0,0.1335790902376175,8.420309429575212e-05,"train",480.0,"2021-11-30 08:03:42.393696","","","","","","",""
0.0,0.14735014736652374,8.456036584667914e-05,"train",500.0,"2021-11-30 08:03:46.763567","","","","","","",""
0.0,0.13915278017520905,8.493217274032315e-05,"train",520.0,"2021-11-30 08:03:51.144637","","","","","","",""
0.0,0.14436011016368866,8.531850932029235e-05,"train",540.0,"2021-11-30 08:03:55.099065","","","","","","",""
0.0,0.1560438722372055,8.571936970915212e-05,"train",560.0,"2021-11-30 08:03:59.632984","","","","","","",""
0.0,0.14627645909786224,8.613474780851246e-05,"train",580.0,"2021-11-30 08:04:04.062456","","","","","","",""
0.0,0.1573745310306549,8.656463729912224e-05,"train",600.0,"2021-11-30 08:04:08.159442","","","","","","",""
0.0,0.129733607172966,8.700903164096468e-05,"train",620.0,"2021-11-30 08:04:12.605219","","","","","","",""
0.0,0.12740783393383026,8.746792407335769e-05,"train",640.0,"2021-11-30 08:04:16.680390","","","","","","",""
0.0,0.12400143593549728,8.794130761505497e-05,"train",660.0,"2021-11-30 08:04:20.968622","","","","","","",""
0.0,0.1218203455209732,8.842917506435462e-05,"train",680.0,"2021-11-30 08:04:25.263050","","","","","","",""
0.0,0.1151600033044815,8.893151899920645e-05,"train",700.0,"2021-11-30 08:04:29.222430","","","","","","",""
0.0,0.13080072402954102,8.944833177732632e-05,"train",720.0,"2021-11-30 08:04:33.494167","","","","","","",""
0.0,0.14901065826416016,8.997960553631186e-05,"train",740.0,"2021-11-30 08:04:37.841032","","","","","","",""
0.0,0.13597750663757324,9.052533219376224e-05,"train",760.0,"2021-11-30 08:04:41.940979","","","","","","",""
0.0,0.1348881721496582,9.108550344740104e-05,"train",780.0,"2021-11-30 08:04:46.440006","","","","","","",""
0.0,0.12952888011932373,9.166011077520208e-05,"train",800.0,"2021-11-30 08:04:50.552566","","","","","","",""
0.0,0.14059233665466309,9.224914543552059e-05,"train",820.0,"2021-11-30 08:04:55.107687","","","","","","",""
0.0,0.11274617165327072,9.285259846722417e-05,"train",840.0,"2021-11-30 08:04:59.606539","","","","","","",""
0.0,0.12642744183540344,9.34704606898307e-05,"train",860.0,"2021-11-30 08:05:03.737268","","","","","","",""
0.0,0.1201980710029602,9.410272270364735e-05,"train",880.0,"2021-11-30 08:05:08.249726","","","","","","",""
0.0,0.1259254515171051,9.474937488991348e-05,"train",900.0,"2021-11-30 08:05:12.606146","","","","","","",""
0.0,0.11994586139917374,9.541040741094719e-05,"train",920.0,"2021-11-30 08:05:16.666791","","","","","","",""
0.0,0.11551669239997864,9.608581021029522e-05,"train",940.0,"2021-11-30 08:05:21.146610","","","","","","",""
0.0,0.12625069916248322,9.677557301288509e-05,"train",960.0,"2021-11-30 08:05:25.250870","","","","","","",""
0.0,0.09440228343009949,9.747968532518238e-05,"train",980.0,"2021-11-30 08:05:29.707956","","","","","","",""
0.0,0.11283140629529953,9.819813643535029e-05,"train",1000.0,"2021-11-30 08:05:34.120396","","","","","","",""
0.0,0.12372921407222748,9.893091541341185e-05,"train",1020.0,"2021-11-30 08:05:38.168181","","","","","","",""
0.0,0.11604948341846466,9.967801111141644e-05,"train",1040.0,"2021-11-30 08:05:42.595253","","","","","","",""
0.0,0.11209653317928314,0.00010043941216361023,"train",1060.0,"2021-11-30 08:05:47.033538","","","","","","",""
0.0,"","","train",1074.0,"2021-11-30 08:07:32.459987",0.37622062140726187,0.1809782340570943,0.7236192485457023,0.26002016111308246,0.13051480374562494,0.12717229116257284,0.0799134101898939
0.0,"","","val",1074.0,"2021-11-30 08:08:00.710879",0.3741737214426534,0.18137165766686517,0.7260163997894191,0.25726310812892805,0.13124271226564865,0.1268923821316697,0.08026772930276709
1.0,0.10760468989610672,0.00010121510698660771,"train",1080.0,"2021-11-30 08:08:05.343513","","","","","","",""
1.0,0.14743053913116455,0.00010200508377956928,"train",1100.0,"2021-11-30 08:08:09.860920","","","","","","",""
1.0,0.12150762230157852,0.00010280933052437993,"train",1120.0,"2021-11-30 08:08:14.236204","","","","","","",""
1.0,0.12545326352119446,0.00010362783498583223,"train",1140.0,"2021-11-30 08:08:18.700759","","","","","","",""
1.0,0.122220978140831,0.0001044605847118124,"train",1160.0,"2021-11-30 08:08:22.760459","","","","","","",""
1.0,0.12099764496088028,0.0001053075670334907,"train",1180.0,"2021-11-30 08:08:27.149102","","","","","","",""
1.0,0.09632232785224915,0.00010616876906551181,"train",1200.0,"2021-11-30 08:08:31.510629","","","","","","",""
1.0,0.10359801352024078,0.0001070441777061941,"train",1220.0,"2021-11-30 08:08:35.969087","","","","","","",""
1.0,0.10123023390769958,0.00010793377963772563,"train",1240.0,"2021-11-30 08:08:40.423442","","","","","","",""
1.0,0.10003020614385605,0.0001088375613263698,"train",1260.0,"2021-11-30 08:08:44.521741","","","","","","",""
1.0,0.09097736328840256,0.00010975550902266908,"train",1280.0,"2021-11-30 08:08:48.930770","","","","","","",""
1.0,0.09090148657560349,0.00011068760876165474,"train",1300.0,"2021-11-30 08:08:53.366792","","","","","","",""
1.0,0.11068353801965714,0.0001116338463630598,"train",1320.0,"2021-11-30 08:08:57.828428","","","","","","",""
1.0,0.09969812631607056,0.00011259420743153455,"train",1340.0,"2021-11-30 08:09:02.374882","","","","","","",""
1.0,0.12218509614467621,0.00011356867735686535,"train",1360.0,"2021-11-30 08:09:06.495095","","","","","","",""
1.0,0.11796877533197403,0.00011455724131419621,"train",1380.0,"2021-11-30 08:09:10.928482","","","","","","",""
1.0,0.10194089263677597,0.00011555988426425654,"train",1400.0,"2021-11-30 08:09:15.338344","","","","","","",""
1.0,0.11861075460910797,0.00011657659095358746,"train",1420.0,"2021-11-30 08:09:19.799895","","","","","","",""
1.0,0.09629800170660019,0.00011760734591477516,"train",1440.0,"2021-11-30 08:09:24.244767","","","","","","",""
1.0,0.09984765201807022,0.00011865213346668618,"train",1460.0,"2021-11-30 08:09:28.307418","","","","","","",""
1.0,0.09844259172677994,0.00011971093771470502,"train",1480.0,"2021-11-30 08:09:32.712525","","","","","","",""
1.0,0.09844334423542023,0.0001207837425509777,"train",1500.0,"2021-11-30 08:09:37.088170","","","","","","",""
1.0,0.10354110598564148,0.00012187053165465503,"train",1520.0,"2021-11-30 08:09:41.509320","","","","","","",""
1.0,0.11732294410467148,0.000122971288492142,"train",1540.0,"2021-11-30 08:09:45.935992","","","","","","",""
1.0,0.11359895765781403,0.00012408599631734863,"train",1560.0,"2021-11-30 08:09:50.017529","","","","","","",""
1.0,0.12161200493574142,0.00012521463817194542,"train",1580.0,"2021-11-30 08:09:54.440761","","","","","","",""
1.0,0.08761142194271088,0.00012635719688562077,"train",1600.0,"2021-11-30 08:09:58.939177","","","","","","",""
1.0,0.1085277572274208,0.00012751365507634267,"train",1620.0,"2021-11-30 08:10:03.535158","","","","","","",""
1.0,0.09992847591638565,0.0001286839951506226,"train",1640.0,"2021-11-30 08:10:08.167380","","","","","","",""
1.0,0.12614253163337708,0.00012986819930378333,"train",1660.0,"2021-11-30 08:10:12.360568","","","","","","",""
1.0,0.10924385488033295,0.00013106624952023064,"train",1680.0,"2021-11-30 08:10:16.753815","","","","","","",""
1.0,0.12764477729797363,0.00013227812757372545,"train",1700.0,"2021-11-30 08:10:21.045670","","","","","","",""
1.0,0.11936929821968079,0.00013350381502766394,"train",1720.0,"2021-11-30 08:10:25.354152","","","","","","",""
1.0,0.1065731793642044,0.00013474329323535494,"train",1740.0,"2021-11-30 08:10:29.781377","","","","","","",""
1.0,0.11293919384479523,0.0001359965433403059,"train",1760.0,"2021-11-30 08:10:33.855130","","","","","","",""
1.0,0.10835983604192734,0.00013726354627650872,"train",1780.0,"2021-11-30 08:10:38.318089","","","","","","",""
1.0,0.08929672837257385,0.00013854428276873052,"train",1800.0,"2021-11-30 08:10:42.778416","","","","","","",""
1.0,0.11196263134479523,0.00013983873333280506,"train",1820.0,"2021-11-30 08:10:47.240006","","","","","","",""
1.0,0.11394573003053665,0.00014114687827593156,"train",1840.0,"2021-11-30 08:10:51.749805","","","","","","",""
1.0,0.09220641106367111,0.00014246869769697352,"train",1860.0,"2021-11-30 08:10:55.949920","","","","","","",""
1.0,0.08766427636146545,0.00014380417148676054,"train",1880.0,"2021-11-30 08:11:00.490903","","","","","","",""
1.0,0.08229418098926544,0.00014515327932839404,"train",1900.0,"2021-11-30 08:11:05.154487","","","","","","",""
1.0,0.10685800760984421,0.0001465160006975598,"train",1920.0,"2021-11-30 08:11:09.694828","","","","","","",""
1.0,0.1250009983778,0.00014789231486283454,"train",1940.0,"2021-11-30 08:11:14.179485","","","","","","",""
1.0,0.08361382782459259,0.00014928220088600633,"train",1960.0,"2021-11-30 08:11:18.326911","","","","","","",""
1.0,0.09558989852666855,0.00015068563762239045,"train",1980.0,"2021-11-30 08:11:22.831404","","","","","","",""
1.0,0.10127069801092148,0.00015210260372115238,"train",2000.0,"2021-11-30 08:11:27.344166","","","","","","",""
1.0,0.11696631461381912,0.00015353307762563115,"train",2020.0,"2021-11-30 08:11:31.861058","","","","","","",""
1.0,0.08355480432510376,0.00015497703757366872,"train",2040.0,"2021-11-30 08:11:36.386994","","","","","","",""
1.0,0.10243071615695953,0.00015643446159794,"train",2060.0,"2021-11-30 08:11:40.449578","","","","","","",""
1.0,0.1249098852276802,0.0001579053275262887,"train",2080.0,"2021-11-30 08:11:44.842854","","","","","","",""
1.0,0.10913290083408356,0.00015938961298206183,"train",2100.0,"2021-11-30 08:11:49.307825","","","","","","",""
1.0,0.09413420408964157,0.00016088729538445297,"train",2120.0,"2021-11-30 08:11:53.785147","","","","","","",""
1.0,0.09383603930473328,0.000162398351948844,"train",2140.0,"2021-11-30 08:11:58.260350","","","","","","",""
1.0,"","","train",2148.0,"2021-11-30 08:13:42.860213",0.43884159208324236,0.2895197000449566,0.828077741940497,0.36098858373606457,0.1839285319850425,0.17966778341373987,0.12703104593397063
1.0,"","","val",2148.0,"2021-11-30 08:14:11.164437",0.43360779311144615,0.28572625946670654,0.824025911084492,0.355780755963782,0.18321980119890172,0.17869598939705705,0.12596390879194197
2.0,0.09799117594957352,0.00016392275968715297,"train",2160.0,"2021-11-30 08:14:17.067032","","","","","","",""
2.0,0.09789957106113434,0.00016546049540818223,"train",2180.0,"2021-11-30 08:14:21.159163","","","","","","",""
2.0,0.10977977514266968,0.00016701153571797313,"train",2200.0,"2021-11-30 08:14:25.271845","","","","","","",""
2.0,0.08933532238006592,0.00016857585702016015,"train",2220.0,"2021-11-30 08:14:29.858342","","","","","","",""
2.0,0.10140639543533325,0.00017015343551633126,"train",2240.0,"2021-11-30 08:14:33.819440","","","","","","",""
2.0,0.10256406664848328,0.0001717442472063892,"train",2260.0,"2021-11-30 08:14:37.979867","","","","","","",""
2.0,0.09769463539123535,0.00017334826788891681,"train",2280.0,"2021-11-30 08:14:42.174017","","","","","","",""
2.0,0.09969697147607803,0.00017496547316154555,"train",2300.0,"2021-11-30 08:14:46.282596","","","","","","",""
2.0,0.09661724418401718,0.00017659583842132573,"train",2320.0,"2021-11-30 08:14:50.327801","","","","","","",""
2.0,0.07997993379831314,0.00017823933886510217,"train",2340.0,"2021-11-30 08:14:54.319660","","","","","","",""
2.0,0.1057903915643692,0.00017989594948989015,"train",2360.0,"2021-11-30 08:14:58.709192","","","","","","",""
2.0,0.11010091751813889,0.00018156564509325753,"train",2380.0,"2021-11-30 08:15:02.740735","","","","","","",""
2.0,0.08763062208890915,0.0001832484002737059,"train",2400.0,"2021-11-30 08:15:06.783060","","","","","","",""
2.0,0.09087502211332321,0.00018494418943105877,"train",2420.0,"2021-11-30 08:15:10.819131","","","","","","",""
2.0,0.08848708122968674,0.00018665298676685078,"train",2440.0,"2021-11-30 08:15:14.866688","","","","","","",""
2.0,0.11588253080844879,0.0001883747662847191,"train",2460.0,"2021-11-30 08:15:18.931381","","","","","","",""
2.0,0.0956738293170929,0.00019010950179080112,"train",2480.0,"2021-11-30 08:15:23.381921","","","","","","",""
2.0,0.0847567692399025,0.00019185716689412995,"train",2500.0,"2021-11-30 08:15:27.540266","","","","","","",""
2.0,0.0949903205037117,0.00019361773500703797,"train",2520.0,"2021-11-30 08:15:31.602258","","","","","","",""
2.0,0.1185126006603241,0.00019539117934556168,"train",2540.0,"2021-11-30 08:15:35.688099","","","","","","",""
2.0,0.09261006861925125,0.00019717747292984696,"train",2560.0,"2021-11-30 08:15:39.736599","","","","","","",""
2.0,0.08752643316984177,0.0001989765885845624,"train",2580.0,"2021-11-30 08:15:43.767980","","","","","","",""
2.0,0.08817293494939804,0.00020078849893931014,"train",2600.0,"2021-11-30 08:15:47.801963","","","","","","",""
2.0,0.08978493511676788,0.0002026131764290434,"train",2620.0,"2021-11-30 08:15:52.215590","","","","","","",""
2.0,0.0822547972202301,0.00020445059329448614,"train",2640.0,"2021-11-30 08:15:56.269664","","","","","","",""
2.0,0.1022157147526741,0.00020630072158255497,"train",2660.0,"2021-11-30 08:16:00.333018","","","","","","",""
2.0,0.10894153267145157,0.00020816353314678467,"train",2680.0,"2021-11-30 08:16:04.443521","","","","","","",""
2.0,0.08380962908267975,0.00021003899964775505,"train",2700.0,"2021-11-30 08:16:08.544624","","","","","","",""
2.0,0.08702662587165833,0.00021192709255352473,"train",2720.0,"2021-11-30 08:16:12.633002","","","","","","",""
2.0,0.07496459782123566,0.00021382778314006255,"train",2740.0,"2021-11-30 08:16:16.740168","","","","","","",""
2.0,0.09793912619352341,0.00021574104249168615,"train",2760.0,"2021-11-30 08:16:21.259229","","","","","","",""
2.0,0.10459421575069427,0.00021766684150150133,"train",2780.0,"2021-11-30 08:16:25.424416","","","","","","",""
2.0,0.11106979101896286,0.00021960515087184485,"train",2800.0,"2021-11-30 08:16:29.514433","","","","","","",""
2.0,0.10500528663396835,0.00022155594111472978,"train",2820.0,"2021-11-30 08:16:33.588795","","","","","","",""
2.0,0.0956326276063919,0.0002235191825522959,"train",2840.0,"2021-11-30 08:16:37.691038","","","","","","",""
2.0,0.08683735132217407,0.00022549484531725838,"train",2860.0,"2021-11-30 08:16:41.835998","","","","","","",""
2.0,0.08688952773809433,0.00022748289935336434,"train",2880.0,"2021-11-30 08:16:46.329216","","","","","","",""
2.0,0.10703163594007492,0.00022948331441584964,"train",2900.0,"2021-11-30 08:16:50.453623","","","","","","",""
2.0,0.09981724619865417,0.00023149606007189785,"train",2920.0,"2021-11-30 08:16:54.530442","","","","","","",""
2.0,0.09052464365959167,0.00023352110570110476,"train",2940.0,"2021-11-30 08:16:58.585613","","","","","","",""
2.0,0.09951470792293549,0.00023555842049594305,"train",2960.0,"2021-11-30 08:17:02.654486","","","","","","",""
2.0,0.10270458459854126,0.00023760797346223305,"train",2980.0,"2021-11-30 08:17:06.711014","","","","","","",""
2.0,0.07646029442548752,0.00023966973341961028,"train",3000.0,"2021-11-30 08:17:10.757277","","","","","","",""
2.0,0.08563601225614548,0.0002417436690020044,"train",3020.0,"2021-11-30 08:17:15.176363","","","","","","",""
2.0,0.0820542722940445,0.00024382974865811325,"train",3040.0,"2021-11-30 08:17:19.231307","","","","","","",""
2.0,0.08268014341592789,0.000245927940651884,"train",3060.0,"2021-11-30 08:17:23.260246","","","","","","",""
2.0,0.08099491894245148,0.0002480382130629953,"train",3080.0,"2021-11-30 08:17:27.172950","","","","","","",""
2.0,0.10077988356351852,0.0002501605337873443,"train",3100.0,"2021-11-30 08:17:31.171328","","","","","","",""
2.0,0.10598141700029373,0.0002522948705375337,"train",3120.0,"2021-11-30 08:17:35.222265","","","","","","",""
2.0,0.09487284719944,0.00025444119084336303,"train",3140.0,"2021-11-30 08:17:39.564430","","","","","","",""
2.0,0.12855030596256256,0.00025659946205232364,"train",3160.0,"2021-11-30 08:17:43.644731","","","","","","",""
2.0,0.11536747217178345,0.0002587696513300941,"train",3180.0,"2021-11-30 08:17:47.713536","","","","","","",""
2.0,0.11029000580310822,0.0002609517256610412,"train",3200.0,"2021-11-30 08:17:51.652071","","","","","","",""
2.0,0.07431773096323013,0.00026314565184872084,"train",3220.0,"2021-11-30 08:17:55.612383","","","","","","",""
2.0,"","","train",3222.0,"2021-11-30 08:19:40.488919",0.4868369351669941,0.38250919813938344,0.8731183284622326,0.4491229738238428,0.29621824206604236,0.2982541029862838,0.19486502973784464
2.0,"","","val",3222.0,"2021-11-30 08:20:08.941195",0.48312652209207935,0.3787947192754922,0.8681751672637945,0.44070856703324496,0.2939655006217605,0.2930999319703893,0.19245397305054862
3.0,0.10872142761945724,0.0002653513965163838,"train",3240.0,"2021-11-30 08:20:15.951738","","","","","","",""
3.0,0.07295061647891998,0.0002675689261074836,"train",3260.0,"2021-11-30 08:20:20.423861","","","","","","",""
3.0,0.09763932228088379,0.00026979820688618605,"train",3280.0,"2021-11-30 08:20:24.398329","","","","","","",""
3.0,0.08221282064914703,0.00027203920493788433,"train",3300.0,"2021-11-30 08:20:28.802556","","","","","","",""
3.0,0.07981459051370621,0.00027429188616971277,"train",3320.0,"2021-11-30 08:20:32.843319","","","","","","",""
3.0,0.08763021975755692,0.0002765562163110668,"train",3340.0,"2021-11-30 08:20:36.941118","","","","","","",""
3.0,0.07127747684717178,0.00027883216091412503,"train",3360.0,"2021-11-30 08:20:41.322491","","","","","","",""
3.0,0.10401125252246857,0.0002811196853543707,"train",3380.0,"2021-11-30 08:20:45.370766","","","","","","",""
3.0,0.08064662665128708,0.00028341875483112134,"train",3400.0,"2021-11-30 08:20:49.435931","","","","","","",""
3.0,0.067924365401268,0.00028572933436805644,"train",3420.0,"2021-11-30 08:20:53.905291","","","","","","",""
3.0,0.09594018757343292,0.0002880513888137504,"train",3440.0,"2021-11-30 08:20:57.973497","","","","","","",""
3.0,0.09471053630113602,0.0002903848828422063,"train",3460.0,"2021-11-30 08:21:01.941216","","","","","","",""
3.0,0.10522454231977463,0.00029272978095339465,"train",3480.0,"2021-11-30 08:21:06.253415","","","","","","",""
3.0,0.09198839217424393,0.00029508604747379243,"train",3500.0,"2021-11-30 08:21:10.233329","","","","","","",""
3.0,0.10756491124629974,0.00029745364655692653,"train",3520.0,"2021-11-30 08:21:14.331966","","","","","","",""
3.0,0.09370589256286621,0.0002998325421839181,"train",3540.0,"2021-11-30 08:21:18.797238","","","","","","",""
3.0,0.08108603209257126,0.0003022226981640318,"train",3560.0,"2021-11-30 08:21:22.906973","","","","","","",""
3.0,0.07026650756597519,0.00030462407813522494,"train",3580.0,"2021-11-30 08:21:27.329754","","","","","","",""
3.0,0.08112110197544098,0.0003070366455647027,"train",3600.0,"2021-11-30 08:21:31.427563","","","","","","",""
3.0,0.09333121031522751,0.000309460363749471,"train",3620.0,"2021-11-30 08:21:35.496911","","","","","","",""
3.0,0.0689818412065506,0.0003118951958168978,"train",3640.0,"2021-11-30 08:21:40.005765","","","","","","",""
3.0,0.07741552591323853,0.0003143411047252722,"train",3660.0,"2021-11-30 08:21:44.064450","","","","","","",""
3.0,0.09700433164834976,0.0003167980532643691,"train",3680.0,"2021-11-30 08:21:48.087934","","","","","","",""
3.0,0.08483660221099854,0.0003192660040560141,"train",3700.0,"2021-11-30 08:21:52.464214","","","","","","",""
3.0,0.10899676382541656,0.0003217449195546528,"train",3720.0,"2021-11-30 08:21:56.504445","","","","","","",""
3.0,0.0850498378276825,0.00032423476204792244,"train",3740.0,"2021-11-30 08:22:00.552384","","","","","","",""
3.0,0.07200144231319427,0.0003267354936572248,"train",3760.0,"2021-11-30 08:22:04.929464","","","","","","",""
3.0,0.105436772108078,0.0003292470763383026,"train",3780.0,"2021-11-30 08:22:08.996799","","","","","","",""
3.0,0.0965171828866005,0.0003317694718818192,"train",3800.0,"2021-11-30 08:22:13.077096","","","","","","",""
3.0,0.08293292671442032,0.00033430264191393853,"train",3820.0,"2021-11-30 08:22:17.521301","","","","","","",""
3.0,0.08371344208717346,0.0003368465478969097,"train",3840.0,"2021-11-30 08:22:21.619516","","","","","","",""
3.0,0.10299674421548843,0.0003394011511296533,"train",3860.0,"2021-11-30 08:22:26.022872","","","","","","",""
3.0,0.07328762114048004,0.0003419664127483496,"train",3880.0,"2021-11-30 08:22:30.002488","","","","","","",""
3.0,0.09611109644174576,0.00034454229372703074,"train",3900.0,"2021-11-30 08:22:34.018823","","","","","","",""
3.0,0.106435127556324,0.00034712875487817314,"train",3920.0,"2021-11-30 08:22:38.413835","","","","","","",""
3.0,0.08079273998737335,0.00034972575685329526,"train",3940.0,"2021-11-30 08:22:42.481930","","","","","","",""
3.0,0.07604366540908813,0.0003523332601435541,"train",3960.0,"2021-11-30 08:22:46.568832","","","","","","",""
3.0,0.08802564442157745,0.00035495122508034916,"train",3980.0,"2021-11-30 08:22:51.016798","","","","","","",""
3.0,0.1059587150812149,0.0003575796118359231,"train",4000.0,"2021-11-30 08:22:55.065538","","","","","","",""
3.0,0.07484879344701767,0.00036021838042396906,"train",4020.0,"2021-11-30 08:22:59.168659","","","","","","",""
3.0,0.09533277899026871,0.0003628674907002389,"train",4040.0,"2021-11-30 08:23:03.594470","","","","","","",""
3.0,0.0734190046787262,0.00036552690236315395,"train",4060.0,"2021-11-30 08:23:07.654869","","","","","","",""
3.0,0.10970272123813629,0.00036819657495441773,"train",4080.0,"2021-11-30 08:23:11.688159","","","","","","",""
3.0,0.08857828378677368,0.0003708764678596317,"train",4100.0,"2021-11-30 08:23:16.004468","","","","","","",""
3.0,0.08053767681121826,0.00037356654030891293,"train",4120.0,"2021-11-30 08:23:19.933985","","","","","","",""
3.0,0.07062336057424545,0.0003762667513775148,"train",4140.0,"2021-11-30 08:23:24.221293","","","","","","",""
3.0,0.07353168725967407,0.0003789770599864498,"train",4160.0,"2021-11-30 08:23:28.172357","","","","","","",""
3.0,0.09183257073163986,0.000381697424903113,"train",4180.0,"2021-11-30 08:23:32.093474","","","","","","",""
3.0,0.062093380838632584,0.0003844278047419108,"train",4200.0,"2021-11-30 08:23:36.456498","","","","","","",""
3.0,0.07772963494062424,0.0003871681579648903,"train",4220.0,"2021-11-30 08:23:40.463930","","","","","","",""
3.0,0.0775427296757698,0.0003899184428823709,"train",4240.0,"2021-11-30 08:23:44.400731","","","","","","",""
3.0,0.0751771479845047,0.0003926786176535783,"train",4260.0,"2021-11-30 08:23:48.628017","","","","","","",""
3.0,0.06545291841030121,0.0003954486402872818,"train",4280.0,"2021-11-30 08:23:52.518225","","","","","","",""
3.0,"","","train",4296.0,"2021-11-30 08:25:39.605754",0.5142690824419704,0.4357576957198559,0.8952429926339932,0.48893931213916386,0.3293204804390484,0.3339577756891852,0.2235801054496053
3.0,"","","val",4296.0,"2021-11-30 08:26:08.119895",0.5099733271483242,0.42507774864596826,0.888697225687401,0.48005744617342005,0.32359654761783535,0.32478539610676094,0.21662401217187732
4.0,0.07641015946865082,0.0003982284686424324,"train",4300.0,"2021-11-30 08:26:12.260444","","","","","","",""
4.0,0.10254115611314774,0.0004010180604288045,"train",4320.0,"2021-11-30 08:26:16.776062","","","","","","",""
4.0,0.0879107266664505,0.00040381737320763873,"train",4340.0,"2021-11-30 08:26:21.178721","","","","","","",""
4.0,0.08968332409858704,0.0004066263643922878,"train",4360.0,"2021-11-30 08:26:25.185193","","","","","","",""
4.0,0.08343770354986191,0.0004094449912488646,"train",4380.0,"2021-11-30 08:26:29.528836","","","","","","",""
4.0,0.07676222920417786,0.0004122732108968923,"train",4400.0,"2021-11-30 08:26:33.595071","","","","","","",""
4.0,0.07637262344360352,0.0004151109803099558,"train",4420.0,"2021-11-30 08:26:38.076425","","","","","","",""
4.0,0.09766459465026855,0.00041795825631635764,"train",4440.0,"2021-11-30 08:26:42.077653","","","","","","",""
4.0,0.06907369941473007,0.0004208149955997739,"train",4460.0,"2021-11-30 08:26:46.540289","","","","","","",""
4.0,0.09322034567594528,0.0004236811546999141,"train",4480.0,"2021-11-30 08:26:50.901479","","","","","","",""
4.0,0.08596213161945343,0.0004265566900131805,"train",4500.0,"2021-11-30 08:26:55.025527","","","","","","",""
4.0,0.09642408788204193,0.0004294415577933337,"train",4520.0,"2021-11-30 08:26:59.577357","","","","","","",""
4.0,0.08801073580980301,0.00043233571415215717,"train",4540.0,"2021-11-30 08:27:03.641420","","","","","","",""
4.0,0.08930813521146774,0.0004352391150601242,"train",4560.0,"2021-11-30 08:27:08.113767","","","","","","",""
4.0,0.0775429978966713,0.0004381517163470684,"train",4580.0,"2021-11-30 08:27:12.184988","","","","","","",""
4.0,0.08529863506555557,0.00044107347370285683,"train",4600.0,"2021-11-30 08:27:16.568862","","","","","","",""
4.0,0.06520155817270279,0.00044400434267806194,"train",4620.0,"2021-11-30 08:27:20.947416","","","","","","",""
4.0,0.061298854649066925,0.00044694427868463907,"train",4640.0,"2021-11-30 08:27:24.991248","","","","","","",""
4.0,0.06721794605255127,0.00044989323699660467,"train",4660.0,"2021-11-30 08:27:29.332692","","","","","","",""
4.0,0.07648619264364243,0.0004528511727507165,"train",4680.0,"2021-11-30 08:27:33.338246","","","","","","",""
4.0,0.1007482185959816,0.00045581804094715645,"train",4700.0,"2021-11-30 08:27:37.689741","","","","","","",""
4.0,0.08661866188049316,0.00045879379645021425,"train",4720.0,"2021-11-30 08:27:41.695401","","","","","","",""
4.0,0.09282401204109192,0.0004617783939889759,"train",4740.0,"2021-11-30 08:27:46.139130","","","","","","",""
4.0,0.07142447680234909,0.0004647717881580103,"train",4760.0,"2021-11-30 08:27:50.587148","","","","","","",""
4.0,0.06874647736549377,0.0004677739334180617,"train",4780.0,"2021-11-30 08:27:54.564549","","","","","","",""
4.0,0.06587117910385132,0.00047078478409674144,"train",4800.0,"2021-11-30 08:27:58.954549","","","","","","",""
4.0,0.09007573127746582,0.00047380429438922305,"train",4820.0,"2021-11-30 08:28:02.977340","","","","","","",""
4.0,0.09596732258796692,0.00047683241835893946,"train",4840.0,"2021-11-30 08:28:07.516174","","","","","","",""
4.0,0.08456570655107498,0.0004798691099382815,"train",4860.0,"2021-11-30 08:28:11.558531","","","","","","",""
4.0,0.0841066762804985,0.0004829143229292986,"train",4880.0,"2021-11-30 08:28:15.830261","","","","","","",""
4.0,0.1132582575082779,0.0004859680110044023,"train",4900.0,"2021-11-30 08:28:19.991254","","","","","","",""
4.0,0.10469508916139603,0.0004890301277070699,"train",4920.0,"2021-11-30 08:28:23.897238","","","","","","",""
4.0,0.09090878814458847,0.0004921006264525525,"train",4940.0,"2021-11-30 08:28:28.167411","","","","","","",""
4.0,0.07404593378305435,0.0004951794605285824,"train",4960.0,"2021-11-30 08:28:32.242183","","","","","","",""
4.0,0.0774628072977066,0.0004982665830960853,"train",4980.0,"2021-11-30 08:28:36.679838","","","","","","",""
4.0,0.10136562585830688,0.0005013619471898913,"train",5000.0,"2021-11-30 08:28:40.786570","","","","","","",""
4.0,0.11053311079740524,0.0005044655057194504,"train",5020.0,"2021-11-30 08:28:45.254914","","","","","","",""
4.0,0.048425253480672836,0.0005075772114695486,"train",5040.0,"2021-11-30 08:28:49.683370","","","","","","",""
4.0,0.08845101296901703,0.0005106970171010257,"train",5060.0,"2021-11-30 08:28:53.748516","","","","","","",""
4.0,0.0948021411895752,0.0005138248751514966,"train",5080.0,"2021-11-30 08:28:58.184788","","","","","","",""
4.0,0.11145971715450287,0.0005169607380360731,"train",5100.0,"2021-11-30 08:29:02.294775","","","","","","",""
4.0,0.07851388305425644,0.000520104558048086,"train",5120.0,"2021-11-30 08:29:06.789238","","","","","","",""
4.0,0.07659711688756943,0.0005232562873598136,"train",5140.0,"2021-11-30 08:29:10.944625","","","","","","",""
4.0,0.06522328406572342,0.0005264158780232072,"train",5160.0,"2021-11-30 08:29:15.465210","","","","","","",""
4.0,0.10943726450204849,0.0005295832819706228,"train",5180.0,"2021-11-30 08:29:19.967988","","","","","","",""
4.0,0.09370336681604385,0.0005327584510155488,"train",5200.0,"2021-11-30 08:29:24.057710","","","","","","",""
4.0,0.06391789019107819,0.000535941336853343,"train",5220.0,"2021-11-30 08:29:28.496029","","","","","","",""
4.0,0.07527385652065277,0.0005391318910619655,"train",5240.0,"2021-11-30 08:29:32.551320","","","","","","",""
4.0,0.07447709888219833,0.0005423300651027144,"train",5260.0,"2021-11-30 08:29:36.958275","","","","","","",""
4.0,0.0852554589509964,0.0005455358103209663,"train",5280.0,"2021-11-30 08:29:41.073541","","","","","","",""
4.0,0.0662526935338974,0.0005487490779469157,"train",5300.0,"2021-11-30 08:29:45.642157","","","","","","",""
4.0,0.059067998081445694,0.000551969819096316,"train",5320.0,"2021-11-30 08:29:50.111372","","","","","","",""
4.0,0.0606623999774456,0.0005551979847712252,"train",5340.0,"2021-11-30 08:29:54.247956","","","","","","",""
4.0,0.07768271863460541,0.0005584335258607489,"train",5360.0,"2021-11-30 08:29:58.737828","","","","","","",""
4.0,"","","train",5370.0,"2021-11-30 08:31:44.743139",0.5374517936403987,0.4768857705036375,0.9136482609553996,0.5209420562862938,0.35293566591869047,0.36337550623749226,0.24239320083107602
4.0,"","","val",5370.0,"2021-11-30 08:32:12.984972",0.5292241679229966,0.4618980058709691,0.9076601216314586,0.5085302019580278,0.34608781128941213,0.35430016510265633,0.23506865615943828
5.0,0.07581821829080582,0.0005616763931417894,"train",5380.0,"2021-11-30 08:32:18.413135","","","","","","",""
5.0,0.07180491834878922,0.0005649265372797939,"train",5400.0,"2021-11-30 08:32:23.077303","","","","","","",""
5.0,0.08772606402635574,0.0005681839088295046,"train",5420.0,"2021-11-30 08:32:27.640613","","","","","","",""
5.0,0.07665606588125229,0.0005714484582357109,"train",5440.0,"2021-11-30 08:32:32.082165","","","","","","",""
5.0,0.09259358048439026,0.0005747201358340048,"train",5460.0,"2021-11-30 08:32:36.475722","","","","","","",""
5.0,0.07022284716367722,0.0005779988918515344,"train",5480.0,"2021-11-30 08:32:40.482228","","","","","","",""
5.0,0.0878041461110115,0.0005812846764077623,"train",5500.0,"2021-11-30 08:32:44.994935","","","","","","",""
5.0,0.07504643499851227,0.0005845774395152243,"train",5520.0,"2021-11-30 08:32:49.540001","","","","","","",""
5.0,0.07386352121829987,0.0005878771310802895,"train",5540.0,"2021-11-30 08:32:54.100315","","","","","","",""
5.0,0.06875620037317276,0.0005911837009039229,"train",5560.0,"2021-11-30 08:32:58.682856","","","","","","",""
5.0,0.09057039767503738,0.0005944970986824485,"train",5580.0,"2021-11-30 08:33:02.865871","","","","","","",""
5.0,0.07575435936450958,0.000597817274008315,"train",5600.0,"2021-11-30 08:33:07.237946","","","","","","",""
5.0,0.09030980616807938,0.0006011441763708635,"train",5620.0,"2021-11-30 08:33:11.587448","","","","","","",""
5.0,0.06964940577745438,0.0006044777551570929,"train",5640.0,"2021-11-30 08:33:16.060806","","","","","","",""
5.0,0.10908987373113632,0.000607817959652434,"train",5660.0,"2021-11-30 08:33:20.622956","","","","","","",""
5.0,0.06899745017290115,0.0006111647390415189,"train",5680.0,"2021-11-30 08:33:24.695484","","","","","","",""
5.0,0.08006710559129715,0.0006145180424089525,"train",5700.0,"2021-11-30 08:33:29.025630","","","","","","",""
5.0,0.07609477639198303,0.0006178778187400902,"train",5720.0,"2021-11-30 08:33:33.324859","","","","","","",""
5.0,0.09260330349206924,0.0006212440169218129,"train",5740.0,"2021-11-30 08:33:37.641670","","","","","","",""
5.0,0.08344817161560059,0.0006246165857433027,"train",5760.0,"2021-11-30 08:33:41.980050","","","","","","",""
5.0,0.09030263870954514,0.0006279954738968251,"train",5780.0,"2021-11-30 08:33:46.124916","","","","","","",""
5.0,0.07208933681249619,0.0006313806299785075,"train",5800.0,"2021-11-30 08:33:50.641189","","","","","","",""
5.0,0.06860215216875076,0.0006347720024891209,"train",5820.0,"2021-11-30 08:33:55.153618","","","","","","",""
5.0,0.07857901602983475,0.0006381695398348657,"train",5840.0,"2021-11-30 08:33:59.671144","","","","","","",""
5.0,0.08276303112506866,0.0006415731903281542,"train",5860.0,"2021-11-30 08:34:04.199226","","","","","","",""
5.0,0.06942684948444366,0.0006449829021883979,"train",5880.0,"2021-11-30 08:34:08.326852","","","","","","",""
5.0,0.09311318397521973,0.0006483986235427956,"train",5900.0,"2021-11-30 08:34:12.683672","","","","","","",""
5.0,0.059618737548589706,0.0006518203024271213,"train",5920.0,"2021-11-30 08:34:17.036867","","","","","","",""
5.0,0.07699783146381378,0.0006552478867865169,"train",5940.0,"2021-11-30 08:34:21.385824","","","","","","",""
5.0,0.10894174128770828,0.0006586813244762815,"train",5960.0,"2021-11-30 08:34:25.755720","","","","","","",""
5.0,0.07000642269849777,0.0006621205632626672,"train",5980.0,"2021-11-30 08:34:29.877116","","","","","","",""
5.0,0.07118454575538635,0.0006655655508236717,"train",6000.0,"2021-11-30 08:34:34.401484","","","","","","",""
5.0,0.0984940230846405,0.0006690162347498356,"train",6020.0,"2021-11-30 08:34:39.057009","","","","","","",""
5.0,0.06596225500106812,0.0006724725625450389,"train",6040.0,"2021-11-30 08:34:43.659762","","","","","","",""
5.0,0.08743391185998917,0.0006759344816273003,"train",6060.0,"2021-11-30 08:34:48.281997","","","","","","",""
5.0,0.09165190160274506,0.0006794019393295771,"train",6080.0,"2021-11-30 08:34:52.379364","","","","","","",""
5.0,0.0952509343624115,0.0006828748829005654,"train",6100.0,"2021-11-30 08:34:56.916855","","","","","","",""
5.0,0.08513805270195007,0.0006863532595055041,"train",6120.0,"2021-11-30 08:35:01.379928","","","","","","",""
5.0,0.08054147660732269,0.0006898370162269777,"train",6140.0,"2021-11-30 08:35:05.914694","","","","","","",""
5.0,0.07275661826133728,0.0006933261000657217,"train",6160.0,"2021-11-30 08:35:10.474190","","","","","","",""
5.0,0.07559135556221008,0.000696820457941429,"train",6180.0,"2021-11-30 08:35:14.659647","","","","","","",""
5.0,0.07456948608160019,0.000700320036693557,"train",6200.0,"2021-11-30 08:35:19.217864","","","","","","",""
5.0,0.07680705189704895,0.0007038247830821358,"train",6220.0,"2021-11-30 08:35:23.868208","","","","","","",""
5.0,0.06491434574127197,0.0007073346437885815,"train",6240.0,"2021-11-30 08:35:28.523516","","","","","","",""
5.0,0.09128054976463318,0.000710849565416502,"train",6260.0,"2021-11-30 08:35:33.112387","","","","","","",""
5.0,0.06690631061792374,0.0007143694944925134,"train",6280.0,"2021-11-30 08:35:37.354219","","","","","","",""
5.0,0.07035830616950989,0.0007178943774670524,"train",6300.0,"2021-11-30 08:35:41.918474","","","","","","",""
5.0,0.07987800240516663,0.0007214241607151901,"train",6320.0,"2021-11-30 08:35:46.492370","","","","","","",""
5.0,0.10179212689399719,0.000724958790537449,"train",6340.0,"2021-11-30 08:35:51.051349","","","","","","",""
5.0,0.07188219577074051,0.0007284982131606195,"train",6360.0,"2021-11-30 08:35:55.574234","","","","","","",""
5.0,0.08423983305692673,0.0007320423747385781,"train",6380.0,"2021-11-30 08:35:59.766794","","","","","","",""
5.0,0.10135935246944427,0.0007355912213531054,"train",6400.0,"2021-11-30 08:36:04.251591","","","","","","",""
5.0,0.07633065432310104,0.000739144699014708,"train",6420.0,"2021-11-30 08:36:08.678318","","","","","","",""
5.0,0.060786958783864975,0.0007427027536634401,"train",6440.0,"2021-11-30 08:36:13.243555","","","","","","",""
5.0,"","","train",6444.0,"2021-11-30 08:37:59.644708",0.5519173397365932,0.503014935309757,0.923807577019769,0.5677353609073461,0.3889267249042146,0.3931396406853018,0.2680163826053529
5.0,"","","val",6444.0,"2021-11-30 08:38:28.164615",0.5455757856894352,0.4863797725238651,0.9188889607360984,0.5546162273701757,0.37853883746657774,0.37990443787156397,0.2582502024307971
6.0,0.0884551927447319,0.0007462653311697235,"train",6460.0,"2021-11-30 08:38:34.919947","","","","","","",""
6.0,0.0657670870423317,0.0007498323773351733,"train",6480.0,"2021-11-30 08:38:39.093723","","","","","","",""
6.0,0.058821938931941986,0.0007534038378934223,"train",6500.0,"2021-11-30 08:38:43.165514","","","","","","",""
6.0,0.06955190002918243,0.0007569796585109453,"train",6520.0,"2021-11-30 08:38:47.708608","","","","","","",""
6.0,0.057289618998765945,0.0007605597847878862,"train",6540.0,"2021-11-30 08:38:51.770950","","","","","","",""
6.0,0.08544060587882996,0.0007641441622588871,"train",6560.0,"2021-11-30 08:38:55.790106","","","","","","",""
6.0,0.08474254608154297,0.0007677327363939143,"train",6580.0,"2021-11-30 08:38:59.915653","","","","","","",""
6.0,0.11109939962625504,0.0007713254525990895,"train",6600.0,"2021-11-30 08:39:03.956967","","","","","","",""
6.0,0.07121195644140244,0.0007749222562175211,"train",6620.0,"2021-11-30 08:39:07.915037","","","","","","",""
6.0,0.06774336844682693,0.000778523092530133,"train",6640.0,"2021-11-30 08:39:11.920902","","","","","","",""
6.0,0.07090632617473602,0.0007821279067564996,"train",6660.0,"2021-11-30 08:39:16.447706","","","","","","",""
6.0,0.0728110745549202,0.0007857366440556786,"train",6680.0,"2021-11-30 08:39:20.432093","","","","","","",""
6.0,0.06749753654003143,0.0007893492495270442,"train",6700.0,"2021-11-30 08:39:24.451243","","","","","","",""
6.0,0.0762249231338501,0.0007929656682111239,"train",6720.0,"2021-11-30 08:39:28.423586","","","","","","",""
6.0,0.07352995872497559,0.0007965858450904332,"train",6740.0,"2021-11-30 08:39:32.386848","","","","","","",""
6.0,0.08785238862037659,0.000800209725090314,"train",6760.0,"2021-11-30 08:39:36.430033","","","","","","",""
6.0,0.06750939786434174,0.0008038372530797706,"train",6780.0,"2021-11-30 08:39:40.928559","","","","","","",""
6.0,0.08953188359737396,0.0008074683738723109,"train",6800.0,"2021-11-30 08:39:45.056693","","","","","","",""
6.0,0.06287733465433121,0.0008111030322267832,"train",6820.0,"2021-11-30 08:39:49.184137","","","","","","",""
6.0,0.07781408727169037,0.0008147411728482187,"train",6840.0,"2021-11-30 08:39:53.196707","","","","","","",""
6.0,0.08196292072534561,0.0008183827403886721,"train",6860.0,"2021-11-30 08:39:57.206147","","","","","","",""
6.0,0.12279324233531952,0.0008220276794480633,"train",6880.0,"2021-11-30 08:40:01.293708","","","","","","",""
6.0,0.05740584805607796,0.0008256759345750203,"train",6900.0,"2021-11-30 08:40:05.289971","","","","","","",""
6.0,0.0859827846288681,0.0008293274502677234,"train",6920.0,"2021-11-30 08:40:09.664297","","","","","","",""
6.0,0.07008079439401627,0.0008329821709747486,"train",6940.0,"2021-11-30 08:40:13.599217","","","","","","",""
6.0,0.07137354463338852,0.0008366400410959136,"train",6960.0,"2021-11-30 08:40:17.540138","","","","","","",""
6.0,0.05060063675045967,0.000840301004983123,"train",6980.0,"2021-11-30 08:40:21.511452","","","","","","",""
6.0,0.0749998390674591,0.0008439650069412147,"train",7000.0,"2021-11-30 08:40:25.625213","","","","","","",""
6.0,0.06612783670425415,0.0008476319912288095,"train",7020.0,"2021-11-30 08:40:29.567265","","","","","","",""
6.0,0.10770896822214127,0.0008513019020591544,"train",7040.0,"2021-11-30 08:40:33.491690","","","","","","",""
6.0,0.07337397336959839,0.0008549746836009771,"train",7060.0,"2021-11-30 08:40:37.861372","","","","","","",""
6.0,0.059300657361745834,0.0008586502799793306,"train",7080.0,"2021-11-30 08:40:41.866893","","","","","","",""
6.0,0.07301759719848633,0.0008623286352764453,"train",7100.0,"2021-11-30 08:40:45.929116","","","","","","",""
6.0,0.07899057120084763,0.0008660096935325802,"train",7120.0,"2021-11-30 08:40:50.005015","","","","","","",""
6.0,0.0866498127579689,0.0008696933987468731,"train",7140.0,"2021-11-30 08:40:54.103275","","","","","","",""
6.0,0.11012690514326096,0.0008733796948781924,"train",7160.0,"2021-11-30 08:40:58.218250","","","","","","",""
6.0,0.07521598786115646,0.0008770685258459915,"train",7180.0,"2021-11-30 08:41:02.779794","","","","","","",""
6.0,0.07474339008331299,0.0008807598355311595,"train",7200.0,"2021-11-30 08:41:06.832113","","","","","","",""
6.0,0.05933568626642227,0.0008844535677768764,"train",7220.0,"2021-11-30 08:41:10.890553","","","","","","",""
6.0,0.07095728814601898,0.0008881496663894681,"train",7240.0,"2021-11-30 08:41:14.964082","","","","","","",""
6.0,0.09573409706354141,0.0008918480751392592,"train",7260.0,"2021-11-30 08:41:19.029177","","","","","","",""
6.0,0.10799013823270798,0.00089554873776143,"train",7280.0,"2021-11-30 08:41:23.046380","","","","","","",""
6.0,0.0759909376502037,0.0008992515979568724,"train",7300.0,"2021-11-30 08:41:27.022879","","","","","","",""
6.0,0.07278716564178467,0.0009029565993930457,"train",7320.0,"2021-11-30 08:41:31.400678","","","","","","",""
6.0,0.0813143402338028,0.0009066636857048339,"train",7340.0,"2021-11-30 08:41:35.575976","","","","","","",""
6.0,0.07513031363487244,0.0009103728004954039,"train",7360.0,"2021-11-30 08:41:39.759479","","","","","","",""
6.0,0.05596362054347992,0.0009140838873370617,"train",7380.0,"2021-11-30 08:41:43.974450","","","","","","",""
6.0,0.06651626527309418,0.0009177968897721136,"train",7400.0,"2021-11-30 08:41:48.127623","","","","","","",""
6.0,0.05840112268924713,0.0009215117513137218,"train",7420.0,"2021-11-30 08:41:52.251994","","","","","","",""
6.0,0.07046259194612503,0.0009252284154467663,"train",7440.0,"2021-11-30 08:41:56.658795","","","","","","",""
6.0,0.06082315742969513,0.0009289468256287042,"train",7460.0,"2021-11-30 08:42:00.758624","","","","","","",""
6.0,0.08083444088697433,0.0009326669252904287,"train",7480.0,"2021-11-30 08:42:04.877258","","","","","","",""
6.0,0.07179859280586243,0.0009363886578371307,"train",7500.0,"2021-11-30 08:42:09.041873","","","","","","",""
6.0,"","","train",7518.0,"2021-11-30 08:43:57.380877",0.5759441170050207,0.5289162179170203,0.9302751589279131,0.5717527630553199,0.4075644847014211,0.4152261261927034,0.2870041085410453
6.0,"","","val",7518.0,"2021-11-30 08:44:25.597607",0.5594920561289575,0.5028696937173973,0.9220502891216419,0.550875491044578,0.38621699007490295,0.3931894273787593,0.263937613561818
7.0,0.0731772929430008,0.0009401119666491604,"train",7520.0,"2021-11-30 08:44:29.306037","","","","","","",""
7.0,0.0938546359539032,0.0009438367950828869,"train",7540.0,"2021-11-30 08:44:33.271770","","","","","","",""
7.0,0.06132730469107628,0.000947563086471561,"train",7560.0,"2021-11-30 08:44:37.651133","","","","","","",""
7.0,0.07415138185024261,0.0009512907841261783,"train",7580.0,"2021-11-30 08:44:41.586971","","","","","","",""
7.0,0.0589178167283535,0.0009550198313363391,"train",7600.0,"2021-11-30 08:44:46.026246","","","","","","",""
7.0,0.11613180488348007,0.0009587501713711128,"train",7620.0,"2021-11-30 08:44:50.219222","","","","","","",""
7.0,0.08943068236112595,0.0009624817474799023,"train",7640.0,"2021-11-30 08:44:54.388824","","","","","","",""
7.0,0.06919193267822266,0.0009662145028933038,"train",7660.0,"2021-11-30 08:44:58.938031","","","","","","",""
7.0,0.11985128372907639,0.0009699483808239733,"train",7680.0,"2021-11-30 08:45:02.907512","","","","","","",""
7.0,0.07516457140445709,0.0009736833244674895,"train",7700.0,"2021-11-30 08:45:06.842834","","","","","","",""
7.0,0.10886601358652115,0.0009774192770032192,"train",7720.0,"2021-11-30 08:45:11.259878","","","","","","",""
7.0,0.0672430768609047,0.0009811561815951785,"train",7740.0,"2021-11-30 08:45:15.323598","","","","","","",""
7.0,0.08800776302814484,0.0009848939813929015,"train",7760.0,"2021-11-30 08:45:19.369222","","","","","","",""
7.0,0.09031309187412262,0.0009886326195323026,"train",7780.0,"2021-11-30 08:45:23.789457","","","","","","",""
7.0,0.08365276455879211,0.0009923720391365428,"train",7800.0,"2021-11-30 08:45:27.846869","","","","","","",""
7.0,0.08389900624752045,0.000996112183316893,"train",7820.0,"2021-11-30 08:45:31.870750","","","","","","",""
7.0,0.06608328968286514,0.0009998529951736029,"train",7840.0,"2021-11-30 08:45:36.253161","","","","","","",""
7.0,0.10261992365121841,0.0010035944177967638,"train",7860.0,"2021-11-30 08:45:40.287307","","","","","","",""
7.0,0.1047462448477745,0.0010073363942671744,"train",7880.0,"2021-11-30 08:45:44.656498","","","","","","",""
7.0,0.08584608137607574,0.0010110788676572094,"train",7900.0,"2021-11-30 08:45:48.648629","","","","","","",""
7.0,0.09326062351465225,0.0010148217810316822,"train",7920.0,"2021-11-30 08:45:52.670345","","","","","","",""
7.0,0.0770844891667366,0.0010185650774487127,"train",7940.0,"2021-11-30 08:45:57.138516","","","","","","",""
7.0,0.06392473727464676,0.0010223086999605951,"train",7960.0,"2021-11-30 08:46:01.154863","","","","","","",""
7.0,0.07178594917058945,0.0010260525916146609,"train",7980.0,"2021-11-30 08:46:05.174375","","","","","","",""
7.0,0.049239445477724075,0.0010297966954541469,"train",8000.0,"2021-11-30 08:46:09.574199","","","","","","",""
7.0,0.0730779841542244,0.001033540954519064,"train",8020.0,"2021-11-30 08:46:13.679152","","","","","","",""
7.0,0.052995987236499786,0.0010372853118470592,"train",8040.0,"2021-11-30 08:46:17.727398","","","","","","",""
7.0,0.07555093616247177,0.0010410297104742857,"train",8060.0,"2021-11-30 08:46:22.055096","","","","","","",""
7.0,0.06197455897927284,0.0010447740934362692,"train",8080.0,"2021-11-30 08:46:26.011761","","","","","","",""
7.0,0.10148527473211288,0.0010485184037687715,"train",8100.0,"2021-11-30 08:46:29.960617","","","","","","",""
7.0,0.08688034117221832,0.0010522625845086615,"train",8120.0,"2021-11-30 08:46:34.281880","","","","","","",""
7.0,0.08901180326938629,0.0010560065786947796,"train",8140.0,"2021-11-30 08:46:38.251342","","","","","","",""
7.0,0.05372175574302673,0.0010597503293688013,"train",8160.0,"2021-11-30 08:46:42.620208","","","","","","",""
7.0,0.08699757605791092,0.001063493779576111,"train",8180.0,"2021-11-30 08:46:46.665634","","","","","","",""
7.0,0.053112536668777466,0.0010672368723666614,"train",8200.0,"2021-11-30 08:46:50.615284","","","","","","",""
7.0,0.06563112139701843,0.0010709795507958426,"train",8220.0,"2021-11-30 08:46:54.893540","","","","","","",""
7.0,0.05726763606071472,0.0010747217579253504,"train",8240.0,"2021-11-30 08:46:58.826762","","","","","","",""
7.0,0.06076021492481232,0.0010784634368240487,"train",8260.0,"2021-11-30 08:47:02.837237","","","","","","",""
7.0,0.06149555370211601,0.0010822045305688382,"train",8280.0,"2021-11-30 08:47:07.184093","","","","","","",""
7.0,0.069386325776577,0.0010859449822455227,"train",8300.0,"2021-11-30 08:47:11.160530","","","","","","",""
7.0,0.08958903700113297,0.001089684734949672,"train",8320.0,"2021-11-30 08:47:15.113449","","","","","","",""
7.0,0.08661680668592453,0.00109342373178749,"train",8340.0,"2021-11-30 08:47:19.418841","","","","","","",""
7.0,0.057189274579286575,0.0010971619158766821,"train",8360.0,"2021-11-30 08:47:23.352694","","","","","","",""
7.0,0.06438460946083069,0.0011008992303473152,"train",8380.0,"2021-11-30 08:47:27.281390","","","","","","",""
7.0,0.05425390228629112,0.001104635618342687,"train",8400.0,"2021-11-30 08:47:31.716392","","","","","","",""
7.0,0.07599527388811111,0.001108371023020191,"train",8420.0,"2021-11-30 08:47:35.788396","","","","","","",""
7.0,0.061748653650283813,0.0011121053875521787,"train",8440.0,"2021-11-30 08:47:40.222145","","","","","","",""
7.0,0.09603839367628098,0.0011158386551268257,"train",8460.0,"2021-11-30 08:47:44.279598","","","","","","",""
7.0,0.0914183259010315,0.0011195707689489972,"train",8480.0,"2021-11-30 08:47:48.222248","","","","","","",""
7.0,0.10414591431617737,0.0011233016722411097,"train",8500.0,"2021-11-30 08:47:52.577231","","","","","","",""
7.0,0.06947775930166245,0.0011270313082439951,"train",8520.0,"2021-11-30 08:47:56.694031","","","","","","",""
7.0,0.07681705057621002,0.001130759620217767,"train",8540.0,"2021-11-30 08:48:00.750459","","","","","","",""
7.0,0.05579447001218796,0.0011344865514426794,"train",8560.0,"2021-11-30 08:48:05.236901","","","","","","",""
7.0,0.06828024238348007,0.0011382120452199938,"train",8580.0,"2021-11-30 08:48:09.366010","","","","","","",""
7.0,"","","train",8592.0,"2021-11-30 08:49:55.201889",0.5620170268500327,0.5435411052687553,0.9351378470113624,0.6018895908573582,0.4293515742168627,0.43791675333314173,0.2950807646767069
7.0,"","","val",8592.0,"2021-11-30 08:50:23.438117",0.5501565580424447,0.5176955047619374,0.9288163681137603,0.5839298748284492,0.41262684121379095,0.4194232525704805,0.2782502416886093
8.0,0.09792695194482803,0.001141936044872839,"train",8600.0,"2021-11-30 08:50:28.746692","","","","","","",""
8.0,0.06686867028474808,0.0011456584937470744,"train",8620.0,"2021-11-30 08:50:32.864514","","","","","","",""
8.0,0.05966086685657501,0.0011493793352121522,"train",8640.0,"2021-11-30 08:50:37.224174","","","","","","",""
8.0,0.08480753004550934,0.0011530985126619784,"train",8660.0,"2021-11-30 08:50:41.260629","","","","","","",""
8.0,0.08706936985254288,0.001156815969515773,"train",8680.0,"2021-11-30 08:50:45.569555","","","","","","",""
8.0,0.07693897187709808,0.001160531649218934,"train",8700.0,"2021-11-30 08:50:49.539041","","","","","","",""
8.0,0.070393405854702,0.001164245495243894,"train",8720.0,"2021-11-30 08:50:53.885992","","","","","","",""
8.0,0.08130637556314468,0.0011679574510909817,"train",8740.0,"2021-11-30 08:50:57.850946","","","","","","",""
8.0,0.0608641654253006,0.0011716674602892828,"train",8760.0,"2021-11-30 08:51:02.144382","","","","","","",""
8.0,0.062445268034935,0.0011753754663974968,"train",8780.0,"2021-11-30 08:51:06.414595","","","","","","",""
8.0,0.06635092198848724,0.0011790814130047968,"train",8800.0,"2021-11-30 08:51:10.422010","","","","","","",""
8.0,0.07522553205490112,0.001182785243731688,"train",8820.0,"2021-11-30 08:51:14.808896","","","","","","",""
8.0,0.09559972584247589,0.0011864869022308656,"train",8840.0,"2021-11-30 08:51:18.858612","","","","","","",""
8.0,0.0712331235408783,0.0011901863321880693,"train",8860.0,"2021-11-30 08:51:23.137682","","","","","","",""
8.0,0.07135482877492905,0.001193883477322945,"train",8880.0,"2021-11-30 08:51:27.108273","","","","","","",""
8.0,0.10096026957035065,0.0011975782813898961,"train",8900.0,"2021-11-30 08:51:31.473131","","","","","","",""
8.0,0.06315126270055771,0.0012012706881789417,"train",8920.0,"2021-11-30 08:51:35.425358","","","","","","",""
8.0,0.0523979589343071,0.001204960641516572,"train",8940.0,"2021-11-30 08:51:39.728121","","","","","","",""
8.0,0.06697621941566467,0.0012086480852666014,"train",8960.0,"2021-11-30 08:51:44.044301","","","","","","",""
8.0,0.0881432443857193,0.0012123329633310235,"train",8980.0,"2021-11-30 08:51:48.005942","","","","","","",""
8.0,0.0819571241736412,0.0012160152196508643,"train",9000.0,"2021-11-30 08:51:52.212756","","","","","","",""
8.0,0.07762511819601059,0.0012196947982070355,"train",9020.0,"2021-11-30 08:51:56.024361","","","","","","",""
8.0,0.05648587644100189,0.0012233716430211856,"train",9040.0,"2021-11-30 08:52:00.180184","","","","","","",""
8.0,0.06287481635808945,0.001227045698156553,"train",9060.0,"2021-11-30 08:52:03.988269","","","","","","",""
8.0,0.10373315960168839,0.0012307169077188148,"train",9080.0,"2021-11-30 08:52:08.162249","","","","","","",""
8.0,0.05577236786484718,0.0012343852158569401,"train",9100.0,"2021-11-30 08:52:12.105895","","","","","","",""
8.0,0.09374482929706573,0.0012380505667640377,"train",9120.0,"2021-11-30 08:52:16.675509","","","","","","",""
8.0,0.06581802666187286,0.0012417129046782046,"train",9140.0,"2021-11-30 08:52:21.079163","","","","","","",""
8.0,0.06441114842891693,0.0012453721738833758,"train",9160.0,"2021-11-30 08:52:25.131431","","","","","","",""
8.0,0.07149067521095276,0.001249028318710172,"train",9180.0,"2021-11-30 08:52:29.554450","","","","","","",""
8.0,0.09787558764219284,0.0012526812835367447,"train",9200.0,"2021-11-30 08:52:33.643166","","","","","","",""
8.0,0.07255647331476212,0.0012563310127896242,"train",9220.0,"2021-11-30 08:52:38.048885","","","","","","",""
8.0,0.0784556195139885,0.0012599774509445645,"train",9240.0,"2021-11-30 08:52:42.174602","","","","","","",""
8.0,0.06543532758951187,0.0012636205425273874,"train",9260.0,"2021-11-30 08:52:46.674622","","","","","","",""
8.0,0.0571942999958992,0.0012672602321148268,"train",9280.0,"2021-11-30 08:52:50.750627","","","","","","",""
8.0,0.06646165996789932,0.0012708964643353732,"train",9300.0,"2021-11-30 08:52:55.268421","","","","","","",""
8.0,0.08797241747379303,0.001274529183870114,"train",9320.0,"2021-11-30 08:52:59.843094","","","","","","",""
8.0,0.0929403156042099,0.0012781583354535748,"train",9340.0,"2021-11-30 08:53:03.935528","","","","","","",""
8.0,0.05768800526857376,0.0012817838638745646,"train",9360.0,"2021-11-30 08:53:08.389143","","","","","","",""
8.0,0.05406627058982849,0.001285405713977009,"train",9380.0,"2021-11-30 08:53:12.449708","","","","","","",""
8.0,0.06403952836990356,0.0012890238306607947,"train",9400.0,"2021-11-30 08:53:16.934616","","","","","","",""
8.0,0.08747683465480804,0.001292638158882606,"train",9420.0,"2021-11-30 08:53:21.052074","","","","","","",""
8.0,0.08323340862989426,0.0012962486436567603,"train",9440.0,"2021-11-30 08:53:25.469384","","","","","","",""
8.0,0.0705113634467125,0.0012998552300560484,"train",9460.0,"2021-11-30 08:53:29.532819","","","","","","",""
8.0,0.0665786936879158,0.0013034578632125668,"train",9480.0,"2021-11-30 08:53:33.953331","","","","","","",""
8.0,0.0859624370932579,0.0013070564883185534,"train",9500.0,"2021-11-30 08:53:38.356940","","","","","","",""
8.0,0.0808066874742508,0.001310651050627223,"train",9520.0,"2021-11-30 08:53:42.481589","","","","","","",""
8.0,0.09943211078643799,0.001314241495453598,"train",9540.0,"2021-11-30 08:53:46.812861","","","","","","",""
8.0,0.10073770582675934,0.00131782776817534,"train",9560.0,"2021-11-30 08:53:50.932881","","","","","","",""
8.0,0.07979685068130493,0.0013214098142335837,"train",9580.0,"2021-11-30 08:53:55.375106","","","","","","",""
8.0,0.062345173209905624,0.001324987579133764,"train",9600.0,"2021-11-30 08:53:59.480138","","","","","","",""
8.0,0.07379291951656342,0.0013285610084464463,"train",9620.0,"2021-11-30 08:54:03.858898","","","","","","",""
8.0,0.059314969927072525,0.001332130047808155,"train",9640.0,"2021-11-30 08:54:07.957756","","","","","","",""
8.0,0.06253963708877563,0.001335694642922199,"train",9660.0,"2021-11-30 08:54:12.414169","","","","","","",""
8.0,"","","train",9666.0,"2021-11-30 08:55:56.934406",0.5910936476751801,0.5723699587189726,0.9407404378146212,0.6307261760584633,0.46941930457760717,0.47544948031532375,0.3242861018431557
8.0,"","","val",9666.0,"2021-11-30 08:56:25.203386",0.5700452278789284,0.5369218873593213,0.9309511204678691,0.6046038640845881,0.4420271653836858,0.44797142426863873,0.29809774149403495
9.0,0.08722086250782013,0.0013392547395594985,"train",9680.0,"2021-11-30 08:56:31.948962","","","","","","",""
9.0,0.058225229382514954,0.001342810283559412,"train",9700.0,"2021-11-30 08:56:36.081368","","","","","","",""
9.0,0.08630477637052536,0.0013463612208305564,"train",9720.0,"2021-11-30 08:56:40.662202","","","","","","",""
9.0,0.07652100920677185,0.0013499074973516321,"train",9740.0,"2021-11-30 08:56:45.252720","","","","","","",""
9.0,0.057935602962970734,0.0013534490591722464,"train",9760.0,"2021-11-30 08:56:49.795714","","","","","","",""
9.0,0.08959169685840607,0.0013569858524137305,"train",9780.0,"2021-11-30 08:56:54.422725","","","","","","",""
9.0,0.06698165833950043,0.001360517823269962,"train",9800.0,"2021-11-30 08:56:58.580660","","","","","","",""
9.0,0.06898140907287598,0.0013640449180081834,"train",9820.0,"2021-11-30 08:57:03.157003","","","","","","",""
9.0,0.05717012658715248,0.0013675670829698173,"train",9840.0,"2021-11-30 08:57:07.595273","","","","","","",""
9.0,0.059272218495607376,0.0013710842645712853,"train",9860.0,"2021-11-30 08:57:12.074342","","","","","","",""
9.0,0.05911247804760933,0.0013745964093048219,"train",9880.0,"2021-11-30 08:57:16.571367","","","","","","",""
9.0,0.08370871096849442,0.0013781034637392886,"train",9900.0,"2021-11-30 08:57:20.725997","","","","","","",""
9.0,0.0818764939904213,0.0013816053745209864,"train",9920.0,"2021-11-30 08:57:25.088665","","","","","","",""
9.0,0.04937252029776573,0.0013851020883744697,"train",9940.0,"2021-11-30 08:57:29.408176","","","","","","",""
9.0,0.05291520804166794,0.001388593552103353,"train",9960.0,"2021-11-30 08:57:33.758481","","","","","","",""
9.0,0.05595608055591583,0.0013920797125911233,"train",9980.0,"2021-11-30 08:57:38.154748","","","","","","",""
9.0,0.08153002709150314,0.001395560516801947,"train",10000.0,"2021-11-30 08:57:42.171079","","","","","","",""
9.0,0.06640177965164185,0.0013990359117814774,"train",10020.0,"2021-11-30 08:57:46.553929","","","","","","",""
9.0,0.07340400665998459,0.0014025058446576583,"train",10040.0,"2021-11-30 08:57:51.123783","","","","","","",""
9.0,0.09273377805948257,0.0014059702626415317,"train",10060.0,"2021-11-30 08:57:55.694260","","","","","","",""
9.0,0.0720907673239708,0.0014094291130280377,"train",10080.0,"2021-11-30 08:58:00.222663","","","","","","",""
9.0,0.06102944165468216,0.0014128823431968183,"train",10100.0,"2021-11-30 08:58:04.379094","","","","","","",""
9.0,0.07923813909292221,0.001416329900613017,"train",10120.0,"2021-11-30 08:58:08.881173","","","","","","",""
9.0,0.09399886429309845,0.0014197717328280782,"train",10140.0,"2021-11-30 08:58:13.438226","","","","","","",""
9.0,0.0782131627202034,0.0014232077874805457,"train",10160.0,"2021-11-30 08:58:17.988158","","","","","","",""
9.0,0.05940426513552666,0.0014266380122968589,"train",10180.0,"2021-11-30 08:58:22.539220","","","","","","",""
9.0,0.07922855764627457,0.0014300623550921468,"train",10200.0,"2021-11-30 08:58:26.724548","","","","","","",""
9.0,0.11107881367206573,0.0014334807637710243,"train",10220.0,"2021-11-30 08:58:31.264903","","","","","","",""
9.0,0.04900551959872246,0.0014368931863283831,"train",10240.0,"2021-11-30 08:58:35.804537","","","","","","",""
9.0,0.058420367538928986,0.0014402995708501826,"train",10260.0,"2021-11-30 08:58:40.313056","","","","","","",""
9.0,0.055389102548360825,0.0014436998655142422,"train",10280.0,"2021-11-30 08:58:44.692562","","","","","","",""
9.0,0.08045264333486557,0.0014470940185910258,"train",10300.0,"2021-11-30 08:58:48.744776","","","","","","",""
9.0,0.10184244066476822,0.001450481978444431,"train",10320.0,"2021-11-30 08:58:53.124241","","","","","","",""
9.0,0.06517674773931503,0.0014538636935325763,"train",10340.0,"2021-11-30 08:58:57.531278","","","","","","",""
9.0,0.07922089099884033,0.0014572391124085817,"train",10360.0,"2021-11-30 08:59:01.941665","","","","","","",""
9.0,0.1073475033044815,0.0014606081837213525,"train",10380.0,"2021-11-30 08:59:06.399785","","","","","","",""
9.0,0.05338292196393013,0.0014639708562163639,"train",10400.0,"2021-11-30 08:59:10.499638","","","","","","",""
9.0,0.053851258009672165,0.001467327078736435,"train",10420.0,"2021-11-30 08:59:14.865857","","","","","","",""
9.0,0.10007168352603912,0.0014706768002225108,"train",10440.0,"2021-11-30 08:59:19.237306","","","","","","",""
9.0,0.07191397249698639,0.0014740199697144392,"train",10460.0,"2021-11-30 08:59:23.684739","","","","","","",""
9.0,0.05959448963403702,0.0014773565363517442,"train",10480.0,"2021-11-30 08:59:28.018954","","","","","","",""
9.0,0.09075917303562164,0.0014806864493744007,"train",10500.0,"2021-11-30 08:59:31.997591","","","","","","",""
9.0,0.07375498116016388,0.0014840096581236072,"train",10520.0,"2021-11-30 08:59:36.386198","","","","","","",""
9.0,0.07634881883859634,0.001487326112042556,"train",10540.0,"2021-11-30 08:59:40.959882","","","","","","",""
9.0,0.0903550386428833,0.0014906357606772013,"train",10560.0,"2021-11-30 08:59:45.517177","","","","","","",""
9.0,0.057697344571352005,0.0014939385536770291,"train",10580.0,"2021-11-30 08:59:50.081367","","","","","","",""
9.0,0.06369858235120773,0.0014972344407958218,"train",10600.0,"2021-11-30 08:59:54.259405","","","","","","",""
9.0,0.05320186913013458,0.0015005233718924213,"train",10620.0,"2021-11-30 08:59:58.839550","","","","","","",""
9.0,0.09120169281959534,0.0015038052969314946,"train",10640.0,"2021-11-30 09:00:03.542214","","","","","","",""
9.0,0.09164207428693771,0.0015070801659842939,"train",10660.0,"2021-11-30 09:00:08.067478","","","","","","",""
9.0,0.06478264927864075,0.001510347929229414,"train",10680.0,"2021-11-30 09:00:12.575203","","","","","","",""
9.0,0.06420067697763443,0.0015136085369535537,"train",10700.0,"2021-11-30 09:00:16.729606","","","","","","",""
9.0,0.08198393881320953,0.0015168619395522708,"train",10720.0,"2021-11-30 09:00:21.214067","","","","","","",""
9.0,0.07051718980073929,0.0015201080875307349,"train",10740.0,"2021-11-30 09:00:25.605989","","","","","","",""
9.0,"","","train",10740.0,"2021-11-30 09:02:09.001948",0.5992723568362075,0.5841042794256478,0.9437794917522747,0.6326189521958805,0.49397812758128595,0.5104005697326224,0.33961796176680803
9.0,"","","val",10740.0,"2021-11-30 09:02:37.335240",0.5796706482662647,0.5519622552828983,0.9345775285348457,0.6081267605989945,0.474361522733998,0.4861973416855445,0.3177895619228096
10.0,0.08451015502214432,0.0015233469315044834,"train",10760.0,"2021-11-30 09:02:44.802980","","","","","","",""
10.0,0.06849708408117294,0.0015265784222001709,"train",10780.0,"2021-11-30 09:02:48.929491","","","","","","",""
10.0,0.07648985832929611,0.0015298025104563185,"train",10800.0,"2021-11-30 09:02:53.401225","","","","","","",""
10.0,0.08246079087257385,0.001533019147224064,"train",10820.0,"2021-11-30 09:02:57.577067","","","","","","",""
10.0,0.058636534959077835,0.0015362282835679054,"train",10840.0,"2021-11-30 09:03:01.657040","","","","","","",""
10.0,0.10155632346868515,0.0015394298706664469,"train",10860.0,"2021-11-30 09:03:05.732721","","","","","","",""
10.0,0.09399737417697906,0.001542623859813141,"train",10880.0,"2021-11-30 09:03:09.792989","","","","","","",""
10.0,0.07853971421718597,0.00154581020241703,"train",10900.0,"2021-11-30 09:03:13.859612","","","","","","",""
10.0,0.07593236118555069,0.0015489888500034858,"train",10920.0,"2021-11-30 09:03:17.897203","","","","","","",""
10.0,0.05774545297026634,0.0015521597542149444,"train",10940.0,"2021-11-30 09:03:22.403678","","","","","","",""
10.0,0.09222054481506348,0.0015553228668116455,"train",10960.0,"2021-11-30 09:03:26.508594","","","","","","",""
10.0,0.05465233698487282,0.0015584781396723642,"train",10980.0,"2021-11-30 09:03:30.667180","","","","","","",""
10.0,0.05588260293006897,0.0015616255247951432,"train",11000.0,"2021-11-30 09:03:34.725743","","","","","","",""
10.0,0.0666704848408699,0.0015647649742980233,"train",11020.0,"2021-11-30 09:03:38.860529","","","","","","",""
10.0,0.060661934316158295,0.0015678964404197727,"train",11040.0,"2021-11-30 09:03:42.997191","","","","","","",""
10.0,0.06825834512710571,0.0015710198755206112,"train",11060.0,"2021-11-30 09:03:47.504069","","","","","","",""
10.0,0.09938748180866241,0.0015741352320829379,"train",11080.0,"2021-11-30 09:03:51.682344","","","","","","",""
10.0,0.10247889906167984,0.0015772424627120527,"train",11100.0,"2021-11-30 09:03:55.804214","","","","","","",""
10.0,0.0652613490819931,0.0015803415201368761,"train",11120.0,"2021-11-30 09:03:59.896836","","","","","","",""
10.0,0.04169934615492821,0.001583432357210671,"train",11140.0,"2021-11-30 09:04:04.025161","","","","","","",""
10.0,0.11167613416910172,0.001586514926911758,"train",11160.0,"2021-11-30 09:04:08.128841","","","","","","",""
10.0,0.0759994387626648,0.0015895891823442313,"train",11180.0,"2021-11-30 09:04:12.340748","","","","","","",""
10.0,0.05516796186566353,0.0015926550767386717,"train",11200.0,"2021-11-30 09:04:17.050501","","","","","","",""
10.0,0.036914266645908356,0.0015957125634528599,"train",11220.0,"2021-11-30 09:04:21.255744","","","","","","",""
10.0,0.0746314749121666,0.0015987615959724836,"train",11240.0,"2021-11-30 09:04:25.257457","","","","","","",""
10.0,0.06872903555631638,0.0016018021279118457,"train",11260.0,"2021-11-30 09:04:29.234698","","","","","","",""
10.0,0.04995814710855484,0.0016048341130145728,"train",11280.0,"2021-11-30 09:04:33.208145","","","","","","",""
10.0,0.07707110047340393,0.0016078575051543145,"train",11300.0,"2021-11-30 09:04:37.186181","","","","","","",""
10.0,0.057730622589588165,0.0016108722583354478,"train",11320.0,"2021-11-30 09:04:41.187716","","","","","","",""
10.0,0.057500869035720825,0.0016138783266937777,"train",11340.0,"2021-11-30 09:04:45.564577","","","","","","",""
10.0,0.04193839803338051,0.0016168756644972322,"train",11360.0,"2021-11-30 09:04:49.619986","","","","","","",""
10.0,0.05483135208487511,0.0016198642261465587,"train",11380.0,"2021-11-30 09:04:53.580571","","","","","","",""
10.0,0.07699480652809143,0.0016228439661760208,"train",11400.0,"2021-11-30 09:04:57.523528","","","","","","",""
10.0,0.08576133102178574,0.001625814839254086,"train",11420.0,"2021-11-30 09:05:01.494847","","","","","","",""
10.0,0.054451219737529755,0.0016287768001841164,"train",11440.0,"2021-11-30 09:05:05.473389","","","","","","",""
10.0,0.053287919610738754,0.001631729803905059,"train",11460.0,"2021-11-30 09:05:09.841418","","","","","","",""
10.0,0.06205432489514351,0.0016346738054921273,"train",11480.0,"2021-11-30 09:05:13.854558","","","","","","",""
10.0,0.045321136713027954,0.001637608760157486,"train",11500.0,"2021-11-30 09:05:17.913821","","","","","","",""
10.0,0.09259624034166336,0.0016405346232509356,"train",11520.0,"2021-11-30 09:05:21.885373","","","","","","",""
10.0,0.09520309418439865,0.0016434513502605861,"train",11540.0,"2021-11-30 09:05:25.992556","","","","","","",""
10.0,0.06529425829648972,0.0016463588968135383,"train",11560.0,"2021-11-30 09:05:29.977293","","","","","","",""
10.0,0.07893601059913635,0.0016492572186765577,"train",11580.0,"2021-11-30 09:05:34.048502","","","","","","",""
10.0,0.05700058862566948,0.001652146271756747,"train",11600.0,"2021-11-30 09:05:38.471163","","","","","","",""
10.0,0.09626839309930801,0.0016550260121022172,"train",11620.0,"2021-11-30 09:05:42.643639","","","","","","",""
10.0,0.0525139681994915,0.0016578963959027562,"train",11640.0,"2021-11-30 09:05:46.809602","","","","","","",""
10.0,0.07691909372806549,0.001660757379490496,"train",11660.0,"2021-11-30 09:05:50.955897","","","","","","",""
10.0,0.0690636858344078,0.0016636089193405761,"train",11680.0,"2021-11-30 09:05:55.103733","","","","","","",""
10.0,0.05557813122868538,0.0016664509720718049,"train",11700.0,"2021-11-30 09:05:59.232332","","","","","","",""
10.0,0.07598646730184555,0.0016692834944473224,"train",11720.0,"2021-11-30 09:06:03.743817","","","","","","",""
10.0,0.07695164531469345,0.0016721064433752554,"train",11740.0,"2021-11-30 09:06:07.775703","","","","","","",""
10.0,0.076697938144207,0.0016749197759093734,"train",11760.0,"2021-11-30 09:06:11.787858","","","","","","",""
10.0,0.07098781317472458,0.0016777234492497436,"train",11780.0,"2021-11-30 09:06:15.783236","","","","","","",""
10.0,0.06710092723369598,0.0016805174207433808,"train",11800.0,"2021-11-30 09:06:19.821268","","","","","","",""
10.0,"","","train",11814.0,"2021-11-30 09:08:06.579417",0.5962017026850033,0.5928919283943048,0.944909606622475,0.6239556880248427,0.4791976055330848,0.5029134662097319,0.3281440960206208
10.0,"","","val",11814.0,"2021-11-30 09:08:34.624595",0.5750898759132552,0.5574424619382566,0.9356019195545474,0.5969999047104015,0.4540883152462386,0.4726884027843772,0.30304455025119004
11.0,0.07936402410268784,0.0016833016478848956,"train",11820.0,"2021-11-30 09:08:39.133504","","","","","","",""
11.0,0.08724293112754822,0.0016860760883171426,"train",11840.0,"2021-11-30 09:08:43.497355","","","","","","",""
11.0,0.06162529066205025,0.001688840699831864,"train",11860.0,"2021-11-30 09:08:47.342199","","","","","","",""
11.0,0.049423813819885254,0.0016915954403703313,"train",11880.0,"2021-11-30 09:08:51.193925","","","","","","",""
11.0,0.0650184154510498,0.0016943402680239862,"train",11900.0,"2021-11-30 09:08:55.380376","","","","","","",""
11.0,0.05732467398047447,0.0016970751410350774,"train",11920.0,"2021-11-30 09:08:59.446935","","","","","","",""
11.0,0.06976200640201569,0.001699800017797296,"train",11940.0,"2021-11-30 09:09:03.640044","","","","","","",""
11.0,0.058779142796993256,0.0017025148568564086,"train",11960.0,"2021-11-30 09:09:08.161711","","","","","","",""
11.0,0.06645719707012177,0.001705219616910888,"train",11980.0,"2021-11-30 09:09:12.256712","","","","","","",""
11.0,0.06051550805568695,0.001707914256812541,"train",12000.0,"2021-11-30 09:09:16.530151","","","","","","",""
11.0,0.05858805775642395,0.0017105987355671352,"train",12020.0,"2021-11-30 09:09:20.596633","","","","","","",""
11.0,0.05018702149391174,0.0017132730123350227,"train",12040.0,"2021-11-30 09:09:24.722447","","","","","","",""
11.0,0.1038123220205307,0.00171593704643176,"train",12060.0,"2021-11-30 09:09:29.166683","","","","","","",""
11.0,0.10211779177188873,0.0017185907973287285,"train",12080.0,"2021-11-30 09:09:33.268960","","","","","","",""
11.0,0.09504417330026627,0.0017212342246537506,"train",12100.0,"2021-11-30 09:09:37.379523","","","","","","",""
11.0,0.11128793656826019,0.0017238672881917032,"train",12120.0,"2021-11-30 09:09:41.901134","","","","","","",""
11.0,0.0739431381225586,0.001726489947885131,"train",12140.0,"2021-11-30 09:09:45.988362","","","","","","",""
11.0,0.05786975473165512,0.0017291021638348543,"train",12160.0,"2021-11-30 09:09:50.129205","","","","","","",""
11.0,0.07475180923938751,0.0017317038963005765,"train",12180.0,"2021-11-30 09:09:54.546520","","","","","","",""
11.0,0.0810733437538147,0.00173429510570149,"train",12200.0,"2021-11-30 09:09:58.649960","","","","","","",""
11.0,0.08377169072628021,0.0017368757526168759,"train",12220.0,"2021-11-30 09:10:02.739398","","","","","","",""
11.0,0.056843098253011703,0.0017394457977867057,"train",12240.0,"2021-11-30 09:10:07.186976","","","","","","",""
11.0,0.10130474716424942,0.0017420052021122378,"train",12260.0,"2021-11-30 09:10:11.263755","","","","","","",""
11.0,0.06787212193012238,0.0017445539266566128,"train",12280.0,"2021-11-30 09:10:15.657465","","","","","","",""
11.0,0.05659249424934387,0.001747091932645445,"train",12300.0,"2021-11-30 09:10:19.713175","","","","","","",""
11.0,0.09532894194126129,0.0017496191814674125,"train",12320.0,"2021-11-30 09:10:23.758466","","","","","","",""
11.0,0.0624786838889122,0.001752135634674846,"train",12340.0,"2021-11-30 09:10:28.217317","","","","","","",""
11.0,0.08464927971363068,0.0017546412539843118,"train",12360.0,"2021-11-30 09:10:32.300960","","","","","","",""
11.0,0.04934985190629959,0.001757136001277194,"train",12380.0,"2021-11-30 09:10:36.352175","","","","","","",""
11.0,0.08035888522863388,0.001759619838600278,"train",12400.0,"2021-11-30 09:10:40.703172","","","","","","",""
11.0,0.07250022143125534,0.0017620927281663229,"train",12420.0,"2021-11-30 09:10:44.669483","","","","","","",""
11.0,0.09861496835947037,0.0017645546323546398,"train",12440.0,"2021-11-30 09:10:48.706687","","","","","","",""
11.0,0.05530436336994171,0.0017670055137116636,"train",12460.0,"2021-11-30 09:10:53.023153","","","","","","",""
11.0,0.06049930304288864,0.0017694453349515209,"train",12480.0,"2021-11-30 09:10:57.065571","","","","","","",""
11.0,0.08241457492113113,0.0017718740589566,"train",12500.0,"2021-11-30 09:11:01.174503","","","","","","",""
11.0,0.06834473460912704,0.0017742916487781134,"train",12520.0,"2021-11-30 09:11:05.623986","","","","","","",""
11.0,0.060570187866687775,0.0017766980676366608,"train",12540.0,"2021-11-30 09:11:09.709677","","","","","","",""
11.0,0.04771233722567558,0.001779093278922789,"train",12560.0,"2021-11-30 09:11:14.156741","","","","","","",""
11.0,0.04889512062072754,0.001781477246197548,"train",12580.0,"2021-11-30 09:11:18.243745","","","","","","",""
11.0,0.07950273156166077,0.0017838499331930462,"train",12600.0,"2021-11-30 09:11:22.223318","","","","","","",""
11.0,0.09150462597608566,0.001786211303813001,"train",12620.0,"2021-11-30 09:11:26.536593","","","","","","",""
11.0,0.06603999435901642,0.0017885613221332894,"train",12640.0,"2021-11-30 09:11:30.521396","","","","","","",""
11.0,0.08410929888486862,0.0017908999524024931,"train",12660.0,"2021-11-30 09:11:34.521723","","","","","","",""
11.0,0.09170226007699966,0.0017932271590424438,"train",12680.0,"2021-11-30 09:11:38.976448","","","","","","",""
11.0,0.06903817504644394,0.0017955429066487635,"train",12700.0,"2021-11-30 09:11:42.982813","","","","","","",""
11.0,0.06022774055600166,0.0017978471599914025,"train",12720.0,"2021-11-30 09:11:46.936613","","","","","","",""
11.0,0.08575231581926346,0.0018001398840151778,"train",12740.0,"2021-11-30 09:11:51.284129","","","","","","",""
11.0,0.06019752100110054,0.0018024210438403031,"train",12760.0,"2021-11-30 09:11:55.256166","","","","","","",""
11.0,0.04565019905567169,0.0018046906047629228,"train",12780.0,"2021-11-30 09:11:59.330059","","","","","","",""
11.0,0.053671032190322876,0.0018069485322556372,"train",12800.0,"2021-11-30 09:12:03.913167","","","","","","",""
11.0,0.06881056725978851,0.001809194791968029,"train",12820.0,"2021-11-30 09:12:08.127951","","","","","","",""
11.0,0.058773867785930634,0.0018114293497271863,"train",12840.0,"2021-11-30 09:12:12.537010","","","","","","",""
11.0,0.0651184469461441,0.0018136521715382218,"train",12860.0,"2021-11-30 09:12:16.522515","","","","","","",""
11.0,0.07960616797208786,0.0018158632235847892,"train",12880.0,"2021-11-30 09:12:20.524499","","","","","","",""
11.0,"","","train",12888.0,"2021-11-30 09:14:04.915178",0.617405224477916,0.61544170038755,0.9490423377612499,0.6520609458468366,0.5133113033639916,0.5261868643768607,0.3549860345931084
11.0,"","","val",12888.0,"2021-11-30 09:14:33.431050",0.5923692450423287,0.5760086292807618,0.9381497346201289,0.6224858411523704,0.48984168694883307,0.4990630426618691,0.33026238174532446
12.0,0.07481833547353745,0.0018180624722295999,"train",12900.0,"2021-11-30 09:14:39.652761","","","","","","",""
12.0,0.09084861725568771,0.001820249884014933,"train",12920.0,"2021-11-30 09:14:43.725088","","","","","","",""
12.0,0.06171048805117607,0.001822425425663144,"train",12940.0,"2021-11-30 09:14:48.114291","","","","","","",""
12.0,0.07301122695207596,0.0018245890640771725,"train",12960.0,"2021-11-30 09:14:52.080821","","","","","","",""
12.0,0.07640644162893295,0.0018267407663410452,"train",12980.0,"2021-11-30 09:14:56.381826","","","","","","",""
12.0,0.06819375604391098,0.0018288804997203755,"train",13000.0,"2021-11-30 09:15:00.941790","","","","","","",""
12.0,0.069828562438488,0.0018310082316628634,"train",13020.0,"2021-11-30 09:15:05.056551","","","","","","",""
12.0,0.05726897343993187,0.0018331239297987893,"train",13040.0,"2021-11-30 09:15:09.515101","","","","","","",""
12.0,0.04938540607690811,0.0018352275619415066,"train",13060.0,"2021-11-30 09:15:13.651970","","","","","","",""
12.0,0.036777809262275696,0.0018373190960879326,"train",13080.0,"2021-11-30 09:15:18.151432","","","","","","",""
12.0,0.0801393985748291,0.0018393985004190336,"train",13100.0,"2021-11-30 09:15:22.221305","","","","","","",""
12.0,0.06331055611371994,0.00184146574330031,"train",13120.0,"2021-11-30 09:15:26.521325","","","","","","",""
12.0,0.05528366193175316,0.001843520793282278,"train",13140.0,"2021-11-30 09:15:30.477524","","","","","","",""
12.0,0.05523461848497391,0.0018455636191009464,"train",13160.0,"2021-11-30 09:15:34.798266","","","","","","",""
12.0,0.05720946937799454,0.001847594189678294,"train",13180.0,"2021-11-30 09:15:39.096471","","","","","","",""
12.0,0.05699852108955383,0.0018496124741227415,"train",13200.0,"2021-11-30 09:15:43.064383","","","","","","",""
12.0,0.07252132892608643,0.001851618441729622,"train",13220.0,"2021-11-30 09:15:47.516302","","","","","","",""
12.0,0.07285154610872269,0.0018536120619816467,"train",13240.0,"2021-11-30 09:15:51.550643","","","","","","",""
12.0,0.06661976128816605,0.0018555933045493712,"train",13260.0,"2021-11-30 09:15:55.959812","","","","","","",""
12.0,0.08013442903757095,0.0018575621392916554,"train",13280.0,"2021-11-30 09:15:59.809448","","","","","","",""
12.0,0.08790893852710724,0.0018595185362561225,"train",13300.0,"2021-11-30 09:16:04.157725","","","","","","",""
12.0,0.06041600555181503,0.0018614624656796155,"train",13320.0,"2021-11-30 09:16:08.125667","","","","","","",""
12.0,0.04248775169253349,0.0018633938979886484,"train",13340.0,"2021-11-30 09:16:12.484473","","","","","","",""
12.0,0.07542620599269867,0.0018653128037998568,"train",13360.0,"2021-11-30 09:16:16.944644","","","","","","",""
12.0,0.09244603663682938,0.0018672191539204459,"train",13380.0,"2021-11-30 09:16:21.070474","","","","","","",""
12.0,0.07217825949192047,0.0018691129193486335,"train",13400.0,"2021-11-30 09:16:25.535863","","","","","","",""
12.0,0.057005513459444046,0.0018709940712740908,"train",13420.0,"2021-11-30 09:16:29.665411","","","","","","",""
12.0,0.06178819388151169,0.0018728625810783823,"train",13440.0,"2021-11-30 09:16:34.129677","","","","","","",""
12.0,0.03842751681804657,0.0018747184203353996,"train",13460.0,"2021-11-30 09:16:38.252631","","","","","","",""
12.0,0.09451619535684586,0.0018765615608117947,"train",13480.0,"2021-11-30 09:16:42.869986","","","","","","",""
12.0,0.05954053997993469,0.0018783919744674096,"train",13500.0,"2021-11-30 09:16:47.008245","","","","","","",""
12.0,0.05480049550533295,0.0018802096334557027,"train",13520.0,"2021-11-30 09:16:51.462674","","","","","","",""
12.0,0.05351452901959419,0.0018820145101241712,"train",13540.0,"2021-11-30 09:16:55.993452","","","","","","",""
12.0,0.07038012146949768,0.0018838065770147745,"train",13560.0,"2021-11-30 09:17:00.110077","","","","","","",""
12.0,0.07258971035480499,0.0018855858068643496,"train",13580.0,"2021-11-30 09:17:04.572516","","","","","","",""
12.0,0.06302104145288467,0.001887352172605026,"train",13600.0,"2021-11-30 09:17:08.688886","","","","","","",""
12.0,0.05794196575880051,0.0018891056473646398,"train",13620.0,"2021-11-30 09:17:13.155654","","","","","","",""
12.0,0.10387159138917923,0.0018908462044671395,"train",13640.0,"2021-11-30 09:17:17.275944","","","","","","",""
12.0,0.05833952873945236,0.001892573817432993,"train",13660.0,"2021-11-30 09:17:21.773947","","","","","","",""
12.0,0.0518922358751297,0.0018942884599795914,"train",13680.0,"2021-11-30 09:17:25.964100","","","","","","",""
12.0,0.05882735550403595,0.001895990106021648,"train",13700.0,"2021-11-30 09:17:30.432629","","","","","","",""
12.0,0.049144499003887177,0.0018976787296715943,"train",13720.0,"2021-11-30 09:17:34.952548","","","","","","",""
12.0,0.04898969084024429,0.0018993543052399757,"train",13740.0,"2021-11-30 09:17:39.033679","","","","","","",""
12.0,0.05120302364230156,0.0019010168072358413,"train",13760.0,"2021-11-30 09:17:43.419615","","","","","","",""
12.0,0.05955325812101364,0.0019026662103671305,"train",13780.0,"2021-11-30 09:17:47.403560","","","","","","",""
12.0,0.07334038615226746,0.0019043024895410605,"train",13800.0,"2021-11-30 09:17:51.853230","","","","","","",""
12.0,0.08552923798561096,0.001905925619864506,"train",13820.0,"2021-11-30 09:17:55.939721","","","","","","",""
12.0,0.05191104859113693,0.001907535576644378,"train",13840.0,"2021-11-30 09:18:00.408021","","","","","","",""
12.0,0.0682867243885994,0.0019091323353880008,"train",13860.0,"2021-11-30 09:18:04.527266","","","","","","",""
12.0,0.10072246938943863,0.0019107158718034828,"train",13880.0,"2021-11-30 09:18:08.967995","","","","","","",""
12.0,0.06363262981176376,0.001912286161800088,"train",13900.0,"2021-11-30 09:18:13.423358","","","","","","",""
12.0,0.07076286524534225,0.0019138431814886008,"train",13920.0,"2021-11-30 09:18:17.550031","","","","","","",""
12.0,0.06112077087163925,0.0019153869071816896,"train",13940.0,"2021-11-30 09:18:22.024718","","","","","","",""
12.0,0.04163866117596626,0.0019169173153942693,"train",13960.0,"2021-11-30 09:18:26.120114","","","","","","",""
12.0,"","","train",13962.0,"2021-11-30 09:20:09.471435",0.6238521429091174,0.6258065416121759,0.952488714961969,0.6580219579784949,0.5291587188768554,0.5475006534986103,0.36617583314851737
12.0,"","","val",13962.0,"2021-11-30 09:20:37.907298",0.5976458309173142,0.5876337516938375,0.9402029144304632,0.6269255723637212,0.49706673202104223,0.5141777611088717,0.33378304068949266
13.0,0.09079492092132568,0.0019184343828438557,"train",13980.0,"2021-11-30 09:20:45.473305","","","","","","",""
13.0,0.05667706951498985,0.0019199380864509208,"train",14000.0,"2021-11-30 09:20:49.915511","","","","","","",""
13.0,0.058191850781440735,0.0019214284033392457,"train",14020.0,"2021-11-30 09:20:54.420223","","","","","","",""
13.0,0.05646881088614464,0.0019229053108362649,"train",14040.0,"2021-11-30 09:20:58.647556","","","","","","",""
13.0,0.07893111556768417,0.0019243687864734145,"train",14060.0,"2021-11-30 09:21:03.243654","","","","","","",""
13.0,0.03935936465859413,0.0019258188079864732,"train",14080.0,"2021-11-30 09:21:07.785522","","","","","","",""
13.0,0.07599413394927979,0.0019272553533158999,"train",14100.0,"2021-11-30 09:21:12.374162","","","","","","",""
13.0,0.08537516742944717,0.0019286784006071697,"train",14120.0,"2021-11-30 09:21:16.943930","","","","","","",""
13.0,0.08887764811515808,0.0019300879282111083,"train",14140.0,"2021-11-30 09:21:21.161236","","","","","","",""
13.0,0.07744400948286057,0.0019314839146842185,"train",14160.0,"2021-11-30 09:21:25.734618","","","","","","",""
13.0,0.08290254324674606,0.0019328663387890076,"train",14180.0,"2021-11-30 09:21:30.350064","","","","","","",""
13.0,0.057393625378608704,0.0019342351794943119,"train",14200.0,"2021-11-30 09:21:34.961185","","","","","","",""
13.0,0.05940843001008034,0.0019355904159756138,"train",14220.0,"2021-11-30 09:21:39.554684","","","","","","",""
13.0,0.07062172889709473,0.0019369320276153613,"train",14240.0,"2021-11-30 09:21:43.759743","","","","","","",""
13.0,0.0552142895758152,0.00193825999400328,"train",14260.0,"2021-11-30 09:21:48.286226","","","","","","",""
13.0,0.05016610771417618,0.0019395742949366843,"train",14280.0,"2021-11-30 09:21:52.692028","","","","","","",""
13.0,0.06074092164635658,0.0019408749104207845,"train",14300.0,"2021-11-30 09:21:57.073668","","","","","","",""
13.0,0.05611873045563698,0.0019421618206689913,"train",14320.0,"2021-11-30 09:22:01.479366","","","","","","",""
13.0,0.06318429857492447,0.0019434350061032163,"train",14340.0,"2021-11-30 09:22:05.611148","","","","","","",""
13.0,0.06890468299388885,0.0019446944473541703,"train",14360.0,"2021-11-30 09:22:10.139760","","","","","","",""
13.0,0.07721536606550217,0.0019459401252616573,"train",14380.0,"2021-11-30 09:22:14.666443","","","","","","",""
13.0,0.057036567479372025,0.001947172020874868,"train",14400.0,"2021-11-30 09:22:19.161395","","","","","","",""
13.0,0.05825906619429588,0.0019483901154526647,"train",14420.0,"2021-11-30 09:22:23.622716","","","","","","",""
13.0,0.06536895036697388,0.0019495943904638694,"train",14440.0,"2021-11-30 09:22:27.780587","","","","","","",""
13.0,0.07183286547660828,0.0019507848275875444,"train",14460.0,"2021-11-30 09:22:32.279474","","","","","","",""
13.0,0.05295715108513832,0.0019519614087132712,"train",14480.0,"2021-11-30 09:22:36.786697","","","","","","",""
13.0,0.10935444384813309,0.0019531241159414263,"train",14500.0,"2021-11-30 09:22:41.214982","","","","","","",""
13.0,0.07395293563604355,0.001954272931583453,"train",14520.0,"2021-11-30 09:22:45.735531","","","","","","",""
13.0,0.10060356557369232,0.0019554078381621306,"train",14540.0,"2021-11-30 09:22:49.877462","","","","","","",""
13.0,0.05948488786816597,0.0019565288184118417,"train",14560.0,"2021-11-30 09:22:54.432573","","","","","","",""
13.0,0.051953643560409546,0.0019576358552788314,"train",14580.0,"2021-11-30 09:22:59.011198","","","","","","",""
13.0,0.07135824114084244,0.0019587289319214713,"train",14600.0,"2021-11-30 09:23:03.510414","","","","","","",""
13.0,0.08290902525186539,0.0019598080317105113,"train",14620.0,"2021-11-30 09:23:07.923274","","","","","","",""
13.0,0.06794039905071259,0.001960873138229337,"train",14640.0,"2021-11-30 09:23:11.950091","","","","","","",""
13.0,0.051341526210308075,0.0019619242352742153,"train",14660.0,"2021-11-30 09:23:16.329963","","","","","","",""
13.0,0.08861719816923141,0.001962961306854543,"train",14680.0,"2021-11-30 09:23:20.832298","","","","","","",""
13.0,0.05688243359327316,0.0019639843371930905,"train",14700.0,"2021-11-30 09:23:25.409407","","","","","","",""
13.0,0.062012575566768646,0.001964993310726241,"train",14720.0,"2021-11-30 09:23:29.866110","","","","","","",""
13.0,0.07031551748514175,0.0019659882121042262,"train",14740.0,"2021-11-30 09:23:33.920476","","","","","","",""
13.0,0.0910525918006897,0.001966969026191363,"train",14760.0,"2021-11-30 09:23:38.332042","","","","","","",""
13.0,0.053006142377853394,0.0019679357380662805,"train",14780.0,"2021-11-30 09:23:42.740544","","","","","","",""
13.0,0.048791952431201935,0.001968888333022148,"train",14800.0,"2021-11-30 09:23:47.171252","","","","","","",""
13.0,0.06200703606009483,0.0019698267965669,"train",14820.0,"2021-11-30 09:23:51.631496","","","","","","",""
13.0,0.06488527357578278,0.0019707511144234557,"train",14840.0,"2021-11-30 09:23:55.786535","","","","","","",""
13.0,0.08268199861049652,0.001971661272529935,"train",14860.0,"2021-11-30 09:24:00.309366","","","","","","",""
13.0,0.09584198892116547,0.001972557257039875,"train",14880.0,"2021-11-30 09:24:04.622541","","","","","","",""
13.0,0.044503919780254364,0.0019734390543224385,"train",14900.0,"2021-11-30 09:24:08.971847","","","","","","",""
13.0,0.05351506546139717,0.001974306650962622,"train",14920.0,"2021-11-30 09:24:13.509053","","","","","","",""
13.0,0.051618970930576324,0.0019751600337614608,"train",14940.0,"2021-11-30 09:24:17.579727","","","","","","",""
13.0,0.08920609205961227,0.0019759991897362284,"train",14960.0,"2021-11-30 09:24:21.969441","","","","","","",""
13.0,0.07553455233573914,0.0019768241061206343,"train",14980.0,"2021-11-30 09:24:26.351312","","","","","","",""
13.0,0.07749811559915543,0.0019776347703650186,"train",15000.0,"2021-11-30 09:24:30.735830","","","","","","",""
13.0,0.09583564102649689,0.001978431170136543,"train",15020.0,"2021-11-30 09:24:35.114520","","","","","","",""
13.0,"","","train",15036.0,"2021-11-30 09:26:21.648277",0.6228916539329113,0.6374476377460556,0.9489964422179546,0.662647396594998,0.5354160524000807,0.559974627023647,0.37334185384556356
13.0,"","","val",15036.0,"2021-11-30 09:26:50.011894",0.5911515713788704,0.5863094772513118,0.9322623474254443,0.628042359816368,0.49830054752381747,0.51921377162949,0.33527059705482903
14.0,0.07296770811080933,0.0019792132933193784,"train",15040.0,"2021-11-30 09:26:54.094060","","","","","","",""
14.0,0.05440549552440643,0.001979981128014888,"train",15060.0,"2021-11-30 09:26:58.223528","","","","","","",""
14.0,0.05448358505964279,0.001980734662541811,"train",15080.0,"2021-11-30 09:27:02.638404","","","","","","",""
14.0,0.06770652532577515,0.0019814738854364374,"train",15100.0,"2021-11-30 09:27:06.779379","","","","","","",""
14.0,0.0852249413728714,0.0019821987854527832,"train",15120.0,"2021-11-30 09:27:10.996391","","","","","","",""
14.0,0.0524778738617897,0.0019829093515627634,"train",15140.0,"2021-11-30 09:27:15.548873","","","","","","",""
14.0,0.047160107642412186,0.001983605572956358,"train",15160.0,"2021-11-30 09:27:19.783728","","","","","","",""
14.0,0.06191221624612808,0.001984287439041775,"train",15180.0,"2021-11-30 09:27:23.959988","","","","","","",""
14.0,0.05484197288751602,0.001984954939445616,"train",15200.0,"2021-11-30 09:27:28.091802","","","","","","",""
14.0,0.08368641138076782,0.0019856080640130295,"train",15220.0,"2021-11-30 09:27:32.606719","","","","","","",""
14.0,0.08162660151720047,0.0019862468028078676,"train",15240.0,"2021-11-30 09:27:36.746994","","","","","","",""
14.0,0.06627199798822403,0.001986871146112837,"train",15260.0,"2021-11-30 09:27:40.837980","","","","","","",""
14.0,0.07084927707910538,0.0019874810844296466,"train",15280.0,"2021-11-30 09:27:44.880282","","","","","","",""
14.0,0.0521087683737278,0.0019880766084791517,"train",15300.0,"2021-11-30 09:27:48.910431","","","","","","",""
14.0,0.05065732076764107,0.0019886577092014953,"train",15320.0,"2021-11-30 09:27:52.938995","","","","","","",""
14.0,0.05933597683906555,0.001989224377756247,"train",15340.0,"2021-11-30 09:27:57.354254","","","","","","",""
14.0,0.08322439342737198,0.0019897766055225353,"train",15360.0,"2021-11-30 09:28:01.553538","","","","","","",""
14.0,0.05313250422477722,0.0019903143840991813,"train",15380.0,"2021-11-30 09:28:05.799327","","","","","","",""
14.0,0.07287111133337021,0.0019908377053048246,"train",15400.0,"2021-11-30 09:28:09.956595","","","","","","",""
14.0,0.056179437786340714,0.001991346561178048,"train",15420.0,"2021-11-30 09:28:14.124630","","","","","","",""
14.0,0.06766275316476822,0.0019918409439775003,"train",15440.0,"2021-11-30 09:28:18.300078","","","","","","",""
14.0,0.061355527490377426,0.0019923208461820117,"train",15460.0,"2021-11-30 09:28:22.456017","","","","","","",""
14.0,0.0547434464097023,0.001992786260490709,"train",15480.0,"2021-11-30 09:28:26.970699","","","","","","",""
14.0,0.06667337566614151,0.0019932371798231287,"train",15500.0,"2021-11-30 09:28:31.155955","","","","","","",""
14.0,0.05228753387928009,0.0019936735973193212,"train",15520.0,"2021-11-30 09:28:35.375536","","","","","","",""
14.0,0.05202797055244446,0.001994095506339958,"train",15540.0,"2021-11-30 09:28:39.609288","","","","","","",""
14.0,0.04995770379900932,0.001994502900466431,"train",15560.0,"2021-11-30 09:28:43.653759","","","","","","",""
14.0,0.05505862832069397,0.0019948957735009517,"train",15580.0,"2021-11-30 09:28:47.717358","","","","","","",""
14.0,0.05171192064881325,0.0019952741194666436,"train",15600.0,"2021-11-30 09:28:51.789899","","","","","","",""
14.0,0.046513210982084274,0.0019956379326076354,"train",15620.0,"2021-11-30 09:28:56.411837","","","","","","",""
14.0,0.09067022800445557,0.001995987207389146,"train",15640.0,"2021-11-30 09:29:00.649357","","","","","","",""
14.0,0.058889444917440414,0.0019963219384975706,"train",15660.0,"2021-11-30 09:29:04.946167","","","","","","",""
14.0,0.07408414781093597,0.001996642120840561,"train",15680.0,"2021-11-30 09:29:09.114293","","","","","","",""
14.0,0.056754566729068756,0.001996947749547103,"train",15700.0,"2021-11-30 09:29:13.245304","","","","","","",""
14.0,0.06307176500558853,0.0019972388199675905,"train",15720.0,"2021-11-30 09:29:17.327785","","","","","","",""
14.0,0.06978784501552582,0.001997515327673896,"train",15740.0,"2021-11-30 09:29:21.776414","","","","","","",""
14.0,0.06160888820886612,0.0019977772684594388,"train",15760.0,"2021-11-30 09:29:25.892120","","","","","","",""
14.0,0.09332548826932907,0.0019980246383392475,"train",15780.0,"2021-11-30 09:29:30.049938","","","","","","",""
14.0,0.09271557629108429,0.0019982574335500225,"train",15800.0,"2021-11-30 09:29:34.214077","","","","","","",""
14.0,0.04313178360462189,0.001998475650550192,"train",15820.0,"2021-11-30 09:29:38.344907","","","","","","",""
14.0,0.06494177877902985,0.0019986792860199657,"train",15840.0,"2021-11-30 09:29:42.407093","","","","","","",""
14.0,0.06360822916030884,0.001998868336861386,"train",15860.0,"2021-11-30 09:29:46.385533","","","","","","",""
14.0,0.091968834400177,0.001999042800198376,"train",15880.0,"2021-11-30 09:29:50.707728","","","","","","",""
14.0,0.0684223398566246,0.00199920267337678,"train",15900.0,"2021-11-30 09:29:54.839925","","","","","","",""
14.0,0.05499676242470741,0.0019993479539644077,"train",15920.0,"2021-11-30 09:29:58.981480","","","","","","",""
14.0,0.05015001446008682,0.0019994786397510697,"train",15940.0,"2021-11-30 09:30:03.142522","","","","","","",""
14.0,0.06825605779886246,0.0019995947287486096,"train",15960.0,"2021-11-30 09:30:07.291727","","","","","","",""
14.0,0.0846155434846878,0.0019996962191909367,"train",15980.0,"2021-11-30 09:30:11.521277","","","","","","",""
14.0,0.06660912185907364,0.0019997831095340513,"train",16000.0,"2021-11-30 09:30:15.779422","","","","","","",""
14.0,0.05053851380944252,0.001999855398456069,"train",16020.0,"2021-11-30 09:30:20.291289","","","","","","",""
14.0,0.07482930272817612,0.00199991308485724,"train",16040.0,"2021-11-30 09:30:24.308402","","","","","","",""
14.0,0.0647253543138504,0.001999956167859967,"train",16060.0,"2021-11-30 09:30:28.317899","","","","","","",""
14.0,0.06243353337049484,0.0019999846468088172,"train",16080.0,"2021-11-30 09:30:32.345504","","","","","","",""
14.0,0.06932547688484192,0.0019999985212705335,"train",16100.0,"2021-11-30 09:30:36.406539","","","","","","",""
14.0,"","","train",16110.0,"2021-11-30 09:32:21.757153",0.6393072837080696,0.6518116683015387,0.9574732195140381,0.6847790979027161,0.5439543799694074,0.5644608430419817,0.3846053012822063
14.0,"","","val",16110.0,"2021-11-30 09:32:50.122844",0.6101704743128842,0.5981471609979667,0.9445190159578003,0.6493489837870928,0.511434885389266,0.5264287704434254,0.34784648386501377
15.0,0.04994673281908035,0.0019999995774202316,"train",16120.0,"2021-11-30 09:32:55.963238","","","","","","",""
15.0,0.06179794296622276,0.0019999966438102564,"train",16140.0,"2021-11-30 09:33:00.051749","","","","","","",""
15.0,0.04635247215628624,0.0019999909162942875,"train",16160.0,"2021-11-30 09:33:04.121886","","","","","","",""
15.0,0.07423862814903259,0.001999982394888327,"train",16180.0,"2021-11-30 09:33:08.490664","","","","","","",""
15.0,0.060265664011240005,0.0019999710796161823,"train",16200.0,"2021-11-30 09:33:12.506743","","","","","","",""
15.0,0.06210905686020851,0.0019999569705094686,"train",16220.0,"2021-11-30 09:33:16.567424","","","","","","",""
15.0,0.08115877211093903,0.001999940067607605,"train",16240.0,"2021-11-30 09:33:21.047527","","","","","","",""
15.0,0.05297861993312836,0.001999920370957817,"train",16260.0,"2021-11-30 09:33:25.192280","","","","","","",""
15.0,0.054574575275182724,0.0019998978806151355,"train",16280.0,"2021-11-30 09:33:29.347410","","","","","","",""
15.0,0.08784221857786179,0.0019998725966423976,"train",16300.0,"2021-11-30 09:33:33.771740","","","","","","",""
15.0,0.05149100720882416,0.001999844519110244,"train",16320.0,"2021-11-30 09:33:37.732854","","","","","","",""
15.0,0.054627690464258194,0.001999813648097122,"train",16340.0,"2021-11-30 09:33:41.690901","","","","","","",""
15.0,0.04865182191133499,0.001999779983689282,"train",16360.0,"2021-11-30 09:33:45.985957","","","","","","",""
15.0,0.06903991848230362,0.0019997435259807806,"train",16380.0,"2021-11-30 09:33:50.002218","","","","","","",""
15.0,0.050283901393413544,0.001999704275073478,"train",16400.0,"2021-11-30 09:33:54.504917","","","","","","",""
15.0,0.059481095522642136,0.0019996622310770383,"train",16420.0,"2021-11-30 09:33:58.672690","","","","","","",""
15.0,0.06949793547391891,0.0019996173941089286,"train",16440.0,"2021-11-30 09:34:02.811103","","","","","","",""
15.0,0.06822279095649719,0.0019995697642944212,"train",16460.0,"2021-11-30 09:34:07.162978","","","","","","",""
15.0,0.052071839570999146,0.0019995193417665894,"train",16480.0,"2021-11-30 09:34:11.162879","","","","","","",""
15.0,0.04119207337498665,0.0019994661266663108,"train",16500.0,"2021-11-30 09:34:15.282386","","","","","","",""
15.0,0.05008118227124214,0.001999410119142264,"train",16520.0,"2021-11-30 09:34:19.699681","","","","","","",""
15.0,0.08030857145786285,0.0019993513193509297,"train",16540.0,"2021-11-30 09:34:23.739390","","","","","","",""
15.0,0.0694739818572998,0.0019992897274565906,"train",16560.0,"2021-11-30 09:34:27.843371","","","","","","",""
15.0,0.06355314701795578,0.0019992253436313303,"train",16580.0,"2021-11-30 09:34:32.361523","","","","","","",""
15.0,0.08339669555425644,0.0019991581680550313,"train",16600.0,"2021-11-30 09:34:36.395171","","","","","","",""
15.0,0.04226133972406387,0.0019990882009153785,"train",16620.0,"2021-11-30 09:34:40.427095","","","","","","",""
15.0,0.05916384607553482,0.001999015442407854,"train",16640.0,"2021-11-30 09:34:44.782912","","","","","","",""
15.0,0.06766948848962784,0.0019989398927357403,"train",16660.0,"2021-11-30 09:34:48.961990","","","","","","",""
15.0,0.07054947316646576,0.0019988615521101174,"train",16680.0,"2021-11-30 09:34:53.246198","","","","","","",""
15.0,0.042522262781858444,0.0019987804207498637,"train",16700.0,"2021-11-30 09:34:57.271178","","","","","","",""
15.0,0.062159620225429535,0.0019986964988816533,"train",16720.0,"2021-11-30 09:35:01.328147","","","","","","",""
15.0,0.05058572068810463,0.0019986097867399585,"train",16740.0,"2021-11-30 09:35:05.795397","","","","","","",""
15.0,0.08697757869958878,0.0019985202845670463,"train",16760.0,"2021-11-30 09:35:09.944392","","","","","","",""
15.0,0.047961730509996414,0.0019984279926129798,"train",16780.0,"2021-11-30 09:35:14.026547","","","","","","",""
15.0,0.06293444335460663,0.001998332911135615,"train",16800.0,"2021-11-30 09:35:18.426758","","","","","","",""
15.0,0.0683123990893364,0.0019982350404006036,"train",16820.0,"2021-11-30 09:35:22.487902","","","","","","",""
15.0,0.0751279890537262,0.0019981343806813883,"train",16840.0,"2021-11-30 09:35:26.577236","","","","","","",""
15.0,0.0737718939781189,0.001998030932259205,"train",16860.0,"2021-11-30 09:35:31.127566","","","","","","",""
15.0,0.07423169910907745,0.0019979246954230823,"train",16880.0,"2021-11-30 09:35:35.260121","","","","","","",""
15.0,0.07178324460983276,0.0019978156704698363,"train",16900.0,"2021-11-30 09:35:39.317163","","","","","","",""
15.0,0.08690764755010605,0.001997703857704076,"train",16920.0,"2021-11-30 09:35:43.708587","","","","","","",""
15.0,0.05052851140499115,0.0019975892574381976,"train",16940.0,"2021-11-30 09:35:47.756319","","","","","","",""
15.0,0.08961533010005951,0.001997471869992386,"train",16960.0,"2021-11-30 09:35:52.133401","","","","","","",""
15.0,0.07433845102787018,0.0019973516956946127,"train",16980.0,"2021-11-30 09:35:56.168200","","","","","","",""
15.0,0.0660804733633995,0.0019972287348806366,"train",17000.0,"2021-11-30 09:36:00.252281","","","","","","",""
15.0,0.04517460986971855,0.0019971029878940003,"train",17020.0,"2021-11-30 09:36:04.684309","","","","","","",""
15.0,0.07807755470275879,0.0019969744550860317,"train",17040.0,"2021-11-30 09:36:08.709967","","","","","","",""
15.0,0.08285648375749588,0.0019968431368158433,"train",17060.0,"2021-11-30 09:36:12.783188","","","","","","",""
15.0,0.0929248183965683,0.001996709033450327,"train",17080.0,"2021-11-30 09:36:17.273675","","","","","","",""
15.0,0.060238685458898544,0.0019965721453641585,"train",17100.0,"2021-11-30 09:36:21.441572","","","","","","",""
15.0,0.047039300203323364,0.0019964324729397935,"train",17120.0,"2021-11-30 09:36:25.648980","","","","","","",""
15.0,0.08756771683692932,0.0019962900165674657,"train",17140.0,"2021-11-30 09:36:30.317727","","","","","","",""
15.0,0.05161648616194725,0.0019961447766451887,"train",17160.0,"2021-11-30 09:36:34.520683","","","","","","",""
15.0,0.056594207882881165,0.001995996753578751,"train",17180.0,"2021-11-30 09:36:38.640146","","","","","","",""
15.0,"","","train",17184.0,"2021-11-30 09:38:23.249138",0.6435567197846176,0.6644442419158599,0.9580844876184081,0.6949387641983307,0.5572202708405926,0.5772725158691425,0.39434046457336996
15.0,"","","val",17184.0,"2021-11-30 09:38:51.677174",0.6058796242606981,0.6025392160515299,0.9432107244788094,0.6522321591266541,0.512435434992544,0.5316961234783766,0.34748950916613636
16.0,0.05475163087248802,0.001995845947781719,"train",17200.0,"2021-11-30 09:38:58.322473","","","","","","",""
16.0,0.05413510277867317,0.001995692359675433,"train",17220.0,"2021-11-30 09:39:02.862656","","","","","","",""
16.0,0.06040938198566437,0.0019955359896890066,"train",17240.0,"2021-11-30 09:39:06.992564","","","","","","",""
16.0,0.059055909514427185,0.0019953768382593258,"train",17260.0,"2021-11-30 09:39:11.492536","","","","","","",""
16.0,0.07608379423618317,0.0019952149058310486,"train",17280.0,"2021-11-30 09:39:15.638450","","","","","","",""
16.0,0.048170700669288635,0.001995050192856602,"train",17300.0,"2021-11-30 09:39:20.213351","","","","","","",""
16.0,0.08259675651788712,0.001994882699796182,"train",17320.0,"2021-11-30 09:39:24.335037","","","","","","",""
16.0,0.05101152881979942,0.001994712427117752,"train",17340.0,"2021-11-30 09:39:28.774086","","","","","","",""
16.0,0.09711485356092453,0.0019945393752970413,"train",17360.0,"2021-11-30 09:39:32.832110","","","","","","",""
16.0,0.05643092840909958,0.001994363544817544,"train",17380.0,"2021-11-30 09:39:37.280078","","","","","","",""
16.0,0.07084451615810394,0.001994184936170517,"train",17400.0,"2021-11-30 09:39:41.761379","","","","","","",""
16.0,0.10558976233005524,0.0019940035498549804,"train",17420.0,"2021-11-30 09:39:45.886915","","","","","","",""
16.0,0.04810672998428345,0.0019938193863777145,"train",17440.0,"2021-11-30 09:39:50.343060","","","","","","",""
16.0,0.06394738703966141,0.001993632446253258,"train",17460.0,"2021-11-30 09:39:54.379221","","","","","","",""
16.0,0.052166346460580826,0.0019934427300039074,"train",17480.0,"2021-11-30 09:39:58.718774","","","","","","",""
16.0,0.05703190714120865,0.001993250238159717,"train",17500.0,"2021-11-30 09:40:02.850061","","","","","","",""
16.0,0.06899428367614746,0.0019930549712584944,"train",17520.0,"2021-11-30 09:40:07.303794","","","","","","",""
16.0,0.05511205270886421,0.001992856929845801,"train",17540.0,"2021-11-30 09:40:11.305754","","","","","","",""
16.0,0.07333408296108246,0.0019926561144749497,"train",17560.0,"2021-11-30 09:40:15.648392","","","","","","",""
16.0,0.03560268506407738,0.001992452525707004,"train",17580.0,"2021-11-30 09:40:19.997363","","","","","","",""
16.0,0.09215213358402252,0.0019922461641107767,"train",17600.0,"2021-11-30 09:40:24.021974","","","","","","",""
16.0,0.0471121184527874,0.001992037030262826,"train",17620.0,"2021-11-30 09:40:28.562149","","","","","","",""
16.0,0.04791576415300369,0.0019918251247474567,"train",17640.0,"2021-11-30 09:40:32.636905","","","","","","",""
16.0,0.042723942548036575,0.001991610448156718,"train",17660.0,"2021-11-30 09:40:36.960001","","","","","","",""
16.0,0.0662609189748764,0.0019913930010903996,"train",17680.0,"2021-11-30 09:40:41.139978","","","","","","",""
16.0,0.05042501911520958,0.001991172784156033,"train",17700.0,"2021-11-30 09:40:45.621548","","","","","","",""
16.0,0.06667099893093109,0.0019909497979688877,"train",17720.0,"2021-11-30 09:40:49.692596","","","","","","",""
16.0,0.04380881041288376,0.0019907240431519713,"train",17740.0,"2021-11-30 09:40:54.049984","","","","","","",""
16.0,0.07954338937997818,0.001990495520336026,"train",17760.0,"2021-11-30 09:40:58.411924","","","","","","",""
16.0,0.053145572543144226,0.0019902642301595284,"train",17780.0,"2021-11-30 09:41:02.416417","","","","","","",""
16.0,0.08887314796447754,0.001990030173268685,"train",17800.0,"2021-11-30 09:41:06.779968","","","","","","",""
16.0,0.05521726980805397,0.0019897933503174345,"train",17820.0,"2021-11-30 09:41:10.902783","","","","","","",""
16.0,0.060444723814725876,0.0019895537619674425,"train",17840.0,"2021-11-30 09:41:15.412154","","","","","","",""
16.0,0.08823251724243164,0.001989311408888101,"train",17860.0,"2021-11-30 09:41:19.582825","","","","","","",""
16.0,0.08982372283935547,0.001989066291756527,"train",17880.0,"2021-11-30 09:41:23.995894","","","","","","",""
16.0,0.047491203993558884,0.00198881841125756,"train",17900.0,"2021-11-30 09:41:28.095245","","","","","","",""
16.0,0.07404039055109024,0.0019885677680837595,"train",17920.0,"2021-11-30 09:41:32.546993","","","","","","",""
16.0,0.04573119804263115,0.001988314362935404,"train",17940.0,"2021-11-30 09:41:37.022115","","","","","","",""
16.0,0.04508299380540848,0.0019880581965204896,"train",17960.0,"2021-11-30 09:41:41.119036","","","","","","",""
16.0,0.06890138238668442,0.0019877992695547255,"train",17980.0,"2021-11-30 09:41:45.525023","","","","","","",""
16.0,0.06564837694168091,0.0019875375827615354,"train",18000.0,"2021-11-30 09:41:49.527038","","","","","","",""
16.0,0.08784699440002441,0.0019872731368720527,"train",18020.0,"2021-11-30 09:41:53.843991","","","","","","",""
16.0,0.07697629183530807,0.00198700593262512,"train",18040.0,"2021-11-30 09:41:57.828101","","","","","","",""
16.0,0.05916802957653999,0.001986735970767286,"train",18060.0,"2021-11-30 09:42:02.322704","","","","","","",""
16.0,0.06660714000463486,0.001986463252052804,"train",18080.0,"2021-11-30 09:42:06.478145","","","","","","",""
16.0,0.07622059434652328,0.0019861877772436305,"train",18100.0,"2021-11-30 09:42:11.029823","","","","","","",""
16.0,0.07050015777349472,0.001985909547109422,"train",18120.0,"2021-11-30 09:42:15.489576","","","","","","",""
16.0,0.07833703607320786,0.001985628562427533,"train",18140.0,"2021-11-30 09:42:19.617150","","","","","","",""
16.0,0.035216521471738815,0.001985344823983014,"train",18160.0,"2021-11-30 09:42:24.112623","","","","","","",""
16.0,0.05952133983373642,0.001985058332568609,"train",18180.0,"2021-11-30 09:42:28.272485","","","","","","",""
16.0,0.08315380662679672,0.001984769088984755,"train",18200.0,"2021-11-30 09:42:32.775932","","","","","","",""
16.0,0.045859191566705704,0.001984477094039576,"train",18220.0,"2021-11-30 09:42:36.916252","","","","","","",""
16.0,0.08045827597379684,0.001984182348548885,"train",18240.0,"2021-11-30 09:42:41.431771","","","","","","",""
16.0,"","","train",18258.0,"2021-11-30 09:44:28.567979",0.6568725896820199,0.6743347332110444,0.9609877784659543,0.7024934506882803,0.5750634138728269,0.59831840522906,0.4101439451158862
16.0,"","","val",18258.0,"2021-11-30 09:44:57.047428",0.6222892264873015,0.6097901975832252,0.9478241307399098,0.6617547154186204,0.5369602192006726,0.5544143949050387,0.3665350153897306
17.0,0.03268054127693176,0.00198388485333618,"train",18260.0,"2021-11-30 09:45:00.825536","","","","","","",""
17.0,0.05306706205010414,0.0019835846092326396,"train",18280.0,"2021-11-30 09:45:05.530992","","","","","","",""
17.0,0.04853710159659386,0.0019832816170771246,"train",18300.0,"2021-11-30 09:45:10.156137","","","","","","",""
17.0,0.05140823870897293,0.001982975877716172,"train",18320.0,"2021-11-30 09:45:14.734578","","","","","","",""
17.0,0.061009302735328674,0.0019826673920039957,"train",18340.0,"2021-11-30 09:45:19.294184","","","","","","",""
17.0,0.0577220544219017,0.0019823561608024822,"train",18360.0,"2021-11-30 09:45:23.541086","","","","","","",""
17.0,0.05288167670369148,0.0019820421849811886,"train",18380.0,"2021-11-30 09:45:28.166198","","","","","","",""
17.0,0.059353508055210114,0.0019817254654173402,"train",18400.0,"2021-11-30 09:45:32.746218","","","","","","",""
17.0,0.06517532467842102,0.0019814060029958278,"train",18420.0,"2021-11-30 09:45:37.320847","","","","","","",""
17.0,0.05669771879911423,0.001981083798609206,"train",18440.0,"2021-11-30 09:45:41.829445","","","","","","",""
17.0,0.074127696454525,0.0019807588531576908,"train",18460.0,"2021-11-30 09:45:45.934512","","","","","","",""
17.0,0.07107855379581451,0.0019804311675491555,"train",18480.0,"2021-11-30 09:45:50.365220","","","","","","",""
17.0,0.07175687700510025,0.00198010074269913,"train",18500.0,"2021-11-30 09:45:54.766750","","","","","","",""
17.0,0.07290562242269516,0.0019797675795307965,"train",18520.0,"2021-11-30 09:45:59.371734","","","","","","",""
17.0,0.07837043702602386,0.0019794316789749885,"train",18540.0,"2021-11-30 09:46:03.863121","","","","","","",""
17.0,0.0374407060444355,0.0019790930419701877,"train",18560.0,"2021-11-30 09:46:07.940548","","","","","","",""
17.0,0.09581432491540909,0.0019787516694625214,"train",18580.0,"2021-11-30 09:46:12.373490","","","","","","",""
17.0,0.04703577235341072,0.0019784075624057584,"train",18600.0,"2021-11-30 09:46:16.779376","","","","","","",""
17.0,0.07664159685373306,0.0019780607217613094,"train",18620.0,"2021-11-30 09:46:21.214947","","","","","","",""
17.0,0.055866487324237823,0.001977711148498221,"train",18640.0,"2021-11-30 09:46:25.670703","","","","","","",""
17.0,0.05369259789586067,0.0019773588435931756,"train",18660.0,"2021-11-30 09:46:29.801109","","","","","","",""
17.0,0.08938788622617722,0.0019770038080304873,"train",18680.0,"2021-11-30 09:46:34.248642","","","","","","",""
17.0,0.054014258086681366,0.001976646042802099,"train",18700.0,"2021-11-30 09:46:38.694982","","","","","","",""
17.0,0.06856377422809601,0.0019762855489075808,"train",18720.0,"2021-11-30 09:46:43.224855","","","","","","",""
17.0,0.054870739579200745,0.001975922327354126,"train",18740.0,"2021-11-30 09:46:47.808157","","","","","","",""
17.0,0.0431368350982666,0.001975556379156549,"train",18760.0,"2021-11-30 09:46:52.036424","","","","","","",""
17.0,0.0790470615029335,0.0019751877053372823,"train",18780.0,"2021-11-30 09:46:56.595655","","","","","","",""
17.0,0.08843037486076355,0.001974816306926373,"train",18800.0,"2021-11-30 09:47:01.179304","","","","","","",""
17.0,0.06990955770015717,0.001974442184961482,"train",18820.0,"2021-11-30 09:47:05.783057","","","","","","",""
17.0,0.07288749516010284,0.0019740653404878776,"train",18840.0,"2021-11-30 09:47:10.350923","","","","","","",""
17.0,0.08033823221921921,0.0019736857745584362,"train",18860.0,"2021-11-30 09:47:14.570517","","","","","","",""
17.0,0.09855639189481735,0.0019733034882336367,"train",18880.0,"2021-11-30 09:47:19.159845","","","","","","",""
17.0,0.0686604380607605,0.0019729184825815586,"train",18900.0,"2021-11-30 09:47:23.759135","","","","","","",""
17.0,0.0705922469496727,0.0019725307586778806,"train",18920.0,"2021-11-30 09:47:28.298211","","","","","","",""
17.0,0.04125521332025528,0.001972140317605874,"train",18940.0,"2021-11-30 09:47:32.907831","","","","","","",""
17.0,0.07342766970396042,0.0019717471604564028,"train",18960.0,"2021-11-30 09:47:37.212627","","","","","","",""
17.0,0.1016557514667511,0.0019713512883279185,"train",18980.0,"2021-11-30 09:47:41.647380","","","","","","",""
17.0,0.08991806954145432,0.00197095270232646,"train",19000.0,"2021-11-30 09:47:46.051545","","","","","","",""
17.0,0.0679972767829895,0.001970551403565646,"train",19020.0,"2021-11-30 09:47:50.473204","","","","","","",""
17.0,0.0933738499879837,0.0019701473931666765,"train",19040.0,"2021-11-30 09:47:54.911753","","","","","","",""
17.0,0.06705108284950256,0.001969740672258327,"train",19060.0,"2021-11-30 09:47:59.031846","","","","","","",""
17.0,0.07692722231149673,0.0019693312419769454,"train",19080.0,"2021-11-30 09:48:03.513635","","","","","","",""
17.0,0.04089212417602539,0.0019689191034664498,"train",19100.0,"2021-11-30 09:48:08.103543","","","","","","",""
17.0,0.04930272325873375,0.0019685042578783257,"train",19120.0,"2021-11-30 09:48:12.731302","","","","","","",""
17.0,0.03856031224131584,0.00196808670637162,"train",19140.0,"2021-11-30 09:48:17.313247","","","","","","",""
17.0,0.043933141976594925,0.001967666450112942,"train",19160.0,"2021-11-30 09:48:21.574578","","","","","","",""
17.0,0.07018788903951645,0.001967243490276456,"train",19180.0,"2021-11-30 09:48:26.212095","","","","","","",""
17.0,0.0614052452147007,0.0019668178280438818,"train",19200.0,"2021-11-30 09:48:30.932573","","","","","","",""
17.0,0.04418826848268509,0.0019663894646044875,"train",19220.0,"2021-11-30 09:48:35.500667","","","","","","",""
17.0,0.05349458381533623,0.001965958401155089,"train",19240.0,"2021-11-30 09:48:40.099893","","","","","","",""
17.0,0.07412756979465485,0.0019655246389000463,"train",19260.0,"2021-11-30 09:48:44.267607","","","","","","",""
17.0,0.04831472039222717,0.0019650881790512597,"train",19280.0,"2021-11-30 09:48:48.711648","","","","","","",""
17.0,0.08504986763000488,0.001964649022828165,"train",19300.0,"2021-11-30 09:48:53.175968","","","","","","",""
17.0,0.06789358705282211,0.0019642071714577325,"train",19320.0,"2021-11-30 09:48:57.714820","","","","","","",""
17.0,"","","train",19332.0,"2021-11-30 09:50:43.930547",0.6501782725751292,0.6739210024614077,0.9600646270537323,0.7044308475241399,0.5757354936407874,0.5979930761742848,0.4098504114379663
17.0,"","","val",19332.0,"2021-11-30 09:51:12.329516",0.6124318682593065,0.6105534338767312,0.9460105700871727,0.6589994592135341,0.5299916401100361,0.5473297046835041,0.35962728590807
18.0,0.05001967400312424,0.0019637626261744634,"train",19340.0,"2021-11-30 09:51:17.321782","","","","","","",""
18.0,0.049722567200660706,0.001963315388220384,"train",19360.0,"2021-11-30 09:51:22.054916","","","","","","",""
18.0,0.038220733404159546,0.0019628654588450443,"train",19380.0,"2021-11-30 09:51:26.148324","","","","","","",""
18.0,0.09333121031522751,0.001962412839305514,"train",19400.0,"2021-11-30 09:51:30.136024","","","","","","",""
18.0,0.09897974133491516,0.0019619575308663785,"train",19420.0,"2021-11-30 09:51:34.234173","","","","","","",""
18.0,0.06331445276737213,0.001961499534799737,"train",19440.0,"2021-11-30 09:51:38.238481","","","","","","",""
18.0,0.0741477981209755,0.001961038852385196,"train",19460.0,"2021-11-30 09:51:42.339499","","","","","","",""
18.0,0.047826822847127914,0.0019605754849098683,"train",19480.0,"2021-11-30 09:51:46.482323","","","","","","",""
18.0,0.05591157451272011,0.0019601094336683693,"train",19500.0,"2021-11-30 09:51:51.021816","","","","","","",""
18.0,0.05837792903184891,0.0019596406999628116,"train",19520.0,"2021-11-30 09:51:55.106450","","","","","","",""
18.0,0.06203596293926239,0.0019591692851028022,"train",19540.0,"2021-11-30 09:51:59.127682","","","","","","",""
18.0,0.05289986729621887,0.001958695190405441,"train",19560.0,"2021-11-30 09:52:03.109454","","","","","","",""
18.0,0.06568192690610886,0.001958218417195312,"train",19580.0,"2021-11-30 09:52:07.191425","","","","","","",""
18.0,0.03992469236254692,0.001957738966804486,"train",19600.0,"2021-11-30 09:52:11.239293","","","","","","",""
18.0,0.046873461455106735,0.001957256840572511,"train",19620.0,"2021-11-30 09:52:15.638663","","","","","","",""
18.0,0.08172772824764252,0.0019567720398464133,"train",19640.0,"2021-11-30 09:52:19.667495","","","","","","",""
18.0,0.04900527745485306,0.00195628456598069,"train",19660.0,"2021-11-30 09:52:23.720799","","","","","","",""
18.0,0.04195646196603775,0.001955794420337307,"train",19680.0,"2021-11-30 09:52:27.777822","","","","","","",""
18.0,0.06053226441144943,0.0019553016042856957,"train",19700.0,"2021-11-30 09:52:31.804193","","","","","","",""
18.0,0.06350314617156982,0.001954806119202748,"train",19720.0,"2021-11-30 09:52:35.852247","","","","","","",""
18.0,0.07794924080371857,0.001954307966472812,"train",19740.0,"2021-11-30 09:52:39.856486","","","","","","",""
18.0,0.06412652134895325,0.0019538071474876914,"train",19760.0,"2021-11-30 09:52:44.236448","","","","","","",""
18.0,0.08334329724311829,0.001953303663646636,"train",19780.0,"2021-11-30 09:52:48.236423","","","","","","",""
18.0,0.052555035799741745,0.0019527975163563436,"train",19800.0,"2021-11-30 09:52:52.319019","","","","","","",""
18.0,0.047973744571208954,0.0019522887070309524,"train",19820.0,"2021-11-30 09:52:56.422520","","","","","","",""
18.0,0.05941280350089073,0.0019517772370920379,"train",19840.0,"2021-11-30 09:53:00.559722","","","","","","",""
18.0,0.050494179129600525,0.0019512631079686104,"train",19860.0,"2021-11-30 09:53:04.714698","","","","","","",""
18.0,0.056019000709056854,0.001950746321097108,"train",19880.0,"2021-11-30 09:53:08.766336","","","","","","",""
18.0,0.053298190236091614,0.0019502268779213957,"train",19900.0,"2021-11-30 09:53:13.131183","","","","","","",""
18.0,0.042591243982315063,0.0019497047798927598,"train",19920.0,"2021-11-30 09:53:17.144911","","","","","","",""
18.0,0.0679328441619873,0.001949180028469903,"train",19940.0,"2021-11-30 09:53:21.210014","","","","","","",""
18.0,0.08127373456954956,0.0019486526251189435,"train",19960.0,"2021-11-30 09:53:25.275348","","","","","","",""
18.0,0.05901769548654556,0.0019481225713134064,"train",19980.0,"2021-11-30 09:53:29.240373","","","","","","",""
18.0,0.06593236327171326,0.0019475898685342235,"train",20000.0,"2021-11-30 09:53:33.172021","","","","","","",""
18.0,0.09009823203086853,0.0019470545182697272,"train",20020.0,"2021-11-30 09:53:37.539898","","","","","","",""
18.0,0.06162479519844055,0.001946516522015647,"train",20040.0,"2021-11-30 09:53:41.509192","","","","","","",""
18.0,0.05786590650677681,0.0019459758812751047,"train",20060.0,"2021-11-30 09:53:45.485383","","","","","","",""
18.0,0.06549225747585297,0.0019454325975586106,"train",20080.0,"2021-11-30 09:53:49.501912","","","","","","",""
18.0,0.04782184585928917,0.0019448866723840602,"train",20100.0,"2021-11-30 09:53:53.533974","","","","","","",""
18.0,0.05312396213412285,0.001944338107276728,"train",20120.0,"2021-11-30 09:53:57.516388","","","","","","",""
18.0,0.0690629854798317,0.0019437869037692644,"train",20140.0,"2021-11-30 09:54:01.527930","","","","","","",""
18.0,0.08408039063215256,0.0019432330634016912,"train",20160.0,"2021-11-30 09:54:05.918148","","","","","","",""
18.0,0.09867697954177856,0.0019426765877213986,"train",20180.0,"2021-11-30 09:54:09.929130","","","","","","",""
18.0,0.07352787256240845,0.0019421174782831383,"train",20200.0,"2021-11-30 09:54:14.020874","","","","","","",""
18.0,0.06264062225818634,0.0019415557366490208,"train",20220.0,"2021-11-30 09:54:18.038487","","","","","","",""
18.0,0.047176212072372437,0.0019409913643885113,"train",20240.0,"2021-11-30 09:54:21.992707","","","","","","",""
