"epoch","loss","lr","part","step","time","accuracy","auprc","auroc","challenge_metric","f_beta_measure","f_measure","g_beta_measure"
0.0,0.3813658654689789,8.000730236035311e-05,"train",20.0,"2021-11-30 17:56:41.843238","","","","","","",""
0.0,0.22203567624092102,8.002920933031948e-05,"train",40.0,"2021-11-30 17:56:45.920267","","","","","","",""
0.0,0.166351780295372,8.006572057662293e-05,"train",60.0,"2021-11-30 17:56:49.965735","","","","","","",""
0.0,0.1574246883392334,8.011683554380914e-05,"train",80.0,"2021-11-30 17:56:54.249175","","","","","","",""
0.0,0.13312889635562897,8.018255345425274e-05,"train",100.0,"2021-11-30 17:56:58.175426","","","","","","",""
0.0,0.1492113173007965,8.026287330817079e-05,"train",120.0,"2021-11-30 17:57:02.174501","","","","","","",""
0.0,0.13615374267101288,8.03577938836373e-05,"train",140.0,"2021-11-30 17:57:06.633170","","","","","","",""
0.0,0.13902884721755981,8.04673137366021e-05,"train",160.0,"2021-11-30 17:57:10.537468","","","","","","",""
0.0,0.11842726171016693,8.059143120091187e-05,"train",180.0,"2021-11-30 17:57:14.428654","","","","","","",""
0.0,0.1429349035024643,8.073014438833613e-05,"train",200.0,"2021-11-30 17:57:18.683216","","","","","","",""
0.0,0.14888398349285126,8.088345118859724e-05,"train",220.0,"2021-11-30 17:57:22.612512","","","","","","",""
0.0,0.12620237469673157,8.10513492693996e-05,"train",240.0,"2021-11-30 17:57:26.711230","","","","","","",""
0.0,0.13702115416526794,8.123383607646804e-05,"train",260.0,"2021-11-30 17:57:31.109028","","","","","","",""
0.0,0.13596294820308685,8.143090883358495e-05,"train",280.0,"2021-11-30 17:57:35.142635","","","","","","",""
0.0,0.14017906785011292,8.164256454263295e-05,"train",300.0,"2021-11-30 17:57:39.182321","","","","","","",""
0.0,0.12856806814670563,8.186879998364088e-05,"train",320.0,"2021-11-30 17:57:43.535228","","","","","","",""
0.0,0.1341925859451294,8.210961171483213e-05,"train",340.0,"2021-11-30 17:57:47.306626","","","","","","",""
0.0,0.1464501917362213,8.236499607267717e-05,"train",360.0,"2021-11-30 17:57:51.135953","","","","","","",""
0.0,0.12128473073244095,8.26349491719505e-05,"train",380.0,"2021-11-30 17:57:55.375810","","","","","","",""
0.0,0.13639143109321594,8.291946690578713e-05,"train",400.0,"2021-11-30 17:57:59.337861","","","","","","",""
0.0,0.1390056610107422,8.321854494574774e-05,"train",420.0,"2021-11-30 17:58:03.364255","","","","","","",""
0.0,0.14891375601291656,8.353217874188293e-05,"train",440.0,"2021-11-30 17:58:07.763179","","","","","","",""
0.0,0.14519178867340088,8.38603635228035e-05,"train",460.0,"2021-11-30 17:58:11.779171","","","","","","",""
0.0,0.1533176451921463,8.420309429575212e-05,"train",480.0,"2021-11-30 17:58:15.842061","","","","","","",""
0.0,0.13890068233013153,8.456036584667914e-05,"train",500.0,"2021-11-30 17:58:20.246291","","","","","","",""
0.0,0.1404348909854889,8.493217274032315e-05,"train",520.0,"2021-11-30 17:58:24.282409","","","","","","",""
0.0,0.13241425156593323,8.531850932029235e-05,"train",540.0,"2021-11-30 17:58:28.358755","","","","","","",""
0.0,0.1456909477710724,8.571936970915212e-05,"train",560.0,"2021-11-30 17:58:32.716557","","","","","","",""
0.0,0.1336825042963028,8.613474780851246e-05,"train",580.0,"2021-11-30 17:58:36.564063","","","","","","",""
0.0,0.1386653631925583,8.656463729912224e-05,"train",600.0,"2021-11-30 17:58:40.476630","","","","","","",""
0.0,0.13054589927196503,8.700903164096468e-05,"train",620.0,"2021-11-30 17:58:44.831175","","","","","","",""
0.0,0.13316303491592407,8.746792407335769e-05,"train",640.0,"2021-11-30 17:58:48.780261","","","","","","",""
0.0,0.10264374315738678,8.794130761505497e-05,"train",660.0,"2021-11-30 17:58:52.688063","","","","","","",""
0.0,0.1258755475282669,8.842917506435462e-05,"train",680.0,"2021-11-30 17:58:57.015784","","","","","","",""
0.0,0.12940935790538788,8.893151899920645e-05,"train",700.0,"2021-11-30 17:59:00.890803","","","","","","",""
0.0,0.12764336168766022,8.944833177732632e-05,"train",720.0,"2021-11-30 17:59:04.776047","","","","","","",""
0.0,0.13400761783123016,8.997960553631186e-05,"train",740.0,"2021-11-30 17:59:08.986144","","","","","","",""
0.0,0.1206769049167633,9.052533219376224e-05,"train",760.0,"2021-11-30 17:59:12.873342","","","","","","",""
0.0,0.12481532245874405,9.108550344740104e-05,"train",780.0,"2021-11-30 17:59:16.787668","","","","","","",""
0.0,0.11265207082033157,9.166011077520208e-05,"train",800.0,"2021-11-30 17:59:21.022403","","","","","","",""
0.0,0.10342512279748917,9.224914543552059e-05,"train",820.0,"2021-11-30 17:59:24.952625","","","","","","",""
0.0,0.1223718672990799,9.285259846722417e-05,"train",840.0,"2021-11-30 17:59:28.813674","","","","","","",""
0.0,0.1135442852973938,9.34704606898307e-05,"train",860.0,"2021-11-30 17:59:33.133135","","","","","","",""
0.0,0.11360394209623337,9.410272270364735e-05,"train",880.0,"2021-11-30 17:59:37.041540","","","","","","",""
0.0,0.1329696774482727,9.474937488991348e-05,"train",900.0,"2021-11-30 17:59:41.049730","","","","","","",""
0.0,0.1315814107656479,9.541040741094719e-05,"train",920.0,"2021-11-30 17:59:45.383125","","","","","","",""
0.0,0.1131732165813446,9.608581021029522e-05,"train",940.0,"2021-11-30 17:59:49.250955","","","","","","",""
0.0,0.11907190084457397,9.677557301288509e-05,"train",960.0,"2021-11-30 17:59:53.259807","","","","","","",""
0.0,0.11419927328824997,9.747968532518238e-05,"train",980.0,"2021-11-30 17:59:57.660142","","","","","","",""
0.0,0.11979255825281143,9.819813643535029e-05,"train",1000.0,"2021-11-30 18:00:01.685400","","","","","","",""
0.0,0.09743501991033554,9.893091541341185e-05,"train",1020.0,"2021-11-30 18:00:05.732300","","","","","","",""
0.0,0.10292492061853409,9.967801111141644e-05,"train",1040.0,"2021-11-30 18:00:10.109179","","","","","","",""
0.0,0.10230840742588043,0.00010043941216361023,"train",1060.0,"2021-11-30 18:00:14.156974","","","","","","",""
0.0,"","","train",1074.0,"2021-11-30 18:02:01.172826",0.4037109801353416,0.2370102115359024,0.780522049620855,0.29109057559115076,0.1558421400424262,0.15149028145656598,0.09808741474727842
0.0,"","","val",1074.0,"2021-11-30 18:02:29.164862",0.39904905485329933,0.23635267529018583,0.7803534866800241,0.284921091519377,0.15367544525480953,0.14898677703147684,0.09610624080627463
1.0,0.14907526969909668,0.00010121510698660771,"train",1080.0,"2021-11-30 18:02:33.754799","","","","","","",""
1.0,0.11125599592924118,0.00010200508377956928,"train",1100.0,"2021-11-30 18:02:38.122588","","","","","","",""
1.0,0.10679828375577927,0.00010280933052437993,"train",1120.0,"2021-11-30 18:02:41.937005","","","","","","",""
1.0,0.1035255566239357,0.00010362783498583223,"train",1140.0,"2021-11-30 18:02:45.771116","","","","","","",""
1.0,0.09945853054523468,0.0001044605847118124,"train",1160.0,"2021-11-30 18:02:50.085037","","","","","","",""
1.0,0.10263611376285553,0.0001053075670334907,"train",1180.0,"2021-11-30 18:02:54.176596","","","","","","",""
1.0,0.12688684463500977,0.00010616876906551181,"train",1200.0,"2021-11-30 18:02:58.049480","","","","","","",""
1.0,0.0941619798541069,0.0001070441777061941,"train",1220.0,"2021-11-30 18:03:02.275850","","","","","","",""
1.0,0.11602017283439636,0.00010793377963772563,"train",1240.0,"2021-11-30 18:03:06.215757","","","","","","",""
1.0,0.08324974030256271,0.0001088375613263698,"train",1260.0,"2021-11-30 18:03:10.176616","","","","","","",""
1.0,0.11173588037490845,0.00010975550902266908,"train",1280.0,"2021-11-30 18:03:14.411247","","","","","","",""
1.0,0.09953650832176208,0.00011068760876165474,"train",1300.0,"2021-11-30 18:03:18.504430","","","","","","",""
1.0,0.11434900015592575,0.0001116338463630598,"train",1320.0,"2021-11-30 18:03:22.601060","","","","","","",""
1.0,0.12169143557548523,0.00011259420743153455,"train",1340.0,"2021-11-30 18:03:26.983771","","","","","","",""
1.0,0.1079891100525856,0.00011356867735686535,"train",1360.0,"2021-11-30 18:03:31.051312","","","","","","",""
1.0,0.08692941814661026,0.00011455724131419621,"train",1380.0,"2021-11-30 18:03:34.956129","","","","","","",""
1.0,0.08516456186771393,0.00011555988426425654,"train",1400.0,"2021-11-30 18:03:39.263008","","","","","","",""
1.0,0.10735008865594864,0.00011657659095358746,"train",1420.0,"2021-11-30 18:03:43.120000","","","","","","",""
1.0,0.10496477037668228,0.00011760734591477516,"train",1440.0,"2021-11-30 18:03:46.964925","","","","","","",""
1.0,0.10568878054618835,0.00011865213346668618,"train",1460.0,"2021-11-30 18:03:51.061585","","","","","","",""
1.0,0.08908401429653168,0.00011971093771470502,"train",1480.0,"2021-11-30 18:03:54.792466","","","","","","",""
1.0,0.08134235441684723,0.0001207837425509777,"train",1500.0,"2021-11-30 18:03:58.529040","","","","","","",""
1.0,0.10673831403255463,0.00012187053165465503,"train",1520.0,"2021-11-30 18:04:02.813688","","","","","","",""
1.0,0.12851929664611816,0.000122971288492142,"train",1540.0,"2021-11-30 18:04:06.744974","","","","","","",""
1.0,0.10908432304859161,0.00012408599631734863,"train",1560.0,"2021-11-30 18:04:10.653667","","","","","","",""
1.0,0.09978442639112473,0.00012521463817194542,"train",1580.0,"2021-11-30 18:04:14.763518","","","","","","",""
1.0,0.10032019764184952,0.00012635719688562077,"train",1600.0,"2021-11-30 18:04:18.597053","","","","","","",""
1.0,0.07214069366455078,0.00012751365507634267,"train",1620.0,"2021-11-30 18:04:22.440446","","","","","","",""
1.0,0.10632588714361191,0.0001286839951506226,"train",1640.0,"2021-11-30 18:04:26.599716","","","","","","",""
1.0,0.09421008080244064,0.00012986819930378333,"train",1660.0,"2021-11-30 18:04:30.525155","","","","","","",""
1.0,0.1012481227517128,0.00013106624952023064,"train",1680.0,"2021-11-30 18:04:34.455048","","","","","","",""
1.0,0.07307828217744827,0.00013227812757372545,"train",1700.0,"2021-11-30 18:04:38.758872","","","","","","",""
1.0,0.10849375277757645,0.00013350381502766394,"train",1720.0,"2021-11-30 18:04:42.726926","","","","","","",""
1.0,0.1084991842508316,0.00013474329323535494,"train",1740.0,"2021-11-30 18:04:46.763735","","","","","","",""
1.0,0.12005101889371872,0.0001359965433403059,"train",1760.0,"2021-11-30 18:04:51.163119","","","","","","",""
1.0,0.10493829846382141,0.00013726354627650872,"train",1780.0,"2021-11-30 18:04:55.193008","","","","","","",""
1.0,0.11551983654499054,0.00013854428276873052,"train",1800.0,"2021-11-30 18:04:59.160100","","","","","","",""
1.0,0.09456323087215424,0.00013983873333280506,"train",1820.0,"2021-11-30 18:05:03.606883","","","","","","",""
1.0,0.09381178766489029,0.00014114687827593156,"train",1840.0,"2021-11-30 18:05:07.714828","","","","","","",""
1.0,0.08059456199407578,0.00014246869769697352,"train",1860.0,"2021-11-30 18:05:11.711661","","","","","","",""
1.0,0.07895147055387497,0.00014380417148676054,"train",1880.0,"2021-11-30 18:05:16.096323","","","","","","",""
1.0,0.09754867106676102,0.00014515327932839404,"train",1900.0,"2021-11-30 18:05:20.109190","","","","","","",""
1.0,0.10502173006534576,0.0001465160006975598,"train",1920.0,"2021-11-30 18:05:24.115078","","","","","","",""
1.0,0.09076358377933502,0.00014789231486283454,"train",1940.0,"2021-11-30 18:05:28.514214","","","","","","",""
1.0,0.08624698966741562,0.00014928220088600633,"train",1960.0,"2021-11-30 18:05:32.387796","","","","","","",""
1.0,0.10407792776823044,0.00015068563762239045,"train",1980.0,"2021-11-30 18:05:36.226883","","","","","","",""
1.0,0.10861609876155853,0.00015210260372115238,"train",2000.0,"2021-11-30 18:05:40.439385","","","","","","",""
1.0,0.1259918212890625,0.00015353307762563115,"train",2020.0,"2021-11-30 18:05:44.430800","","","","","","",""
1.0,0.11234194040298462,0.00015497703757366872,"train",2040.0,"2021-11-30 18:05:48.428406","","","","","","",""
1.0,0.08889099955558777,0.00015643446159794,"train",2060.0,"2021-11-30 18:05:52.901196","","","","","","",""
1.0,0.1092512384057045,0.0001579053275262887,"train",2080.0,"2021-11-30 18:05:56.941648","","","","","","",""
1.0,0.10696002840995789,0.00015938961298206183,"train",2100.0,"2021-11-30 18:06:00.974964","","","","","","",""
1.0,0.10923083126544952,0.00016088729538445297,"train",2120.0,"2021-11-30 18:06:05.338653","","","","","","",""
1.0,0.07836063206195831,0.000162398351948844,"train",2140.0,"2021-11-30 18:06:09.380627","","","","","","",""
1.0,"","","train",2148.0,"2021-11-30 18:07:53.080356",0.4311140216837663,0.30969211308116557,0.833950286018976,0.361798727503828,0.19538838516562343,0.19636501914421067,0.1316399932884268
1.0,"","","val",2148.0,"2021-11-30 18:08:21.139980",0.4238664038037806,0.303657487369952,0.8286119418073573,0.35345573626496857,0.19232609841664086,0.19153110742736318,0.1280163737998085
2.0,0.10914570093154907,0.00016392275968715297,"train",2160.0,"2021-11-30 18:08:27.006386","","","","","","",""
2.0,0.09113245457410812,0.00016546049540818223,"train",2180.0,"2021-11-30 18:08:30.921383","","","","","","",""
2.0,0.10444082319736481,0.00016701153571797313,"train",2200.0,"2021-11-30 18:08:35.311583","","","","","","",""
2.0,0.08722632378339767,0.00016857585702016015,"train",2220.0,"2021-11-30 18:08:39.247621","","","","","","",""
2.0,0.10837362706661224,0.00017015343551633126,"train",2240.0,"2021-11-30 18:08:43.204072","","","","","","",""
2.0,0.09487487375736237,0.0001717442472063892,"train",2260.0,"2021-11-30 18:08:47.533236","","","","","","",""
2.0,0.09214788675308228,0.00017334826788891681,"train",2280.0,"2021-11-30 18:08:51.573040","","","","","","",""
2.0,0.07433416694402695,0.00017496547316154555,"train",2300.0,"2021-11-30 18:08:55.558677","","","","","","",""
2.0,0.09382811188697815,0.00017659583842132573,"train",2320.0,"2021-11-30 18:08:59.889961","","","","","","",""
2.0,0.0879785344004631,0.00017823933886510217,"train",2340.0,"2021-11-30 18:09:03.878659","","","","","","",""
2.0,0.0965108573436737,0.00017989594948989015,"train",2360.0,"2021-11-30 18:09:07.829938","","","","","","",""
2.0,0.10789310187101364,0.00018156564509325753,"train",2380.0,"2021-11-30 18:09:12.200729","","","","","","",""
2.0,0.09056718647480011,0.0001832484002737059,"train",2400.0,"2021-11-30 18:09:16.193033","","","","","","",""
2.0,0.09821560233831406,0.00018494418943105877,"train",2420.0,"2021-11-30 18:09:20.253731","","","","","","",""
2.0,0.09866466373205185,0.00018665298676685078,"train",2440.0,"2021-11-30 18:09:24.612260","","","","","","",""
2.0,0.08855492621660233,0.0001883747662847191,"train",2460.0,"2021-11-30 18:09:28.554690","","","","","","",""
2.0,0.09353087842464447,0.00019010950179080112,"train",2480.0,"2021-11-30 18:09:32.464757","","","","","","",""
2.0,0.10103825479745865,0.00019185716689412995,"train",2500.0,"2021-11-30 18:09:36.744066","","","","","","",""
2.0,0.08702591061592102,0.00019361773500703797,"train",2520.0,"2021-11-30 18:09:40.733080","","","","","","",""
2.0,0.11845576018095016,0.00019539117934556168,"train",2540.0,"2021-11-30 18:09:44.738305","","","","","","",""
2.0,0.10827844589948654,0.00019717747292984696,"train",2560.0,"2021-11-30 18:09:49.148251","","","","","","",""
2.0,0.09268655627965927,0.0001989765885845624,"train",2580.0,"2021-11-30 18:09:53.193822","","","","","","",""
2.0,0.12378409504890442,0.00020078849893931014,"train",2600.0,"2021-11-30 18:09:57.259971","","","","","","",""
2.0,0.09400800615549088,0.0002026131764290434,"train",2620.0,"2021-11-30 18:10:01.646695","","","","","","",""
2.0,0.10071577876806259,0.00020445059329448614,"train",2640.0,"2021-11-30 18:10:05.632964","","","","","","",""
2.0,0.09238868951797485,0.00020630072158255497,"train",2660.0,"2021-11-30 18:10:09.684378","","","","","","",""
2.0,0.08055121451616287,0.00020816353314678467,"train",2680.0,"2021-11-30 18:10:14.131531","","","","","","",""
2.0,0.08429820835590363,0.00021003899964775505,"train",2700.0,"2021-11-30 18:10:18.259451","","","","","","",""
2.0,0.08555419743061066,0.00021192709255352473,"train",2720.0,"2021-11-30 18:10:22.356999","","","","","","",""
2.0,0.08935657888650894,0.00021382778314006255,"train",2740.0,"2021-11-30 18:10:26.636339","","","","","","",""
2.0,0.0957280695438385,0.00021574104249168615,"train",2760.0,"2021-11-30 18:10:30.530761","","","","","","",""
2.0,0.09778380393981934,0.00021766684150150133,"train",2780.0,"2021-11-30 18:10:34.411390","","","","","","",""
2.0,0.11471520364284515,0.00021960515087184485,"train",2800.0,"2021-11-30 18:10:38.632840","","","","","","",""
2.0,0.08358623832464218,0.00022155594111472978,"train",2820.0,"2021-11-30 18:10:42.468896","","","","","","",""
2.0,0.07511644810438156,0.0002235191825522959,"train",2840.0,"2021-11-30 18:10:46.329974","","","","","","",""
2.0,0.0912628024816513,0.00022549484531725838,"train",2860.0,"2021-11-30 18:10:50.710525","","","","","","",""
2.0,0.0768488198518753,0.00022748289935336434,"train",2880.0,"2021-11-30 18:10:54.670681","","","","","","",""
2.0,0.0831875428557396,0.00022948331441584964,"train",2900.0,"2021-11-30 18:10:58.652376","","","","","","",""
2.0,0.10316706448793411,0.00023149606007189785,"train",2920.0,"2021-11-30 18:11:02.990709","","","","","","",""
2.0,0.09960363805294037,0.00023352110570110476,"train",2940.0,"2021-11-30 18:11:06.844121","","","","","","",""
2.0,0.09561779350042343,0.00023555842049594305,"train",2960.0,"2021-11-30 18:11:10.579851","","","","","","",""
2.0,0.08930041640996933,0.00023760797346223305,"train",2980.0,"2021-11-30 18:11:14.889099","","","","","","",""
2.0,0.10621628165245056,0.00023966973341961028,"train",3000.0,"2021-11-30 18:11:18.938014","","","","","","",""
2.0,0.10129989683628082,0.0002417436690020044,"train",3020.0,"2021-11-30 18:11:22.810900","","","","","","",""
2.0,0.08323527872562408,0.00024382974865811325,"train",3040.0,"2021-11-30 18:11:27.138161","","","","","","",""
2.0,0.10989183932542801,0.000245927940651884,"train",3060.0,"2021-11-30 18:11:31.124543","","","","","","",""
2.0,0.10264074057340622,0.0002480382130629953,"train",3080.0,"2021-11-30 18:11:35.120317","","","","","","",""
2.0,0.10919629037380219,0.0002501605337873443,"train",3100.0,"2021-11-30 18:11:39.496050","","","","","","",""
2.0,0.0981757640838623,0.0002522948705375337,"train",3120.0,"2021-11-30 18:11:43.566825","","","","","","",""
2.0,0.12766380608081818,0.00025444119084336303,"train",3140.0,"2021-11-30 18:11:47.706712","","","","","","",""
2.0,0.09945860505104065,0.00025659946205232364,"train",3160.0,"2021-11-30 18:11:52.143457","","","","","","",""
2.0,0.08748568594455719,0.0002587696513300941,"train",3180.0,"2021-11-30 18:11:56.232882","","","","","","",""
2.0,0.08080073446035385,0.0002609517256610412,"train",3200.0,"2021-11-30 18:12:00.328883","","","","","","",""
2.0,0.08911731839179993,0.00026314565184872084,"train",3220.0,"2021-11-30 18:12:04.678520","","","","","","",""
2.0,"","","train",3222.0,"2021-11-30 18:13:48.610070",0.491202794149749,0.40330486842947566,0.8856516924698515,0.4629067451681639,0.3113158649359576,0.3102317019614229,0.2076420858128946
2.0,"","","val",3222.0,"2021-11-30 18:14:17.751652",0.487127449843442,0.39543351666483495,0.8788405245851988,0.4568236737678381,0.30741452198852115,0.3032979916985745,0.20308562127964885
3.0,0.09523692727088928,0.0002653513965163838,"train",3240.0,"2021-11-30 18:14:24.697291","","","","","","",""
3.0,0.08889911323785782,0.0002675689261074836,"train",3260.0,"2021-11-30 18:14:28.657054","","","","","","",""
3.0,0.0989435687661171,0.00026979820688618605,"train",3280.0,"2021-11-30 18:14:33.121366","","","","","","",""
3.0,0.09931665658950806,0.00027203920493788433,"train",3300.0,"2021-11-30 18:14:37.164723","","","","","","",""
3.0,0.08098836243152618,0.00027429188616971277,"train",3320.0,"2021-11-30 18:14:41.201710","","","","","","",""
3.0,0.06976771354675293,0.0002765562163110668,"train",3340.0,"2021-11-30 18:14:45.589536","","","","","","",""
3.0,0.0974889025092125,0.00027883216091412503,"train",3360.0,"2021-11-30 18:14:49.707473","","","","","","",""
3.0,0.1062282994389534,0.0002811196853543707,"train",3380.0,"2021-11-30 18:14:53.580607","","","","","","",""
3.0,0.09986614435911179,0.00028341875483112134,"train",3400.0,"2021-11-30 18:14:57.791499","","","","","","",""
3.0,0.10398612171411514,0.00028572933436805644,"train",3420.0,"2021-11-30 18:15:01.826596","","","","","","",""
3.0,0.10101844370365143,0.0002880513888137504,"train",3440.0,"2021-11-30 18:15:05.893605","","","","","","",""
3.0,0.10350935906171799,0.0002903848828422063,"train",3460.0,"2021-11-30 18:15:10.310350","","","","","","",""
3.0,0.06738346815109253,0.00029272978095339465,"train",3480.0,"2021-11-30 18:15:14.406005","","","","","","",""
3.0,0.07087390124797821,0.00029508604747379243,"train",3500.0,"2021-11-30 18:15:18.487510","","","","","","",""
3.0,0.09784533083438873,0.00029745364655692653,"train",3520.0,"2021-11-30 18:15:22.879641","","","","","","",""
3.0,0.11024363338947296,0.0002998325421839181,"train",3540.0,"2021-11-30 18:15:26.849212","","","","","","",""
3.0,0.0865655317902565,0.0003022226981640318,"train",3560.0,"2021-11-30 18:15:30.803522","","","","","","",""
3.0,0.07450176775455475,0.00030462407813522494,"train",3580.0,"2021-11-30 18:15:35.111231","","","","","","",""
3.0,0.07496698945760727,0.0003070366455647027,"train",3600.0,"2021-11-30 18:15:38.996019","","","","","","",""
3.0,0.07156690955162048,0.000309460363749471,"train",3620.0,"2021-11-30 18:15:42.942588","","","","","","",""
3.0,0.07627923041582108,0.0003118951958168978,"train",3640.0,"2021-11-30 18:15:47.314173","","","","","","",""
3.0,0.07997458428144455,0.0003143411047252722,"train",3660.0,"2021-11-30 18:15:51.370055","","","","","","",""
3.0,0.10363174229860306,0.0003167980532643691,"train",3680.0,"2021-11-30 18:15:55.432582","","","","","","",""
3.0,0.08452548086643219,0.0003192660040560141,"train",3700.0,"2021-11-30 18:15:59.628248","","","","","","",""
3.0,0.08086647093296051,0.0003217449195546528,"train",3720.0,"2021-11-30 18:16:03.500882","","","","","","",""
3.0,0.08583896607160568,0.00032423476204792244,"train",3740.0,"2021-11-30 18:16:07.560730","","","","","","",""
3.0,0.09993250668048859,0.0003267354936572248,"train",3760.0,"2021-11-30 18:16:11.937416","","","","","","",""
3.0,0.07583089917898178,0.0003292470763383026,"train",3780.0,"2021-11-30 18:16:16.005560","","","","","","",""
3.0,0.08777555823326111,0.0003317694718818192,"train",3800.0,"2021-11-30 18:16:20.033023","","","","","","",""
3.0,0.074828140437603,0.00033430264191393853,"train",3820.0,"2021-11-30 18:16:24.471598","","","","","","",""
3.0,0.07588434219360352,0.0003368465478969097,"train",3840.0,"2021-11-30 18:16:28.466690","","","","","","",""
3.0,0.08652758598327637,0.0003394011511296533,"train",3860.0,"2021-11-30 18:16:32.361253","","","","","","",""
3.0,0.08805560320615768,0.0003419664127483496,"train",3880.0,"2021-11-30 18:16:36.588930","","","","","","",""
3.0,0.07365205138921738,0.00034454229372703074,"train",3900.0,"2021-11-30 18:16:40.458568","","","","","","",""
3.0,0.08470601588487625,0.00034712875487817314,"train",3920.0,"2021-11-30 18:16:44.326953","","","","","","",""
3.0,0.09661302715539932,0.00034972575685329526,"train",3940.0,"2021-11-30 18:16:48.592721","","","","","","",""
3.0,0.10503950715065002,0.0003523332601435541,"train",3960.0,"2021-11-30 18:16:52.497179","","","","","","",""
3.0,0.10077176243066788,0.00035495122508034916,"train",3980.0,"2021-11-30 18:16:56.404132","","","","","","",""
3.0,0.05684184283018112,0.0003575796118359231,"train",4000.0,"2021-11-30 18:17:00.610332","","","","","","",""
3.0,0.09204688668251038,0.00036021838042396906,"train",4020.0,"2021-11-30 18:17:04.478035","","","","","","",""
3.0,0.08200040459632874,0.0003628674907002389,"train",4040.0,"2021-11-30 18:17:08.374708","","","","","","",""
3.0,0.07890252023935318,0.00036552690236315395,"train",4060.0,"2021-11-30 18:17:12.603328","","","","","","",""
3.0,0.07723944634199142,0.00036819657495441773,"train",4080.0,"2021-11-30 18:17:16.484068","","","","","","",""
3.0,0.08523640781641006,0.0003708764678596317,"train",4100.0,"2021-11-30 18:17:20.512872","","","","","","",""
3.0,0.0985572561621666,0.00037356654030891293,"train",4120.0,"2021-11-30 18:17:24.985247","","","","","","",""
3.0,0.09936898201704025,0.0003762667513775148,"train",4140.0,"2021-11-30 18:17:29.080613","","","","","","",""
3.0,0.0898425430059433,0.0003789770599864498,"train",4160.0,"2021-11-30 18:17:33.138240","","","","","","",""
3.0,0.0794108659029007,0.000381697424903113,"train",4180.0,"2021-11-30 18:17:38.792469","","","","","","",""
3.0,0.0764896497130394,0.0003844278047419108,"train",4200.0,"2021-11-30 18:17:42.828135","","","","","","",""
3.0,0.08295311033725739,0.0003871681579648903,"train",4220.0,"2021-11-30 18:17:46.915899","","","","","","",""
3.0,0.07576551288366318,0.0003899184428823709,"train",4240.0,"2021-11-30 18:17:51.285301","","","","","","",""
3.0,0.08150376379489899,0.0003926786176535783,"train",4260.0,"2021-11-30 18:17:55.340814","","","","","","",""
3.0,0.0806906595826149,0.0003954486402872818,"train",4280.0,"2021-11-30 18:17:59.377916","","","","","","",""
3.0,"","","train",4296.0,"2021-11-30 18:19:44.472839",0.5329840646147129,0.45428364517399117,0.9082599885305511,0.5199364374002498,0.35368160132854165,0.353995332178229,0.23850006996361783
3.0,"","","val",4296.0,"2021-11-30 18:20:13.673859",0.525397193552128,0.43730901838688474,0.9006943032367516,0.5075231797070491,0.3465882621556936,0.3442481828719203,0.23099974739145981
4.0,0.0795341357588768,0.0003982284686424324,"train",4300.0,"2021-11-30 18:20:18.428075","","","","","","",""
4.0,0.07543836534023285,0.0004010180604288045,"train",4320.0,"2021-11-30 18:20:22.449128","","","","","","",""
4.0,0.06847385317087173,0.00040381737320763873,"train",4340.0,"2021-11-30 18:20:26.416338","","","","","","",""
4.0,0.06840778887271881,0.0004066263643922878,"train",4360.0,"2021-11-30 18:20:30.784352","","","","","","",""
4.0,0.09384366869926453,0.0004094449912488646,"train",4380.0,"2021-11-30 18:20:34.779522","","","","","","",""
4.0,0.10093727707862854,0.0004122732108968923,"train",4400.0,"2021-11-30 18:20:38.755163","","","","","","",""
4.0,0.10272899270057678,0.0004151109803099558,"train",4420.0,"2021-11-30 18:20:43.046295","","","","","","",""
4.0,0.07428184151649475,0.00041795825631635764,"train",4440.0,"2021-11-30 18:20:47.002382","","","","","","",""
4.0,0.06643455475568771,0.0004208149955997739,"train",4460.0,"2021-11-30 18:20:50.943744","","","","","","",""
4.0,0.0951039120554924,0.0004236811546999141,"train",4480.0,"2021-11-30 18:20:55.290452","","","","","","",""
4.0,0.08156640827655792,0.0004265566900131805,"train",4500.0,"2021-11-30 18:20:59.290527","","","","","","",""
4.0,0.08727894723415375,0.0004294415577933337,"train",4520.0,"2021-11-30 18:21:03.299811","","","","","","",""
4.0,0.10581311583518982,0.00043233571415215717,"train",4540.0,"2021-11-30 18:21:07.284115","","","","","","",""
4.0,0.109841488301754,0.0004352391150601242,"train",4560.0,"2021-11-30 18:21:11.666941","","","","","","",""
4.0,0.06364407390356064,0.0004381517163470684,"train",4580.0,"2021-11-30 18:21:15.694959","","","","","","",""
4.0,0.08415940403938293,0.00044107347370285683,"train",4600.0,"2021-11-30 18:21:19.714613","","","","","","",""
4.0,0.060835059732198715,0.00044400434267806194,"train",4620.0,"2021-11-30 18:21:24.022248","","","","","","",""
4.0,0.0815839096903801,0.00044694427868463907,"train",4640.0,"2021-11-30 18:21:27.976115","","","","","","",""
4.0,0.0664079412817955,0.00044989323699660467,"train",4660.0,"2021-11-30 18:21:31.914382","","","","","","",""
4.0,0.07755804061889648,0.0004528511727507165,"train",4680.0,"2021-11-30 18:21:36.302015","","","","","","",""
4.0,0.058798667043447495,0.00045581804094715645,"train",4700.0,"2021-11-30 18:21:40.227669","","","","","","",""
4.0,0.08257292211055756,0.00045879379645021425,"train",4720.0,"2021-11-30 18:21:44.198948","","","","","","",""
4.0,0.07735753059387207,0.0004617783939889759,"train",4740.0,"2021-11-30 18:21:48.530268","","","","","","",""
4.0,0.0815068781375885,0.0004647717881580103,"train",4760.0,"2021-11-30 18:21:52.488907","","","","","","",""
4.0,0.11224209517240524,0.0004677739334180617,"train",4780.0,"2021-11-30 18:21:56.476033","","","","","","",""
4.0,0.08270484209060669,0.00047078478409674144,"train",4800.0,"2021-11-30 18:22:00.831957","","","","","","",""
4.0,0.09722128510475159,0.00047380429438922305,"train",4820.0,"2021-11-30 18:22:04.799492","","","","","","",""
4.0,0.09454040974378586,0.00047683241835893946,"train",4840.0,"2021-11-30 18:22:08.799896","","","","","","",""
4.0,0.07347211986780167,0.0004798691099382815,"train",4860.0,"2021-11-30 18:22:13.153713","","","","","","",""
4.0,0.08804596960544586,0.0004829143229292986,"train",4880.0,"2021-11-30 18:22:17.102086","","","","","","",""
4.0,0.06552635133266449,0.0004859680110044023,"train",4900.0,"2021-11-30 18:22:20.986117","","","","","","",""
4.0,0.08124586194753647,0.0004890301277070699,"train",4920.0,"2021-11-30 18:22:25.231346","","","","","","",""
4.0,0.06382159143686295,0.0004921006264525525,"train",4940.0,"2021-11-30 18:22:29.212699","","","","","","",""
4.0,0.06180059164762497,0.0004951794605285824,"train",4960.0,"2021-11-30 18:22:33.189765","","","","","","",""
4.0,0.09777969866991043,0.0004982665830960853,"train",4980.0,"2021-11-30 18:22:37.492143","","","","","","",""
4.0,0.0871572196483612,0.0005013619471898913,"train",5000.0,"2021-11-30 18:22:41.518243","","","","","","",""
4.0,0.0656759962439537,0.0005044655057194504,"train",5020.0,"2021-11-30 18:22:45.507130","","","","","","",""
4.0,0.06759046018123627,0.0005075772114695486,"train",5040.0,"2021-11-30 18:22:49.820233","","","","","","",""
4.0,0.04843625798821449,0.0005106970171010257,"train",5060.0,"2021-11-30 18:22:53.800141","","","","","","",""
4.0,0.07642064243555069,0.0005138248751514966,"train",5080.0,"2021-11-30 18:22:57.769839","","","","","","",""
4.0,0.062232013791799545,0.0005169607380360731,"train",5100.0,"2021-11-30 18:23:02.040520","","","","","","",""
4.0,0.07278305292129517,0.000520104558048086,"train",5120.0,"2021-11-30 18:23:05.967489","","","","","","",""
4.0,0.11138007044792175,0.0005232562873598136,"train",5140.0,"2021-11-30 18:23:09.878002","","","","","","",""
4.0,0.07132595032453537,0.0005264158780232072,"train",5160.0,"2021-11-30 18:23:14.043749","","","","","","",""
4.0,0.07817767560482025,0.0005295832819706228,"train",5180.0,"2021-11-30 18:23:17.927036","","","","","","",""
4.0,0.07178731262683868,0.0005327584510155488,"train",5200.0,"2021-11-30 18:23:21.894806","","","","","","",""
4.0,0.05308860167860985,0.000535941336853343,"train",5220.0,"2021-11-30 18:23:26.283029","","","","","","",""
4.0,0.07486196607351303,0.0005391318910619655,"train",5240.0,"2021-11-30 18:23:30.377782","","","","","","",""
4.0,0.06301991641521454,0.0005423300651027144,"train",5260.0,"2021-11-30 18:23:34.331185","","","","","","",""
4.0,0.07231993228197098,0.0005455358103209663,"train",5280.0,"2021-11-30 18:23:38.655344","","","","","","",""
4.0,0.08103480935096741,0.0005487490779469157,"train",5300.0,"2021-11-30 18:23:42.620517","","","","","","",""
4.0,0.06626014411449432,0.000551969819096316,"train",5320.0,"2021-11-30 18:23:46.590467","","","","","","",""
4.0,0.08556650578975677,0.0005551979847712252,"train",5340.0,"2021-11-30 18:23:50.856055","","","","","","",""
4.0,0.07471136003732681,0.0005584335258607489,"train",5360.0,"2021-11-30 18:23:54.776688","","","","","","",""
4.0,"","","train",5370.0,"2021-11-30 18:25:39.782254",0.5458487957505639,0.48120926033387895,0.9103325504506207,0.5336755349162428,0.362504913211503,0.3694770609580923,0.25028552298528534
4.0,"","","val",5370.0,"2021-11-30 18:26:08.103503",0.537399976806216,0.45808733815368624,0.9038358194090708,0.5197089774817018,0.3535411702483012,0.3575434025844977,0.2393357805012221
5.0,0.06472518295049667,0.0005616763931417894,"train",5380.0,"2021-11-30 18:26:13.537620","","","","","","",""
5.0,0.05694099888205528,0.0005649265372797939,"train",5400.0,"2021-11-30 18:26:17.934596","","","","","","",""
5.0,0.05680760368704796,0.0005681839088295046,"train",5420.0,"2021-11-30 18:26:21.909096","","","","","","",""
5.0,0.0653495192527771,0.0005714484582357109,"train",5440.0,"2021-11-30 18:26:25.931114","","","","","","",""
5.0,0.055862292647361755,0.0005747201358340048,"train",5460.0,"2021-11-30 18:26:30.379583","","","","","","",""
5.0,0.10878909379243851,0.0005779988918515344,"train",5480.0,"2021-11-30 18:26:34.391062","","","","","","",""
5.0,0.08363234251737595,0.0005812846764077623,"train",5500.0,"2021-11-30 18:26:38.313598","","","","","","",""
5.0,0.07713180035352707,0.0005845774395152243,"train",5520.0,"2021-11-30 18:26:42.638249","","","","","","",""
5.0,0.09799598157405853,0.0005878771310802895,"train",5540.0,"2021-11-30 18:26:46.619849","","","","","","",""
5.0,0.08963629603385925,0.0005911837009039229,"train",5560.0,"2021-11-30 18:26:50.540366","","","","","","",""
5.0,0.06767022609710693,0.0005944970986824485,"train",5580.0,"2021-11-30 18:26:54.824554","","","","","","",""
5.0,0.0848066657781601,0.000597817274008315,"train",5600.0,"2021-11-30 18:26:58.735934","","","","","","",""
5.0,0.08731044828891754,0.0006011441763708635,"train",5620.0,"2021-11-30 18:27:02.629062","","","","","","",""
5.0,0.06293170154094696,0.0006044777551570929,"train",5640.0,"2021-11-30 18:27:06.896531","","","","","","",""
5.0,0.0811125710606575,0.000607817959652434,"train",5660.0,"2021-11-30 18:27:10.780727","","","","","","",""
5.0,0.06773994863033295,0.0006111647390415189,"train",5680.0,"2021-11-30 18:27:14.693738","","","","","","",""
5.0,0.09903352707624435,0.0006145180424089525,"train",5700.0,"2021-11-30 18:27:18.910991","","","","","","",""
5.0,0.06817376613616943,0.0006178778187400902,"train",5720.0,"2021-11-30 18:27:22.728576","","","","","","",""
5.0,0.08454559743404388,0.0006212440169218129,"train",5740.0,"2021-11-30 18:27:26.701705","","","","","","",""
5.0,0.0712735652923584,0.0006246165857433027,"train",5760.0,"2021-11-30 18:27:31.073156","","","","","","",""
5.0,0.08246218413114548,0.0006279954738968251,"train",5780.0,"2021-11-30 18:27:35.066476","","","","","","",""
5.0,0.07560636848211288,0.0006313806299785075,"train",5800.0,"2021-11-30 18:27:39.120982","","","","","","",""
5.0,0.07076329737901688,0.0006347720024891209,"train",5820.0,"2021-11-30 18:27:43.524664","","","","","","",""
5.0,0.0822075605392456,0.0006381695398348657,"train",5840.0,"2021-11-30 18:27:47.596196","","","","","","",""
5.0,0.08346627652645111,0.0006415731903281542,"train",5860.0,"2021-11-30 18:27:51.622387","","","","","","",""
5.0,0.07124733179807663,0.0006449829021883979,"train",5880.0,"2021-11-30 18:27:55.850550","","","","","","",""
5.0,0.08420722931623459,0.0006483986235427956,"train",5900.0,"2021-11-30 18:27:59.606539","","","","","","",""
5.0,0.06901407986879349,0.0006518203024271213,"train",5920.0,"2021-11-30 18:28:03.401933","","","","","","",""
5.0,0.10036022961139679,0.0006552478867865169,"train",5940.0,"2021-11-30 18:28:07.749824","","","","","","",""
5.0,0.05826020985841751,0.0006586813244762815,"train",5960.0,"2021-11-30 18:28:11.733822","","","","","","",""
5.0,0.08751081675291061,0.0006621205632626672,"train",5980.0,"2021-11-30 18:28:15.724802","","","","","","",""
5.0,0.07254870980978012,0.0006655655508236717,"train",6000.0,"2021-11-30 18:28:20.132436","","","","","","",""
5.0,0.09564989060163498,0.0006690162347498356,"train",6020.0,"2021-11-30 18:28:24.157896","","","","","","",""
5.0,0.0693952813744545,0.0006724725625450389,"train",6040.0,"2021-11-30 18:28:28.199710","","","","","","",""
5.0,0.07544156163930893,0.0006759344816273003,"train",6060.0,"2021-11-30 18:28:32.605246","","","","","","",""
5.0,0.06733865290880203,0.0006794019393295771,"train",6080.0,"2021-11-30 18:28:36.519940","","","","","","",""
5.0,0.05797787010669708,0.0006828748829005654,"train",6100.0,"2021-11-30 18:28:40.392239","","","","","","",""
5.0,0.06787065416574478,0.0006863532595055041,"train",6120.0,"2021-11-30 18:28:44.641980","","","","","","",""
5.0,0.075478196144104,0.0006898370162269777,"train",6140.0,"2021-11-30 18:28:48.557907","","","","","","",""
5.0,0.07232018560171127,0.0006933261000657217,"train",6160.0,"2021-11-30 18:28:52.536582","","","","","","",""
5.0,0.06600087881088257,0.000696820457941429,"train",6180.0,"2021-11-30 18:28:56.744495","","","","","","",""
5.0,0.1034604087471962,0.000700320036693557,"train",6200.0,"2021-11-30 18:29:00.536688","","","","","","",""
5.0,0.07446730136871338,0.0007038247830821358,"train",6220.0,"2021-11-30 18:29:04.406014","","","","","","",""
5.0,0.08245626091957092,0.0007073346437885815,"train",6240.0,"2021-11-30 18:29:08.607892","","","","","","",""
5.0,0.06419229507446289,0.000710849565416502,"train",6260.0,"2021-11-30 18:29:12.388950","","","","","","",""
5.0,0.07252494990825653,0.0007143694944925134,"train",6280.0,"2021-11-30 18:29:16.214013","","","","","","",""
5.0,0.10791898518800735,0.0007178943774670524,"train",6300.0,"2021-11-30 18:29:20.607336","","","","","","",""
5.0,0.065862737596035,0.0007214241607151901,"train",6320.0,"2021-11-30 18:29:24.684911","","","","","","",""
5.0,0.08006571978330612,0.000724958790537449,"train",6340.0,"2021-11-30 18:29:28.711896","","","","","","",""
5.0,0.0726885199546814,0.0007284982131606195,"train",6360.0,"2021-11-30 18:29:33.129810","","","","","","",""
5.0,0.07160212844610214,0.0007320423747385781,"train",6380.0,"2021-11-30 18:29:37.106629","","","","","","",""
5.0,0.06757794320583344,0.0007355912213531054,"train",6400.0,"2021-11-30 18:29:41.010608","","","","","","",""
5.0,0.10098692774772644,0.000739144699014708,"train",6420.0,"2021-11-30 18:29:45.259878","","","","","","",""
5.0,0.09517350047826767,0.0007427027536634401,"train",6440.0,"2021-11-30 18:29:49.064921","","","","","","",""
5.0,"","","train",6444.0,"2021-11-30 18:31:33.746787",0.5276431637924762,0.4966286719264094,0.9164543620168509,0.5259229194463286,0.3867954859802427,0.3951498371731575,0.2558174018000746
5.0,"","","val",6444.0,"2021-11-30 18:32:01.893793",0.5180911515713789,0.47145886026728834,0.9077286696176264,0.5103771406546272,0.36940458958021377,0.37561091315764816,0.23859484280988447
6.0,0.09713450074195862,0.0007462653311697235,"train",6460.0,"2021-11-30 18:32:08.472443","","","","","","",""
6.0,0.06305159628391266,0.0007498323773351733,"train",6480.0,"2021-11-30 18:32:12.899497","","","","","","",""
6.0,0.10310299694538116,0.0007534038378934223,"train",6500.0,"2021-11-30 18:32:16.966983","","","","","","",""
6.0,0.04596403241157532,0.0007569796585109453,"train",6520.0,"2021-11-30 18:32:21.121535","","","","","","",""
6.0,0.08455430716276169,0.0007605597847878862,"train",6540.0,"2021-11-30 18:32:25.542854","","","","","","",""
6.0,0.07121987640857697,0.0007641441622588871,"train",6560.0,"2021-11-30 18:32:29.556071","","","","","","",""
6.0,0.08436257392168045,0.0007677327363939143,"train",6580.0,"2021-11-30 18:32:33.548479","","","","","","",""
6.0,0.07227463275194168,0.0007713254525990895,"train",6600.0,"2021-11-30 18:32:37.876064","","","","","","",""
6.0,0.076395183801651,0.0007749222562175211,"train",6620.0,"2021-11-30 18:32:41.774543","","","","","","",""
6.0,0.07955677807331085,0.000778523092530133,"train",6640.0,"2021-11-30 18:32:45.784663","","","","","","",""
6.0,0.0607488714158535,0.0007821279067564996,"train",6660.0,"2021-11-30 18:32:49.916703","","","","","","",""
6.0,0.08591094613075256,0.0007857366440556786,"train",6680.0,"2021-11-30 18:32:54.347705","","","","","","",""
6.0,0.07264012098312378,0.0007893492495270442,"train",6700.0,"2021-11-30 18:32:58.316054","","","","","","",""
6.0,0.102305568754673,0.0007929656682111239,"train",6720.0,"2021-11-30 18:33:02.318792","","","","","","",""
6.0,0.06399397552013397,0.0007965858450904332,"train",6740.0,"2021-11-30 18:33:06.608119","","","","","","",""
6.0,0.09517180919647217,0.000800209725090314,"train",6760.0,"2021-11-30 18:33:10.556139","","","","","","",""
6.0,0.060508161783218384,0.0008038372530797706,"train",6780.0,"2021-11-30 18:33:14.586124","","","","","","",""
6.0,0.06755359470844269,0.0008074683738723109,"train",6800.0,"2021-11-30 18:33:19.001785","","","","","","",""
6.0,0.06672614812850952,0.0008111030322267832,"train",6820.0,"2021-11-30 18:33:22.988837","","","","","","",""
6.0,0.0967521145939827,0.0008147411728482187,"train",6840.0,"2021-11-30 18:33:26.925150","","","","","","",""
6.0,0.11281169205904007,0.0008183827403886721,"train",6860.0,"2021-11-30 18:33:31.226022","","","","","","",""
6.0,0.07178261131048203,0.0008220276794480633,"train",6880.0,"2021-11-30 18:33:35.252788","","","","","","",""
6.0,0.06584925949573517,0.0008256759345750203,"train",6900.0,"2021-11-30 18:33:39.257534","","","","","","",""
6.0,0.08776971697807312,0.0008293274502677234,"train",6920.0,"2021-11-30 18:33:43.596729","","","","","","",""
6.0,0.060503795742988586,0.0008329821709747486,"train",6940.0,"2021-11-30 18:33:47.654911","","","","","","",""
6.0,0.07610734552145004,0.0008366400410959136,"train",6960.0,"2021-11-30 18:33:51.703253","","","","","","",""
6.0,0.09790908545255661,0.000840301004983123,"train",6980.0,"2021-11-30 18:33:56.120537","","","","","","",""
6.0,0.07328715175390244,0.0008439650069412147,"train",7000.0,"2021-11-30 18:34:00.161815","","","","","","",""
6.0,0.07550431042909622,0.0008476319912288095,"train",7020.0,"2021-11-30 18:34:04.034338","","","","","","",""
6.0,0.07457898557186127,0.0008513019020591544,"train",7040.0,"2021-11-30 18:34:08.261373","","","","","","",""
6.0,0.08512145280838013,0.0008549746836009771,"train",7060.0,"2021-11-30 18:34:12.155616","","","","","","",""
6.0,0.08021523803472519,0.0008586502799793306,"train",7080.0,"2021-11-30 18:34:16.046465","","","","","","",""
6.0,0.12309500575065613,0.0008623286352764453,"train",7100.0,"2021-11-30 18:34:20.286500","","","","","","",""
6.0,0.0771750882267952,0.0008660096935325802,"train",7120.0,"2021-11-30 18:34:24.172955","","","","","","",""
6.0,0.09452679008245468,0.0008696933987468731,"train",7140.0,"2021-11-30 18:34:28.146346","","","","","","",""
6.0,0.07166848331689835,0.0008733796948781924,"train",7160.0,"2021-11-30 18:34:32.497084","","","","","","",""
6.0,0.08723673969507217,0.0008770685258459915,"train",7180.0,"2021-11-30 18:34:36.388511","","","","","","",""
6.0,0.07894083112478256,0.0008807598355311595,"train",7200.0,"2021-11-30 18:34:40.279216","","","","","","",""
6.0,0.0699663832783699,0.0008844535677768764,"train",7220.0,"2021-11-30 18:34:44.528596","","","","","","",""
6.0,0.07594761997461319,0.0008881496663894681,"train",7240.0,"2021-11-30 18:34:48.387368","","","","","","",""
6.0,0.08322714269161224,0.0008918480751392592,"train",7260.0,"2021-11-30 18:34:52.287963","","","","","","",""
6.0,0.04095451161265373,0.00089554873776143,"train",7280.0,"2021-11-30 18:34:56.673327","","","","","","",""
6.0,0.10063129663467407,0.0008992515979568724,"train",7300.0,"2021-11-30 18:35:00.735895","","","","","","",""
6.0,0.08367568999528885,0.0009029565993930457,"train",7320.0,"2021-11-30 18:35:04.756336","","","","","","",""
6.0,0.06019718945026398,0.0009066636857048339,"train",7340.0,"2021-11-30 18:35:09.115925","","","","","","",""
6.0,0.06953433156013489,0.0009103728004954039,"train",7360.0,"2021-11-30 18:35:13.054278","","","","","","",""
6.0,0.06650905311107635,0.0009140838873370617,"train",7380.0,"2021-11-30 18:35:16.977543","","","","","","",""
6.0,0.10376673936843872,0.0009177968897721136,"train",7400.0,"2021-11-30 18:35:21.234691","","","","","","",""
6.0,0.07440951466560364,0.0009215117513137218,"train",7420.0,"2021-11-30 18:35:25.140610","","","","","","",""
6.0,0.06642763316631317,0.0009252284154467663,"train",7440.0,"2021-11-30 18:35:29.084308","","","","","","",""
6.0,0.0827358141541481,0.0009289468256287042,"train",7460.0,"2021-11-30 18:35:33.414124","","","","","","",""
6.0,0.09588133543729782,0.0009326669252904287,"train",7480.0,"2021-11-30 18:35:37.312005","","","","","","",""
6.0,0.07137300074100494,0.0009363886578371307,"train",7500.0,"2021-11-30 18:35:41.178770","","","","","","",""
6.0,"","","train",7518.0,"2021-11-30 18:37:27.546016",0.5628319871934803,0.5241327545977975,0.930640675733234,0.584612680657286,0.43162903222498755,0.43787354850103066,0.29356597478665786
6.0,"","","val",7518.0,"2021-11-30 18:37:55.735158",0.5509683404847501,0.5026067615031871,0.9224838974833708,0.5662101643382923,0.4141341704230398,0.4196074254425243,0.2762368606781619
7.0,0.06705226004123688,0.0009401119666491604,"train",7520.0,"2021-11-30 18:37:59.528916","","","","","","",""
7.0,0.05900571122765541,0.0009438367950828869,"train",7540.0,"2021-11-30 18:38:03.400430","","","","","","",""
7.0,0.08237577974796295,0.000947563086471561,"train",7560.0,"2021-11-30 18:38:07.369891","","","","","","",""
7.0,0.07726425677537918,0.0009512907841261783,"train",7580.0,"2021-11-30 18:38:11.845846","","","","","","",""
7.0,0.06865644454956055,0.0009550198313363391,"train",7600.0,"2021-11-30 18:38:15.895580","","","","","","",""
7.0,0.09220696985721588,0.0009587501713711128,"train",7620.0,"2021-11-30 18:38:19.916135","","","","","","",""
7.0,0.06508809328079224,0.0009624817474799023,"train",7640.0,"2021-11-30 18:38:24.201315","","","","","","",""
7.0,0.0788763239979744,0.0009662145028933038,"train",7660.0,"2021-11-30 18:38:28.144149","","","","","","",""
7.0,0.06934694200754166,0.0009699483808239733,"train",7680.0,"2021-11-30 18:38:32.092120","","","","","","",""
7.0,0.054116275161504745,0.0009736833244674895,"train",7700.0,"2021-11-30 18:38:36.412419","","","","","","",""
7.0,0.05876322090625763,0.0009774192770032192,"train",7720.0,"2021-11-30 18:38:40.345372","","","","","","",""
7.0,0.07137426733970642,0.0009811561815951785,"train",7740.0,"2021-11-30 18:38:44.283518","","","","","","",""
7.0,0.0668010413646698,0.0009848939813929015,"train",7760.0,"2021-11-30 18:38:48.672079","","","","","","",""
7.0,0.10847050696611404,0.0009886326195323026,"train",7780.0,"2021-11-30 18:38:52.668007","","","","","","",""
7.0,0.10834911465644836,0.0009923720391365428,"train",7800.0,"2021-11-30 18:38:56.633023","","","","","","",""
7.0,0.07092481106519699,0.000996112183316893,"train",7820.0,"2021-11-30 18:39:00.931386","","","","","","",""
7.0,0.06311367452144623,0.0009998529951736029,"train",7840.0,"2021-11-30 18:39:04.877065","","","","","","",""
7.0,0.06288142502307892,0.0010035944177967638,"train",7860.0,"2021-11-30 18:39:08.853690","","","","","","",""
7.0,0.10275949537754059,0.0010073363942671744,"train",7880.0,"2021-11-30 18:39:13.165919","","","","","","",""
7.0,0.07244237512350082,0.0010110788676572094,"train",7900.0,"2021-11-30 18:39:17.114085","","","","","","",""
7.0,0.08101145178079605,0.0010148217810316822,"train",7920.0,"2021-11-30 18:39:21.085731","","","","","","",""
7.0,0.06746438145637512,0.0010185650774487127,"train",7940.0,"2021-11-30 18:39:25.453723","","","","","","",""
7.0,0.10212685167789459,0.0010223086999605951,"train",7960.0,"2021-11-30 18:39:29.576305","","","","","","",""
7.0,0.08711782842874527,0.0010260525916146609,"train",7980.0,"2021-11-30 18:39:33.585919","","","","","","",""
7.0,0.05426131933927536,0.0010297966954541469,"train",8000.0,"2021-11-30 18:39:37.948404","","","","","","",""
7.0,0.08171936124563217,0.001033540954519064,"train",8020.0,"2021-11-30 18:39:41.902604","","","","","","",""
7.0,0.08051737397909164,0.0010372853118470592,"train",8040.0,"2021-11-30 18:39:45.848060","","","","","","",""
7.0,0.066841259598732,0.0010410297104742857,"train",8060.0,"2021-11-30 18:39:50.286056","","","","","","",""
7.0,0.08890724182128906,0.0010447740934362692,"train",8080.0,"2021-11-30 18:39:54.323924","","","","","","",""
7.0,0.08921898901462555,0.0010485184037687715,"train",8100.0,"2021-11-30 18:39:58.417842","","","","","","",""
7.0,0.05705113708972931,0.0010522625845086615,"train",8120.0,"2021-11-30 18:40:02.813299","","","","","","",""
7.0,0.09187954664230347,0.0010560065786947796,"train",8140.0,"2021-11-30 18:40:06.854713","","","","","","",""
7.0,0.06251081079244614,0.0010597503293688013,"train",8160.0,"2021-11-30 18:40:10.867180","","","","","","",""
7.0,0.05862555652856827,0.001063493779576111,"train",8180.0,"2021-11-30 18:40:15.227000","","","","","","",""
7.0,0.08604889363050461,0.0010672368723666614,"train",8200.0,"2021-11-30 18:40:19.203189","","","","","","",""
7.0,0.056220363825559616,0.0010709795507958426,"train",8220.0,"2021-11-30 18:40:23.122575","","","","","","",""
7.0,0.05486898496747017,0.0010747217579253504,"train",8240.0,"2021-11-30 18:40:27.434190","","","","","","",""
7.0,0.06438840180635452,0.0010784634368240487,"train",8260.0,"2021-11-30 18:40:31.353270","","","","","","",""
7.0,0.04730192571878433,0.0010822045305688382,"train",8280.0,"2021-11-30 18:40:35.233008","","","","","","",""
7.0,0.05722213163971901,0.0010859449822455227,"train",8300.0,"2021-11-30 18:40:39.532368","","","","","","",""
7.0,0.07692182809114456,0.001089684734949672,"train",8320.0,"2021-11-30 18:40:43.442048","","","","","","",""
7.0,0.08746670186519623,0.00109342373178749,"train",8340.0,"2021-11-30 18:40:47.289395","","","","","","",""
7.0,0.06677589565515518,0.0010971619158766821,"train",8360.0,"2021-11-30 18:40:51.506566","","","","","","",""
7.0,0.0685490220785141,0.0011008992303473152,"train",8380.0,"2021-11-30 18:40:55.363185","","","","","","",""
7.0,0.08149758726358414,0.001104635618342687,"train",8400.0,"2021-11-30 18:40:59.344000","","","","","","",""
7.0,0.09309244155883789,0.001108371023020191,"train",8420.0,"2021-11-30 18:41:03.750809","","","","","","",""
7.0,0.09916222095489502,0.0011121053875521787,"train",8440.0,"2021-11-30 18:41:07.819951","","","","","","",""
7.0,0.0761672854423523,0.0011158386551268257,"train",8460.0,"2021-11-30 18:41:11.840789","","","","","","",""
7.0,0.08144599944353104,0.0011195707689489972,"train",8480.0,"2021-11-30 18:41:16.243906","","","","","","",""
7.0,0.05592692270874977,0.0011233016722411097,"train",8500.0,"2021-11-30 18:41:20.301162","","","","","","",""
7.0,0.06725265085697174,0.0011270313082439951,"train",8520.0,"2021-11-30 18:41:24.266209","","","","","","",""
7.0,0.09189906716346741,0.001130759620217767,"train",8540.0,"2021-11-30 18:41:28.508499","","","","","","",""
7.0,0.06597218662500381,0.0011344865514426794,"train",8560.0,"2021-11-30 18:41:32.556021","","","","","","",""
7.0,0.08243723958730698,0.0011382120452199938,"train",8580.0,"2021-11-30 18:41:36.676904","","","","","","",""
7.0,"","","train",8592.0,"2021-11-30 18:43:22.464891",0.5843120133886343,0.5400718565514253,0.9335098626358372,0.597758246718869,0.448624339849851,0.45353245372875456,0.30686875650481293
7.0,"","","val",8592.0,"2021-11-30 18:43:50.645244",0.5743360779311144,0.5140669115683573,0.9248451628878087,0.5831099435443745,0.4355535921373988,0.4396759337492226,0.2943728357946739
8.0,0.059400059282779694,0.001141936044872839,"train",8600.0,"2021-11-30 18:44:00.879651","","","","","","",""
8.0,0.06593690812587738,0.0011456584937470744,"train",8620.0,"2021-11-30 18:44:04.790411","","","","","","",""
8.0,0.05622265115380287,0.0011493793352121522,"train",8640.0,"2021-11-30 18:44:08.814617","","","","","","",""
8.0,0.06327340751886368,0.0011530985126619784,"train",8660.0,"2021-11-30 18:44:13.195532","","","","","","",""
8.0,0.09314844012260437,0.001156815969515773,"train",8680.0,"2021-11-30 18:44:17.160698","","","","","","",""
8.0,0.07556364685297012,0.001160531649218934,"train",8700.0,"2021-11-30 18:44:20.982077","","","","","","",""
8.0,0.0636267438530922,0.001164245495243894,"train",8720.0,"2021-11-30 18:44:25.176192","","","","","","",""
8.0,0.08660108596086502,0.0011679574510909817,"train",8740.0,"2021-11-30 18:44:29.029401","","","","","","",""
8.0,0.05773790180683136,0.0011716674602892828,"train",8760.0,"2021-11-30 18:44:32.892282","","","","","","",""
8.0,0.08218767493963242,0.0011753754663974968,"train",8780.0,"2021-11-30 18:44:37.254058","","","","","","",""
8.0,0.0510125607252121,0.0011790814130047968,"train",8800.0,"2021-11-30 18:44:41.247855","","","","","","",""
8.0,0.09865080565214157,0.001182785243731688,"train",8820.0,"2021-11-30 18:44:45.306448","","","","","","",""
8.0,0.10617464780807495,0.0011864869022308656,"train",8840.0,"2021-11-30 18:44:49.742492","","","","","","",""
8.0,0.07652516663074493,0.0011901863321880693,"train",8860.0,"2021-11-30 18:44:53.666116","","","","","","",""
8.0,0.0616491325199604,0.001193883477322945,"train",8880.0,"2021-11-30 18:44:57.599945","","","","","","",""
8.0,0.06554833799600601,0.0011975782813898961,"train",8900.0,"2021-11-30 18:45:02.040077","","","","","","",""
8.0,0.07732466608285904,0.0012012706881789417,"train",8920.0,"2021-11-30 18:45:06.044290","","","","","","",""
8.0,0.07329913973808289,0.001204960641516572,"train",8940.0,"2021-11-30 18:45:09.816798","","","","","","",""
8.0,0.057313937693834305,0.0012086480852666014,"train",8960.0,"2021-11-30 18:45:13.930954","","","","","","",""
8.0,0.05337332561612129,0.0012123329633310235,"train",8980.0,"2021-11-30 18:45:17.688973","","","","","","",""
8.0,0.06728394329547882,0.0012160152196508643,"train",9000.0,"2021-11-30 18:45:21.552256","","","","","","",""
8.0,0.09127110987901688,0.0012196947982070355,"train",9020.0,"2021-11-30 18:45:25.787728","","","","","","",""
8.0,0.09653158485889435,0.0012233716430211856,"train",9040.0,"2021-11-30 18:45:29.616718","","","","","","",""
8.0,0.0619615875184536,0.001227045698156553,"train",9060.0,"2021-11-30 18:45:33.550679","","","","","","",""
8.0,0.04561302065849304,0.0012307169077188148,"train",9080.0,"2021-11-30 18:45:37.884191","","","","","","",""
8.0,0.06520704180002213,0.0012343852158569401,"train",9100.0,"2021-11-30 18:45:41.828974","","","","","","",""
8.0,0.08320299535989761,0.0012380505667640377,"train",9120.0,"2021-11-30 18:45:45.720528","","","","","","",""
8.0,0.07907312363386154,0.0012417129046782046,"train",9140.0,"2021-11-30 18:45:50.073360","","","","","","",""
8.0,0.06535826623439789,0.0012453721738833758,"train",9160.0,"2021-11-30 18:45:54.125597","","","","","","",""
8.0,0.09210024029016495,0.001249028318710172,"train",9180.0,"2021-11-30 18:45:58.165985","","","","","","",""
8.0,0.09428184479475021,0.0012526812835367447,"train",9200.0,"2021-11-30 18:46:02.559866","","","","","","",""
8.0,0.05964244157075882,0.0012563310127896242,"train",9220.0,"2021-11-30 18:46:06.675297","","","","","","",""
8.0,0.07971230894327164,0.0012599774509445645,"train",9240.0,"2021-11-30 18:46:10.706385","","","","","","",""
8.0,0.08626094460487366,0.0012636205425273874,"train",9260.0,"2021-11-30 18:46:15.079777","","","","","","",""
8.0,0.07910314202308655,0.0012672602321148268,"train",9280.0,"2021-11-30 18:46:19.139987","","","","","","",""
8.0,0.061448100954294205,0.0012708964643353732,"train",9300.0,"2021-11-30 18:46:23.230180","","","","","","",""
8.0,0.05495760217308998,0.001274529183870114,"train",9320.0,"2021-11-30 18:46:27.623644","","","","","","",""
8.0,0.07465280592441559,0.0012781583354535748,"train",9340.0,"2021-11-30 18:46:31.658731","","","","","","",""
8.0,0.08166880905628204,0.0012817838638745646,"train",9360.0,"2021-11-30 18:46:35.725181","","","","","","",""
8.0,0.06510374695062637,0.001285405713977009,"train",9380.0,"2021-11-30 18:46:40.030623","","","","","","",""
8.0,0.09005830436944962,0.0012890238306607947,"train",9400.0,"2021-11-30 18:46:43.945523","","","","","","",""
8.0,0.09084544330835342,0.001292638158882606,"train",9420.0,"2021-11-30 18:46:47.856235","","","","","","",""
8.0,0.061888646334409714,0.0012962486436567603,"train",9440.0,"2021-11-30 18:46:52.140172","","","","","","",""
8.0,0.0732591524720192,0.0012998552300560484,"train",9460.0,"2021-11-30 18:46:56.062075","","","","","","",""
8.0,0.04968840628862381,0.0013034578632125668,"train",9480.0,"2021-11-30 18:47:00.185511","","","","","","",""
8.0,0.07072950154542923,0.0013070564883185534,"train",9500.0,"2021-11-30 18:47:04.337075","","","","","","",""
8.0,0.100806824862957,0.001310651050627223,"train",9520.0,"2021-11-30 18:47:08.847075","","","","","","",""
8.0,0.08556614071130753,0.001314241495453598,"train",9540.0,"2021-11-30 18:47:12.829296","","","","","","",""
8.0,0.0593305304646492,0.00131782776817534,"train",9560.0,"2021-11-30 18:47:16.709915","","","","","","",""
8.0,0.09476104378700256,0.0013214098142335837,"train",9580.0,"2021-11-30 18:47:21.028348","","","","","","",""
8.0,0.0938684269785881,0.001324987579133764,"train",9600.0,"2021-11-30 18:47:25.064492","","","","","","",""
8.0,0.059713393449783325,0.0013285610084464463,"train",9620.0,"2021-11-30 18:47:29.093356","","","","","","",""
8.0,0.06660331785678864,0.001332130047808155,"train",9640.0,"2021-11-30 18:47:33.492800","","","","","","",""
8.0,0.05925761163234711,0.001335694642922199,"train",9660.0,"2021-11-30 18:47:37.440970","","","","","","",""
8.0,"","","train",9666.0,"2021-11-30 18:49:21.032024",0.5781998108127774,0.5583305458954595,0.9360372892573948,0.606258350663755,0.44630584968829934,0.4547759278210163,0.3065557472263866
8.0,"","","val",9666.0,"2021-11-30 18:49:48.731888",0.5630870926591673,0.5279827383961402,0.9268137457995823,0.5872094283216532,0.4276571821406846,0.4340918997643693,0.2871492186472214
9.0,0.05209513008594513,0.0013392547395594985,"train",9680.0,"2021-11-30 18:49:54.858096","","","","","","",""
9.0,0.04904494062066078,0.001342810283559412,"train",9700.0,"2021-11-30 18:49:59.190197","","","","","","",""
9.0,0.08086232095956802,0.0013463612208305564,"train",9720.0,"2021-11-30 18:50:03.064557","","","","","","",""
9.0,0.08573657274246216,0.0013499074973516321,"train",9740.0,"2021-11-30 18:50:06.926130","","","","","","",""
9.0,0.0955781489610672,0.0013534490591722464,"train",9760.0,"2021-11-30 18:50:11.158385","","","","","","",""
9.0,0.08667784929275513,0.0013569858524137305,"train",9780.0,"2021-11-30 18:50:15.052190","","","","","","",""
9.0,0.06820635497570038,0.001360517823269962,"train",9800.0,"2021-11-30 18:50:18.952410","","","","","","",""
9.0,0.060323551297187805,0.0013640449180081834,"train",9820.0,"2021-11-30 18:50:23.251607","","","","","","",""
9.0,0.043362557888031006,0.0013675670829698173,"train",9840.0,"2021-11-30 18:50:27.199637","","","","","","",""
9.0,0.08502353727817535,0.0013710842645712853,"train",9860.0,"2021-11-30 18:50:31.151213","","","","","","",""
9.0,0.08368582278490067,0.0013745964093048219,"train",9880.0,"2021-11-30 18:50:35.464181","","","","","","",""
9.0,0.06800586730241776,0.0013781034637392886,"train",9900.0,"2021-11-30 18:50:39.411618","","","","","","",""
9.0,0.05948367714881897,0.0013816053745209864,"train",9920.0,"2021-11-30 18:50:43.322158","","","","","","",""
9.0,0.05664214864373207,0.0013851020883744697,"train",9940.0,"2021-11-30 18:50:47.605987","","","","","","",""
9.0,0.05888930708169937,0.001388593552103353,"train",9960.0,"2021-11-30 18:50:51.544589","","","","","","",""
9.0,0.08102316409349442,0.0013920797125911233,"train",9980.0,"2021-11-30 18:50:55.578975","","","","","","",""
9.0,0.060242798179388046,0.001395560516801947,"train",10000.0,"2021-11-30 18:50:59.929369","","","","","","",""
9.0,0.07050023227930069,0.0013990359117814774,"train",10020.0,"2021-11-30 18:51:03.883437","","","","","","",""
9.0,0.04449976608157158,0.0014025058446576583,"train",10040.0,"2021-11-30 18:51:07.928909","","","","","","",""
9.0,0.09076857566833496,0.0014059702626415317,"train",10060.0,"2021-11-30 18:51:12.250053","","","","","","",""
9.0,0.10058727115392685,0.0014094291130280377,"train",10080.0,"2021-11-30 18:51:16.170114","","","","","","",""
9.0,0.08109981566667557,0.0014128823431968183,"train",10100.0,"2021-11-30 18:51:20.061514","","","","","","",""
9.0,0.05395689606666565,0.001416329900613017,"train",10120.0,"2021-11-30 18:51:24.361139","","","","","","",""
9.0,0.05491319298744202,0.0014197717328280782,"train",10140.0,"2021-11-30 18:51:28.292870","","","","","","",""
9.0,0.05440899357199669,0.0014232077874805457,"train",10160.0,"2021-11-30 18:51:32.366365","","","","","","",""
9.0,0.06420712172985077,0.0014266380122968589,"train",10180.0,"2021-11-30 18:51:36.838380","","","","","","",""
9.0,0.0757371112704277,0.0014300623550921468,"train",10200.0,"2021-11-30 18:51:40.925926","","","","","","",""
9.0,0.10100850462913513,0.0014334807637710243,"train",10220.0,"2021-11-30 18:51:44.900635","","","","","","",""
9.0,0.04752083122730255,0.0014368931863283831,"train",10240.0,"2021-11-30 18:51:49.264509","","","","","","",""
9.0,0.07208800315856934,0.0014402995708501826,"train",10260.0,"2021-11-30 18:51:53.301823","","","","","","",""
9.0,0.0631929412484169,0.0014436998655142422,"train",10280.0,"2021-11-30 18:51:57.349072","","","","","","",""
9.0,0.056108906865119934,0.0014470940185910258,"train",10300.0,"2021-11-30 18:52:01.746819","","","","","","",""
9.0,0.06890428811311722,0.001450481978444431,"train",10320.0,"2021-11-30 18:52:05.693936","","","","","","",""
9.0,0.07356283813714981,0.0014538636935325763,"train",10340.0,"2021-11-30 18:52:09.607496","","","","","","",""
9.0,0.0735163688659668,0.0014572391124085817,"train",10360.0,"2021-11-30 18:52:13.869218","","","","","","",""
9.0,0.06999626755714417,0.0014606081837213525,"train",10380.0,"2021-11-30 18:52:17.756972","","","","","","",""
9.0,0.0677289068698883,0.0014639708562163639,"train",10400.0,"2021-11-30 18:52:21.694731","","","","","","",""
9.0,0.0795302614569664,0.001467327078736435,"train",10420.0,"2021-11-30 18:52:25.994669","","","","","","",""
9.0,0.07480446249246597,0.0014706768002225108,"train",10440.0,"2021-11-30 18:52:29.879676","","","","","","",""
9.0,0.05936764180660248,0.0014740199697144392,"train",10460.0,"2021-11-30 18:52:33.743997","","","","","","",""
9.0,0.07145404815673828,0.0014773565363517442,"train",10480.0,"2021-11-30 18:52:38.006366","","","","","","",""
9.0,0.050851576030254364,0.0014806864493744007,"train",10500.0,"2021-11-30 18:52:41.924222","","","","","","",""
9.0,0.061140552163124084,0.0014840096581236072,"train",10520.0,"2021-11-30 18:52:45.762598","","","","","","",""
9.0,0.0702037513256073,0.001487326112042556,"train",10540.0,"2021-11-30 18:52:50.011621","","","","","","",""
9.0,0.06590679287910461,0.0014906357606772013,"train",10560.0,"2021-11-30 18:52:54.001047","","","","","","",""
9.0,0.06232486665248871,0.0014939385536770291,"train",10580.0,"2021-11-30 18:52:58.085742","","","","","","",""
9.0,0.0605817474424839,0.0014972344407958218,"train",10600.0,"2021-11-30 18:53:02.500096","","","","","","",""
9.0,0.08924899250268936,0.0015005233718924213,"train",10620.0,"2021-11-30 18:53:06.417373","","","","","","",""
9.0,0.07241396605968475,0.0015038052969314946,"train",10640.0,"2021-11-30 18:53:10.296388","","","","","","",""
9.0,0.0867219939827919,0.0015070801659842939,"train",10660.0,"2021-11-30 18:53:14.685901","","","","","","",""
9.0,0.04771251231431961,0.001510347929229414,"train",10680.0,"2021-11-30 18:53:18.737314","","","","","","",""
9.0,0.1250048577785492,0.0015136085369535537,"train",10700.0,"2021-11-30 18:53:22.668222","","","","","","",""
9.0,0.06956090778112411,0.0015168619395522708,"train",10720.0,"2021-11-30 18:53:26.924341","","","","","","",""
9.0,0.05668490752577782,0.0015201080875307349,"train",10740.0,"2021-11-30 18:53:30.786723","","","","","","",""
9.0,"","","train",10740.0,"2021-11-30 18:55:13.781582",0.6038419559048243,0.5871180183841903,0.9434384753416326,0.6274866036177149,0.47017356108807185,0.4871660256055296,0.3263889194752639
9.0,"","","val",10740.0,"2021-11-30 18:55:42.028845",0.5836135915574626,0.5495501313126382,0.9320371172570951,0.601761472250324,0.44089657172369023,0.4545245861251302,0.29770339607530155
10.0,0.06376731395721436,0.0015233469315044834,"train",10760.0,"2021-11-30 18:55:49.819049","","","","","","",""
10.0,0.08507067710161209,0.0015265784222001709,"train",10780.0,"2021-11-30 18:55:54.199449","","","","","","",""
10.0,0.060507044196128845,0.0015298025104563185,"train",10800.0,"2021-11-30 18:55:58.100280","","","","","","",""
10.0,0.06801465153694153,0.001533019147224064,"train",10820.0,"2021-11-30 18:56:01.946609","","","","","","",""
10.0,0.0611477755010128,0.0015362282835679054,"train",10840.0,"2021-11-30 18:56:06.224481","","","","","","",""
10.0,0.10352171957492828,0.0015394298706664469,"train",10860.0,"2021-11-30 18:56:10.181644","","","","","","",""
10.0,0.057923685759305954,0.001542623859813141,"train",10880.0,"2021-11-30 18:56:14.081360","","","","","","",""
10.0,0.09472033381462097,0.00154581020241703,"train",10900.0,"2021-11-30 18:56:18.098959","","","","","","",""
10.0,0.04140102118253708,0.0015489888500034858,"train",10920.0,"2021-11-30 18:56:22.428354","","","","","","",""
10.0,0.10720723122358322,0.0015521597542149444,"train",10940.0,"2021-11-30 18:56:26.443731","","","","","","",""
10.0,0.050113093107938766,0.0015553228668116455,"train",10960.0,"2021-11-30 18:56:30.436134","","","","","","",""
10.0,0.05947867035865784,0.0015584781396723642,"train",10980.0,"2021-11-30 18:56:34.851317","","","","","","",""
10.0,0.06419925391674042,0.0015616255247951432,"train",11000.0,"2021-11-30 18:56:38.893439","","","","","","",""
10.0,0.08979568630456924,0.0015647649742980233,"train",11020.0,"2021-11-30 18:56:42.937961","","","","","","",""
10.0,0.09179629385471344,0.0015678964404197727,"train",11040.0,"2021-11-30 18:56:47.325197","","","","","","",""
10.0,0.06726415455341339,0.0015710198755206112,"train",11060.0,"2021-11-30 18:56:51.379471","","","","","","",""
10.0,0.06937288492918015,0.0015741352320829379,"train",11080.0,"2021-11-30 18:56:55.429188","","","","","","",""
10.0,0.048500336706638336,0.0015772424627120527,"train",11100.0,"2021-11-30 18:56:59.932799","","","","","","",""
10.0,0.08154315501451492,0.0015803415201368761,"train",11120.0,"2021-11-30 18:57:04.004370","","","","","","",""
10.0,0.06609553098678589,0.001583432357210671,"train",11140.0,"2021-11-30 18:57:07.856831","","","","","","",""
10.0,0.05189892277121544,0.001586514926911758,"train",11160.0,"2021-11-30 18:57:12.191167","","","","","","",""
10.0,0.06592071056365967,0.0015895891823442313,"train",11180.0,"2021-11-30 18:57:16.234034","","","","","","",""
10.0,0.07009559124708176,0.0015926550767386717,"train",11200.0,"2021-11-30 18:57:20.288970","","","","","","",""
10.0,0.05393420159816742,0.0015957125634528599,"train",11220.0,"2021-11-30 18:57:24.642665","","","","","","",""
10.0,0.06922726333141327,0.0015987615959724836,"train",11240.0,"2021-11-30 18:57:28.658992","","","","","","",""
10.0,0.08451759070158005,0.0016018021279118457,"train",11260.0,"2021-11-30 18:57:32.446907","","","","","","",""
10.0,0.07505545765161514,0.0016048341130145728,"train",11280.0,"2021-11-30 18:57:36.709371","","","","","","",""
10.0,0.1164776012301445,0.0016078575051543145,"train",11300.0,"2021-11-30 18:57:40.694881","","","","","","",""
10.0,0.055122260004282,0.0016108722583354478,"train",11320.0,"2021-11-30 18:57:44.728645","","","","","","",""
10.0,0.07219152897596359,0.0016138783266937777,"train",11340.0,"2021-11-30 18:57:49.081822","","","","","","",""
10.0,0.05095498636364937,0.0016168756644972322,"train",11360.0,"2021-11-30 18:57:52.963893","","","","","","",""
10.0,0.09293873608112335,0.0016198642261465587,"train",11380.0,"2021-11-30 18:57:57.043602","","","","","","",""
10.0,0.07070297747850418,0.0016228439661760208,"train",11400.0,"2021-11-30 18:58:01.441000","","","","","","",""
10.0,0.06161781772971153,0.001625814839254086,"train",11420.0,"2021-11-30 18:58:05.420299","","","","","","",""
10.0,0.05365968868136406,0.0016287768001841164,"train",11440.0,"2021-11-30 18:58:09.331739","","","","","","",""
10.0,0.07565504312515259,0.001631729803905059,"train",11460.0,"2021-11-30 18:58:13.684113","","","","","","",""
10.0,0.08991202712059021,0.0016346738054921273,"train",11480.0,"2021-11-30 18:58:17.637786","","","","","","",""
10.0,0.09345106035470963,0.001637608760157486,"train",11500.0,"2021-11-30 18:58:21.512900","","","","","","",""
10.0,0.035961516201496124,0.0016405346232509356,"train",11520.0,"2021-11-30 18:58:25.743190","","","","","","",""
10.0,0.07372016459703445,0.0016434513502605861,"train",11540.0,"2021-11-30 18:58:29.631528","","","","","","",""
10.0,0.06410270929336548,0.0016463588968135383,"train",11560.0,"2021-11-30 18:58:33.529729","","","","","","",""
10.0,0.06431490182876587,0.0016492572186765577,"train",11580.0,"2021-11-30 18:58:37.754086","","","","","","",""
10.0,0.07172095775604248,0.001652146271756747,"train",11600.0,"2021-11-30 18:58:41.655756","","","","","","",""
10.0,0.08552626520395279,0.0016550260121022172,"train",11620.0,"2021-11-30 18:58:45.561694","","","","","","",""
10.0,0.04960913583636284,0.0016578963959027562,"train",11640.0,"2021-11-30 18:58:49.906688","","","","","","",""
10.0,0.10072091221809387,0.001660757379490496,"train",11660.0,"2021-11-30 18:58:53.764418","","","","","","",""
10.0,0.06821783632040024,0.0016636089193405761,"train",11680.0,"2021-11-30 18:58:57.638288","","","","","","",""
10.0,0.049906086176633835,0.0016664509720718049,"train",11700.0,"2021-11-30 18:59:01.866711","","","","","","",""
10.0,0.09496378898620605,0.0016692834944473224,"train",11720.0,"2021-11-30 18:59:05.719184","","","","","","",""
10.0,0.06199056655168533,0.0016721064433752554,"train",11740.0,"2021-11-30 18:59:09.649558","","","","","","",""
10.0,0.06431996077299118,0.0016749197759093734,"train",11760.0,"2021-11-30 18:59:14.072545","","","","","","",""
10.0,0.06067082658410072,0.0016777234492497436,"train",11780.0,"2021-11-30 18:59:18.074792","","","","","","",""
10.0,0.06297947466373444,0.0016805174207433808,"train",11800.0,"2021-11-30 18:59:22.017061","","","","","","",""
10.0,"","","train",11814.0,"2021-11-30 19:01:07.108143",0.6051517135996507,0.5969841221134404,0.9452056557963288,0.6393155229710253,0.5070215387425003,0.5150564654454859,0.34919369400287265
10.0,"","","val",11814.0,"2021-11-30 19:01:34.891940",0.5843094050794387,0.559328983876534,0.9350979358210925,0.613325866674405,0.4825858214624161,0.4894849112703513,0.3246446704695527
11.0,0.0516752190887928,0.0016833016478848956,"train",11820.0,"2021-11-30 19:01:39.990844","","","","","","",""
11.0,0.05925389751791954,0.0016860760883171426,"train",11840.0,"2021-11-30 19:01:43.968079","","","","","","",""
11.0,0.05690499022603035,0.001688840699831864,"train",11860.0,"2021-11-30 19:01:48.000833","","","","","","",""
11.0,0.054557714611291885,0.0016915954403703313,"train",11880.0,"2021-11-30 19:01:52.459797","","","","","","",""
11.0,0.04831305891275406,0.0016943402680239862,"train",11900.0,"2021-11-30 19:01:56.332440","","","","","","",""
11.0,0.08023905754089355,0.0016970751410350774,"train",11920.0,"2021-11-30 19:02:00.291008","","","","","","",""
11.0,0.06478997319936752,0.001699800017797296,"train",11940.0,"2021-11-30 19:02:04.680185","","","","","","",""
11.0,0.05348028615117073,0.0017025148568564086,"train",11960.0,"2021-11-30 19:02:08.697713","","","","","","",""
11.0,0.046875543892383575,0.001705219616910888,"train",11980.0,"2021-11-30 19:02:12.727478","","","","","","",""
11.0,0.08992202579975128,0.001707914256812541,"train",12000.0,"2021-11-30 19:02:17.223470","","","","","","",""
11.0,0.07157795876264572,0.0017105987355671352,"train",12020.0,"2021-11-30 19:02:21.243415","","","","","","",""
11.0,0.09813645482063293,0.0017132730123350227,"train",12040.0,"2021-11-30 19:02:25.206966","","","","","","",""
11.0,0.06176764890551567,0.00171593704643176,"train",12060.0,"2021-11-30 19:02:29.158720","","","","","","",""
11.0,0.04137073829770088,0.0017185907973287285,"train",12080.0,"2021-11-30 19:02:33.423356","","","","","","",""
11.0,0.09794123470783234,0.0017212342246537506,"train",12100.0,"2021-11-30 19:02:37.282510","","","","","","",""
11.0,0.05463852360844612,0.0017238672881917032,"train",12120.0,"2021-11-30 19:02:41.132357","","","","","","",""
11.0,0.06150280684232712,0.001726489947885131,"train",12140.0,"2021-11-30 19:02:45.346023","","","","","","",""
11.0,0.07349923998117447,0.0017291021638348543,"train",12160.0,"2021-11-30 19:02:49.202790","","","","","","",""
11.0,0.0784216970205307,0.0017317038963005765,"train",12180.0,"2021-11-30 19:02:53.116195","","","","","","",""
11.0,0.04637502506375313,0.00173429510570149,"train",12200.0,"2021-11-30 19:02:57.517657","","","","","","",""
11.0,0.08784345537424088,0.0017368757526168759,"train",12220.0,"2021-11-30 19:03:01.552509","","","","","","",""
11.0,0.09054163843393326,0.0017394457977867057,"train",12240.0,"2021-11-30 19:03:05.609080","","","","","","",""
11.0,0.06905905157327652,0.0017420052021122378,"train",12260.0,"2021-11-30 19:03:10.086430","","","","","","",""
11.0,0.067153699696064,0.0017445539266566128,"train",12280.0,"2021-11-30 19:03:14.129953","","","","","","",""
11.0,0.0657115951180458,0.001747091932645445,"train",12300.0,"2021-11-30 19:03:18.101964","","","","","","",""
11.0,0.0599542111158371,0.0017496191814674125,"train",12320.0,"2021-11-30 19:03:22.418542","","","","","","",""
11.0,0.05302450433373451,0.001752135634674846,"train",12340.0,"2021-11-30 19:03:26.272783","","","","","","",""
11.0,0.05763738974928856,0.0017546412539843118,"train",12360.0,"2021-11-30 19:03:30.127681","","","","","","",""
11.0,0.08142179995775223,0.001757136001277194,"train",12380.0,"2021-11-30 19:03:34.345488","","","","","","",""
11.0,0.043025508522987366,0.001759619838600278,"train",12400.0,"2021-11-30 19:03:38.213034","","","","","","",""
11.0,0.06752488762140274,0.0017620927281663229,"train",12420.0,"2021-11-30 19:03:42.101945","","","","","","",""
11.0,0.1087699681520462,0.0017645546323546398,"train",12440.0,"2021-11-30 19:03:46.429664","","","","","","",""
11.0,0.08674519509077072,0.0017670055137116636,"train",12460.0,"2021-11-30 19:03:50.456961","","","","","","",""
11.0,0.0570807009935379,0.0017694453349515209,"train",12480.0,"2021-11-30 19:03:54.495897","","","","","","",""
11.0,0.08886075019836426,0.0017718740589566,"train",12500.0,"2021-11-30 19:03:58.876968","","","","","","",""
11.0,0.053195562213659286,0.0017742916487781134,"train",12520.0,"2021-11-30 19:04:02.912227","","","","","","",""
11.0,0.049723438918590546,0.0017766980676366608,"train",12540.0,"2021-11-30 19:04:06.950701","","","","","","",""
11.0,0.08041336387395859,0.001779093278922789,"train",12560.0,"2021-11-30 19:04:11.310320","","","","","","",""
11.0,0.06401919573545456,0.001781477246197548,"train",12580.0,"2021-11-30 19:04:15.283723","","","","","","",""
11.0,0.06923412531614304,0.0017838499331930462,"train",12600.0,"2021-11-30 19:04:19.293039","","","","","","",""
11.0,0.12806148827075958,0.001786211303813001,"train",12620.0,"2021-11-30 19:04:23.556369","","","","","","",""
11.0,0.07192527502775192,0.0017885613221332894,"train",12640.0,"2021-11-30 19:04:27.341677","","","","","","",""
11.0,0.07853920757770538,0.0017908999524024931,"train",12660.0,"2021-11-30 19:04:31.069557","","","","","","",""
11.0,0.08378973603248596,0.0017932271590424438,"train",12680.0,"2021-11-30 19:04:35.173637","","","","","","",""
11.0,0.09346955269575119,0.0017955429066487635,"train",12700.0,"2021-11-30 19:04:38.917231","","","","","","",""
11.0,0.08186223357915878,0.0017978471599914025,"train",12720.0,"2021-11-30 19:04:42.661558","","","","","","",""
11.0,0.08757010102272034,0.0018001398840151778,"train",12740.0,"2021-11-30 19:04:46.896160","","","","","","",""
11.0,0.0713963657617569,0.0018024210438403031,"train",12760.0,"2021-11-30 19:04:50.861871","","","","","","",""
11.0,0.06848939508199692,0.0018046906047629228,"train",12780.0,"2021-11-30 19:04:54.827889","","","","","","",""
11.0,0.08084851503372192,0.0018069485322556372,"train",12800.0,"2021-11-30 19:04:59.099195","","","","","","",""
11.0,0.05863800644874573,0.001809194791968029,"train",12820.0,"2021-11-30 19:05:03.018345","","","","","","",""
11.0,0.0555962435901165,0.0018114293497271863,"train",12840.0,"2021-11-30 19:05:06.933232","","","","","","",""
11.0,0.1057627871632576,0.0018136521715382218,"train",12860.0,"2021-11-30 19:05:11.184806","","","","","","",""
11.0,0.0859079584479332,0.0018158632235847892,"train",12880.0,"2021-11-30 19:05:15.080913","","","","","","",""
11.0,"","","train",12888.0,"2021-11-30 19:06:59.035266",0.608804482281889,0.6080010377385009,0.9479808790420801,0.651125138249035,0.5130245051640203,0.5247997012918597,0.35103071858530543
11.0,"","","val",12888.0,"2021-11-30 19:07:31.404341",0.5841354516989447,0.5641750296797843,0.9351487922981943,0.6234154970343686,0.4803530209353181,0.48862687687802436,0.3190827808427879
12.0,0.04928911477327347,0.0018180624722295999,"train",12900.0,"2021-11-30 19:07:37.270582","","","","","","",""
12.0,0.03754398971796036,0.001820249884014933,"train",12920.0,"2021-11-30 19:07:41.819671","","","","","","",""
12.0,0.09314103424549103,0.001822425425663144,"train",12940.0,"2021-11-30 19:07:45.868331","","","","","","",""
12.0,0.06387761235237122,0.0018245890640771725,"train",12960.0,"2021-11-30 19:07:49.820134","","","","","","",""
12.0,0.044679075479507446,0.0018267407663410452,"train",12980.0,"2021-11-30 19:07:54.030211","","","","","","",""
12.0,0.09331156313419342,0.0018288804997203755,"train",13000.0,"2021-11-30 19:07:57.916829","","","","","","",""
12.0,0.07730724662542343,0.0018310082316628634,"train",13020.0,"2021-11-30 19:08:01.828013","","","","","","",""
12.0,0.07501720637083054,0.0018331239297987893,"train",13040.0,"2021-11-30 19:08:06.136474","","","","","","",""
12.0,0.05659128352999687,0.0018352275619415066,"train",13060.0,"2021-11-30 19:08:10.238614","","","","","","",""
12.0,0.09480521082878113,0.0018373190960879326,"train",13080.0,"2021-11-30 19:08:14.337507","","","","","","",""
12.0,0.04518544301390648,0.0018393985004190336,"train",13100.0,"2021-11-30 19:08:18.746326","","","","","","",""
12.0,0.06259144097566605,0.00184146574330031,"train",13120.0,"2021-11-30 19:08:22.788416","","","","","","",""
12.0,0.0795387402176857,0.001843520793282278,"train",13140.0,"2021-11-30 19:08:26.859192","","","","","","",""
12.0,0.06416502594947815,0.0018455636191009464,"train",13160.0,"2021-11-30 19:08:31.267280","","","","","","",""
12.0,0.0592198520898819,0.001847594189678294,"train",13180.0,"2021-11-30 19:08:35.316551","","","","","","",""
12.0,0.0553729422390461,0.0018496124741227415,"train",13200.0,"2021-11-30 19:08:39.362767","","","","","","",""
12.0,0.05776992067694664,0.001851618441729622,"train",13220.0,"2021-11-30 19:08:43.687695","","","","","","",""
12.0,0.06530304253101349,0.0018536120619816467,"train",13240.0,"2021-11-30 19:08:47.556677","","","","","","",""
12.0,0.0764925479888916,0.0018555933045493712,"train",13260.0,"2021-11-30 19:08:51.447777","","","","","","",""
12.0,0.07423295080661774,0.0018575621392916554,"train",13280.0,"2021-11-30 19:08:55.328339","","","","","","",""
12.0,0.07147863507270813,0.0018595185362561225,"train",13300.0,"2021-11-30 19:08:59.590914","","","","","","",""
12.0,0.05899471789598465,0.0018614624656796155,"train",13320.0,"2021-11-30 19:09:03.479626","","","","","","",""
12.0,0.08950916677713394,0.0018633938979886484,"train",13340.0,"2021-11-30 19:09:07.302481","","","","","","",""
12.0,0.05545860156416893,0.0018653128037998568,"train",13360.0,"2021-11-30 19:09:11.517032","","","","","","",""
12.0,0.09074744582176208,0.0018672191539204459,"train",13380.0,"2021-11-30 19:09:15.280942","","","","","","",""
12.0,0.08109230548143387,0.0018691129193486335,"train",13400.0,"2021-11-30 19:09:19.120401","","","","","","",""
12.0,0.07952775806188583,0.0018709940712740908,"train",13420.0,"2021-11-30 19:09:23.335041","","","","","","",""
12.0,0.08007901161909103,0.0018728625810783823,"train",13440.0,"2021-11-30 19:09:27.202745","","","","","","",""
12.0,0.08708397299051285,0.0018747184203353996,"train",13460.0,"2021-11-30 19:09:31.080652","","","","","","",""
12.0,0.052258796989917755,0.0018765615608117947,"train",13480.0,"2021-11-30 19:09:35.385420","","","","","","",""
12.0,0.05836289003491402,0.0018783919744674096,"train",13500.0,"2021-11-30 19:09:39.432138","","","","","","",""
12.0,0.056710392236709595,0.0018802096334557027,"train",13520.0,"2021-11-30 19:09:43.494596","","","","","","",""
12.0,0.06499142199754715,0.0018820145101241712,"train",13540.0,"2021-11-30 19:09:47.930640","","","","","","",""
12.0,0.0630607083439827,0.0018838065770147745,"train",13560.0,"2021-11-30 19:09:51.930839","","","","","","",""
12.0,0.061712831258773804,0.0018855858068643496,"train",13580.0,"2021-11-30 19:09:55.859694","","","","","","",""
12.0,0.06334326416254044,0.001887352172605026,"train",13600.0,"2021-11-30 19:10:00.212812","","","","","","",""
12.0,0.054745085537433624,0.0018891056473646398,"train",13620.0,"2021-11-30 19:10:04.210355","","","","","","",""
12.0,0.06548286974430084,0.0018908462044671395,"train",13640.0,"2021-11-30 19:10:08.187945","","","","","","",""
12.0,0.07708293944597244,0.001892573817432993,"train",13660.0,"2021-11-30 19:10:12.482335","","","","","","",""
12.0,0.08284471184015274,0.0018942884599795914,"train",13680.0,"2021-11-30 19:10:16.246871","","","","","","",""
12.0,0.10536568611860275,0.001895990106021648,"train",13700.0,"2021-11-30 19:10:20.029390","","","","","","",""
12.0,0.06508341431617737,0.0018976787296715943,"train",13720.0,"2021-11-30 19:10:24.295457","","","","","","",""
12.0,0.09848141670227051,0.0018993543052399757,"train",13740.0,"2021-11-30 19:10:28.210719","","","","","","",""
12.0,0.07117331027984619,0.0019010168072358413,"train",13760.0,"2021-11-30 19:10:32.062795","","","","","","",""
12.0,0.07559675723314285,0.0019026662103671305,"train",13780.0,"2021-11-30 19:10:36.264703","","","","","","",""
12.0,0.09460757672786713,0.0019043024895410605,"train",13800.0,"2021-11-30 19:10:40.181120","","","","","","",""
12.0,0.0557483546435833,0.001905925619864506,"train",13820.0,"2021-11-30 19:10:44.250493","","","","","","",""
12.0,0.08672446757555008,0.001907535576644378,"train",13840.0,"2021-11-30 19:10:48.665938","","","","","","",""
12.0,0.048875801265239716,0.0019091323353880008,"train",13860.0,"2021-11-30 19:10:52.530034","","","","","","",""
12.0,0.05863901227712631,0.0019107158718034828,"train",13880.0,"2021-11-30 19:10:56.386536","","","","","","",""
12.0,0.05140853300690651,0.001912286161800088,"train",13900.0,"2021-11-30 19:11:00.608192","","","","","","",""
12.0,0.07481592148542404,0.0019138431814886008,"train",13920.0,"2021-11-30 19:11:04.469884","","","","","","",""
12.0,0.04906764626502991,0.0019153869071816896,"train",13940.0,"2021-11-30 19:11:08.390121","","","","","","",""
12.0,0.0741472914814949,0.0019169173153942693,"train",13960.0,"2021-11-30 19:11:12.686136","","","","","","",""
12.0,"","","train",13962.0,"2021-11-30 19:12:55.650383",0.6265444226151495,0.6323225753768449,0.9534363770112206,0.6699974657449516,0.5432037576731192,0.5596678397473226,0.37659686241861967
12.0,"","","val",13962.0,"2021-11-30 19:13:23.681934",0.5975878464571495,0.5795165891899015,0.9410158382187703,0.6349502636465534,0.5016966058107676,0.5124175058723288,0.3358026774625846
13.0,0.07694259285926819,0.0019184343828438557,"train",13980.0,"2021-11-30 19:13:30.699103","","","","","","",""
13.0,0.09830379486083984,0.0019199380864509208,"train",14000.0,"2021-11-30 19:13:34.637423","","","","","","",""
13.0,0.050850458443164825,0.0019214284033392457,"train",14020.0,"2021-11-30 19:13:38.969420","","","","","","",""
13.0,0.05630343034863472,0.0019229053108362649,"train",14040.0,"2021-11-30 19:13:42.855244","","","","","","",""
13.0,0.0753340944647789,0.0019243687864734145,"train",14060.0,"2021-11-30 19:13:46.746948","","","","","","",""
13.0,0.09302136301994324,0.0019258188079864732,"train",14080.0,"2021-11-30 19:13:50.982188","","","","","","",""
13.0,0.05181063711643219,0.0019272553533158999,"train",14100.0,"2021-11-30 19:13:54.846531","","","","","","",""
13.0,0.0680503100156784,0.0019286784006071697,"train",14120.0,"2021-11-30 19:13:58.739843","","","","","","",""
13.0,0.09982559084892273,0.0019300879282111083,"train",14140.0,"2021-11-30 19:14:02.971642","","","","","","",""
13.0,0.08709324896335602,0.0019314839146842185,"train",14160.0,"2021-11-30 19:14:06.894255","","","","","","",""
13.0,0.04779442027211189,0.0019328663387890076,"train",14180.0,"2021-11-30 19:14:10.879075","","","","","","",""
13.0,0.05562727525830269,0.0019342351794943119,"train",14200.0,"2021-11-30 19:14:15.243318","","","","","","",""
13.0,0.07150991261005402,0.0019355904159756138,"train",14220.0,"2021-11-30 19:14:19.246513","","","","","","",""
13.0,0.06477029621601105,0.0019369320276153613,"train",14240.0,"2021-11-30 19:14:23.178252","","","","","","",""
13.0,0.07420970499515533,0.00193825999400328,"train",14260.0,"2021-11-30 19:14:27.392764","","","","","","",""
13.0,0.07293917238712311,0.0019395742949366843,"train",14280.0,"2021-11-30 19:14:31.258764","","","","","","",""
13.0,0.054222557693719864,0.0019408749104207845,"train",14300.0,"2021-11-30 19:14:35.123715","","","","","","",""
13.0,0.06419508159160614,0.0019421618206689913,"train",14320.0,"2021-11-30 19:14:39.347923","","","","","","",""
13.0,0.06155247986316681,0.0019434350061032163,"train",14340.0,"2021-11-30 19:14:43.217435","","","","","","",""
13.0,0.04289943724870682,0.0019446944473541703,"train",14360.0,"2021-11-30 19:14:47.133469","","","","","","",""
13.0,0.057331450283527374,0.0019459401252616573,"train",14380.0,"2021-11-30 19:14:51.495459","","","","","","",""
13.0,0.09424671530723572,0.001947172020874868,"train",14400.0,"2021-11-30 19:14:55.522401","","","","","","",""
13.0,0.06571513414382935,0.0019483901154526647,"train",14420.0,"2021-11-30 19:14:59.368642","","","","","","",""
13.0,0.05185827240347862,0.0019495943904638694,"train",14440.0,"2021-11-30 19:15:03.670919","","","","","","",""
13.0,0.0747322365641594,0.0019507848275875444,"train",14460.0,"2021-11-30 19:15:07.739935","","","","","","",""
13.0,0.04262111335992813,0.0019519614087132712,"train",14480.0,"2021-11-30 19:15:11.783526","","","","","","",""
13.0,0.08620889484882355,0.0019531241159414263,"train",14500.0,"2021-11-30 19:15:16.181395","","","","","","",""
13.0,0.04576834663748741,0.001954272931583453,"train",14520.0,"2021-11-30 19:15:20.222712","","","","","","",""
13.0,0.08733022212982178,0.0019554078381621306,"train",14540.0,"2021-11-30 19:15:24.216615","","","","","","",""
13.0,0.056337010115385056,0.0019565288184118417,"train",14560.0,"2021-11-30 19:15:28.212693","","","","","","",""
13.0,0.06871580332517624,0.0019576358552788314,"train",14580.0,"2021-11-30 19:15:32.667473","","","","","","",""
13.0,0.06849633157253265,0.0019587289319214713,"train",14600.0,"2021-11-30 19:15:36.631618","","","","","","",""
13.0,0.061195071786642075,0.0019598080317105113,"train",14620.0,"2021-11-30 19:15:40.634521","","","","","","",""
13.0,0.07235869020223618,0.001960873138229337,"train",14640.0,"2021-11-30 19:15:44.951204","","","","","","",""
13.0,0.04741981625556946,0.0019619242352742153,"train",14660.0,"2021-11-30 19:15:48.859686","","","","","","",""
13.0,0.04254185035824776,0.001962961306854543,"train",14680.0,"2021-11-30 19:15:52.851043","","","","","","",""
13.0,0.04952694848179817,0.0019639843371930905,"train",14700.0,"2021-11-30 19:15:57.147575","","","","","","",""
13.0,0.06827492266893387,0.001964993310726241,"train",14720.0,"2021-11-30 19:16:01.046692","","","","","","",""
13.0,0.06429599225521088,0.0019659882121042262,"train",14740.0,"2021-11-30 19:16:04.986261","","","","","","",""
13.0,0.06872047483921051,0.001966969026191363,"train",14760.0,"2021-11-30 19:16:09.229825","","","","","","",""
13.0,0.06969004124403,0.0019679357380662805,"train",14780.0,"2021-11-30 19:16:13.086847","","","","","","",""
13.0,0.05948246642947197,0.001968888333022148,"train",14800.0,"2021-11-30 19:16:17.002219","","","","","","",""
13.0,0.0943099781870842,0.0019698267965669,"train",14820.0,"2021-11-30 19:16:21.305648","","","","","","",""
13.0,0.06767924875020981,0.0019707511144234557,"train",14840.0,"2021-11-30 19:16:25.201286","","","","","","",""
13.0,0.08306997269392014,0.001971661272529935,"train",14860.0,"2021-11-30 19:16:29.148765","","","","","","",""
13.0,0.052950624376535416,0.001972557257039875,"train",14880.0,"2021-11-30 19:16:33.470973","","","","","","",""
13.0,0.06092488020658493,0.0019734390543224385,"train",14900.0,"2021-11-30 19:16:37.300472","","","","","","",""
13.0,0.06102810800075531,0.001974306650962622,"train",14920.0,"2021-11-30 19:16:41.130468","","","","","","",""
13.0,0.055022940039634705,0.0019751600337614608,"train",14940.0,"2021-11-30 19:16:45.323104","","","","","","",""
13.0,0.041974425315856934,0.0019759991897362284,"train",14960.0,"2021-11-30 19:16:49.180288","","","","","","",""
13.0,0.07402622699737549,0.0019768241061206343,"train",14980.0,"2021-11-30 19:16:53.054924","","","","","","",""
13.0,0.06328824907541275,0.0019776347703650186,"train",15000.0,"2021-11-30 19:16:57.339550","","","","","","",""
13.0,0.0708376094698906,0.001978431170136543,"train",15020.0,"2021-11-30 19:17:01.267226","","","","","","",""
13.0,"","","train",15036.0,"2021-11-30 19:18:47.470856",0.6300516626646293,0.6393115896701057,0.9553116821422791,0.6830142492058104,0.5473117797649492,0.557620202313311,0.3834598083790646
13.0,"","","val",15036.0,"2021-11-30 19:19:15.476903",0.604835903977734,0.5825707896891074,0.9428900330844544,0.6510757398384673,0.5115062266728998,0.5197864569670304,0.345963073025596
14.0,0.04829870164394379,0.0019792132933193784,"train",15040.0,"2021-11-30 19:19:19.711085","","","","","","",""
14.0,0.0734792947769165,0.001979981128014888,"train",15060.0,"2021-11-30 19:19:24.058194","","","","","","",""
14.0,0.04907068982720375,0.001980734662541811,"train",15080.0,"2021-11-30 19:19:27.924773","","","","","","",""
14.0,0.063593789935112,0.0019814738854364374,"train",15100.0,"2021-11-30 19:19:31.803406","","","","","","",""
14.0,0.060425981879234314,0.0019821987854527832,"train",15120.0,"2021-11-30 19:19:36.060610","","","","","","",""
14.0,0.045523591339588165,0.0019829093515627634,"train",15140.0,"2021-11-30 19:19:40.031682","","","","","","",""
14.0,0.06573820114135742,0.001983605572956358,"train",15160.0,"2021-11-30 19:19:43.998866","","","","","","",""
14.0,0.06395518779754639,0.001984287439041775,"train",15180.0,"2021-11-30 19:19:48.428818","","","","","","",""
14.0,0.07004262506961823,0.001984954939445616,"train",15200.0,"2021-11-30 19:19:52.498076","","","","","","",""
14.0,0.03596821054816246,0.0019856080640130295,"train",15220.0,"2021-11-30 19:19:56.574999","","","","","","",""
14.0,0.04959467053413391,0.0019862468028078676,"train",15240.0,"2021-11-30 19:20:00.962020","","","","","","",""
14.0,0.054375674575567245,0.001986871146112837,"train",15260.0,"2021-11-30 19:20:05.018047","","","","","","",""
14.0,0.08017237484455109,0.0019874810844296466,"train",15280.0,"2021-11-30 19:20:09.094646","","","","","","",""
14.0,0.061084114015102386,0.0019880766084791517,"train",15300.0,"2021-11-30 19:20:13.512886","","","","","","",""
14.0,0.0776057168841362,0.0019886577092014953,"train",15320.0,"2021-11-30 19:20:17.547897","","","","","","",""
14.0,0.0642792358994484,0.001989224377756247,"train",15340.0,"2021-11-30 19:20:21.595652","","","","","","",""
14.0,0.06319442391395569,0.0019897766055225353,"train",15360.0,"2021-11-30 19:20:25.854311","","","","","","",""
14.0,0.05211814120411873,0.0019903143840991813,"train",15380.0,"2021-11-30 19:20:29.817580","","","","","","",""
14.0,0.09603053331375122,0.0019908377053048246,"train",15400.0,"2021-11-30 19:20:33.755340","","","","","","",""
14.0,0.05084313824772835,0.001991346561178048,"train",15420.0,"2021-11-30 19:20:38.070615","","","","","","",""
14.0,0.0797719955444336,0.0019918409439775003,"train",15440.0,"2021-11-30 19:20:41.957923","","","","","","",""
14.0,0.05249686911702156,0.0019923208461820117,"train",15460.0,"2021-11-30 19:20:45.868205","","","","","","",""
14.0,0.04574383422732353,0.001992786260490709,"train",15480.0,"2021-11-30 19:20:50.231922","","","","","","",""
14.0,0.07393238693475723,0.0019932371798231287,"train",15500.0,"2021-11-30 19:20:54.180972","","","","","","",""
14.0,0.04750547558069229,0.0019936735973193212,"train",15520.0,"2021-11-30 19:20:58.089465","","","","","","",""
14.0,0.052304502576589584,0.001994095506339958,"train",15540.0,"2021-11-30 19:21:02.351218","","","","","","",""
14.0,0.05187496170401573,0.001994502900466431,"train",15560.0,"2021-11-30 19:21:06.236460","","","","","","",""
14.0,0.06080752983689308,0.0019948957735009517,"train",15580.0,"2021-11-30 19:21:10.119949","","","","","","",""
14.0,0.06558790057897568,0.0019952741194666436,"train",15600.0,"2021-11-30 19:21:14.438388","","","","","","",""
14.0,0.10272262990474701,0.0019956379326076354,"train",15620.0,"2021-11-30 19:21:18.461189","","","","","","",""
14.0,0.07779330760240555,0.001995987207389146,"train",15640.0,"2021-11-30 19:21:22.417256","","","","","","",""
14.0,0.08224117755889893,0.0019963219384975706,"train",15660.0,"2021-11-30 19:21:26.704297","","","","","","",""
14.0,0.11048623919487,0.001996642120840561,"train",15680.0,"2021-11-30 19:21:30.782523","","","","","","",""
14.0,0.046870507299900055,0.001996947749547103,"train",15700.0,"2021-11-30 19:21:34.869103","","","","","","",""
14.0,0.07305417954921722,0.0019972388199675905,"train",15720.0,"2021-11-30 19:21:38.951423","","","","","","",""
14.0,0.05376605689525604,0.001997515327673896,"train",15740.0,"2021-11-30 19:21:43.344739","","","","","","",""
14.0,0.06910057365894318,0.0019977772684594388,"train",15760.0,"2021-11-30 19:21:47.415343","","","","","","",""
14.0,0.04827769473195076,0.0019980246383392475,"train",15780.0,"2021-11-30 19:21:51.443341","","","","","","",""
14.0,0.0522121898829937,0.0019982574335500225,"train",15800.0,"2021-11-30 19:21:55.871066","","","","","","",""
14.0,0.06993746757507324,0.001998475650550192,"train",15820.0,"2021-11-30 19:21:59.919976","","","","","","",""
14.0,0.06222550943493843,0.0019986792860199657,"train",15840.0,"2021-11-30 19:22:03.966977","","","","","","",""
14.0,0.05503203347325325,0.001998868336861386,"train",15860.0,"2021-11-30 19:22:08.465635","","","","","","",""
14.0,0.05765090882778168,0.001999042800198376,"train",15880.0,"2021-11-30 19:22:12.662395","","","","","","",""
14.0,0.041938118636608124,0.00199920267337678,"train",15900.0,"2021-11-30 19:22:16.749040","","","","","","",""
14.0,0.06137702614068985,0.0019993479539644077,"train",15920.0,"2021-11-30 19:22:21.227385","","","","","","",""
14.0,0.07458428293466568,0.0019994786397510697,"train",15940.0,"2021-11-30 19:22:25.282933","","","","","","",""
14.0,0.06410550326108932,0.0019995947287486096,"train",15960.0,"2021-11-30 19:22:29.361288","","","","","","",""
14.0,0.05012498050928116,0.0019996962191909367,"train",15980.0,"2021-11-30 19:22:33.676335","","","","","","",""
14.0,0.07287366688251495,0.0019997831095340513,"train",16000.0,"2021-11-30 19:22:37.613835","","","","","","",""
14.0,0.09419679641723633,0.001999855398456069,"train",16020.0,"2021-11-30 19:22:41.674082","","","","","","",""
14.0,0.07704005390405655,0.00199991308485724,"train",16040.0,"2021-11-30 19:22:46.027228","","","","","","",""
14.0,0.06696660816669464,0.001999956167859967,"train",16060.0,"2021-11-30 19:22:49.992593","","","","","","",""
14.0,0.07294576615095139,0.0019999846468088172,"train",16080.0,"2021-11-30 19:22:53.962132","","","","","","",""
14.0,0.049199093133211136,0.0019999985212705335,"train",16100.0,"2021-11-30 19:22:58.310787","","","","","","",""
14.0,"","","train",16110.0,"2021-11-30 19:24:42.575759",0.6395401295204831,0.6539389504957576,0.9567917527599229,0.6770646672998829,0.5518000045261678,0.5762120142128512,0.38898113470480056
14.0,"","","val",16110.0,"2021-11-30 19:25:10.822190",0.6123158993389771,0.5988008524129221,0.9434937658174365,0.6441857293388937,0.5183550039214057,0.5399397146670685,0.35284057157240506
15.0,0.059422366321086884,0.0019999995774202316,"train",16120.0,"2021-11-30 19:25:16.309061","","","","","","",""
15.0,0.06461098045110703,0.0019999966438102564,"train",16140.0,"2021-11-30 19:25:20.174204","","","","","","",""
15.0,0.05176609382033348,0.0019999909162942875,"train",16160.0,"2021-11-30 19:25:24.381634","","","","","","",""
15.0,0.04546418786048889,0.001999982394888327,"train",16180.0,"2021-11-30 19:25:28.174226","","","","","","",""
15.0,0.08847393095493317,0.0019999710796161823,"train",16200.0,"2021-11-30 19:25:32.167430","","","","","","",""
15.0,0.07179242372512817,0.0019999569705094686,"train",16220.0,"2021-11-30 19:25:36.543246","","","","","","",""
15.0,0.046964775770902634,0.001999940067607605,"train",16240.0,"2021-11-30 19:25:40.450138","","","","","","",""
15.0,0.04114702343940735,0.001999920370957817,"train",16260.0,"2021-11-30 19:25:44.330816","","","","","","",""
15.0,0.05762358009815216,0.0019998978806151355,"train",16280.0,"2021-11-30 19:25:48.744957","","","","","","",""
15.0,0.07570070028305054,0.0019998725966423976,"train",16300.0,"2021-11-30 19:25:52.769814","","","","","","",""
15.0,0.079411081969738,0.001999844519110244,"train",16320.0,"2021-11-30 19:25:56.808482","","","","","","",""
15.0,0.05557335913181305,0.001999813648097122,"train",16340.0,"2021-11-30 19:26:01.145790","","","","","","",""
15.0,0.09739777445793152,0.001999779983689282,"train",16360.0,"2021-11-30 19:26:05.132786","","","","","","",""
15.0,0.06140207126736641,0.0019997435259807806,"train",16380.0,"2021-11-30 19:26:09.168420","","","","","","",""
15.0,0.05597095564007759,0.001999704275073478,"train",16400.0,"2021-11-30 19:26:13.569606","","","","","","",""
15.0,0.056221675127744675,0.0019996622310770383,"train",16420.0,"2021-11-30 19:26:17.605581","","","","","","",""
15.0,0.08327426761388779,0.0019996173941089286,"train",16440.0,"2021-11-30 19:26:21.751814","","","","","","",""
15.0,0.07735627144575119,0.0019995697642944212,"train",16460.0,"2021-11-30 19:26:25.999459","","","","","","",""
15.0,0.06586508452892303,0.0019995193417665894,"train",16480.0,"2021-11-30 19:26:29.949085","","","","","","",""
15.0,0.08995019644498825,0.0019994661266663108,"train",16500.0,"2021-11-30 19:26:33.881324","","","","","","",""
15.0,0.10676244646310806,0.001999410119142264,"train",16520.0,"2021-11-30 19:26:38.164805","","","","","","",""
15.0,0.06361454725265503,0.0019993513193509297,"train",16540.0,"2021-11-30 19:26:42.136425","","","","","","",""
15.0,0.06243220716714859,0.0019992897274565906,"train",16560.0,"2021-11-30 19:26:46.036788","","","","","","",""
15.0,0.07758759707212448,0.0019992253436313303,"train",16580.0,"2021-11-30 19:26:50.272745","","","","","","",""
15.0,0.0494854561984539,0.0019991581680550313,"train",16600.0,"2021-11-30 19:26:54.187977","","","","","","",""
15.0,0.0743134617805481,0.0019990882009153785,"train",16620.0,"2021-11-30 19:26:58.096496","","","","","","",""
15.0,0.07523345202207565,0.001999015442407854,"train",16640.0,"2021-11-30 19:27:02.347702","","","","","","",""
15.0,0.07055837661027908,0.0019989398927357403,"train",16660.0,"2021-11-30 19:27:06.219071","","","","","","",""
15.0,0.04610764607787132,0.0019988615521101174,"train",16680.0,"2021-11-30 19:27:10.179021","","","","","","",""
15.0,0.07290636003017426,0.0019987804207498637,"train",16700.0,"2021-11-30 19:27:14.599473","","","","","","",""
15.0,0.062442947179079056,0.0019986964988816533,"train",16720.0,"2021-11-30 19:27:18.596364","","","","","","",""
15.0,0.08621342480182648,0.0019986097867399585,"train",16740.0,"2021-11-30 19:27:22.577612","","","","","","",""
15.0,0.0833897590637207,0.0019985202845670463,"train",16760.0,"2021-11-30 19:27:26.880902","","","","","","",""
15.0,0.050435084849596024,0.0019984279926129798,"train",16780.0,"2021-11-30 19:27:30.784726","","","","","","",""
15.0,0.06103154271841049,0.001998332911135615,"train",16800.0,"2021-11-30 19:27:34.712654","","","","","","",""
15.0,0.06831149756908417,0.0019982350404006036,"train",16820.0,"2021-11-30 19:27:38.995862","","","","","","",""
15.0,0.04825848340988159,0.0019981343806813883,"train",16840.0,"2021-11-30 19:27:42.909194","","","","","","",""
15.0,0.05609174072742462,0.001998030932259205,"train",16860.0,"2021-11-30 19:27:46.803166","","","","","","",""
15.0,0.0849314033985138,0.0019979246954230823,"train",16880.0,"2021-11-30 19:27:51.045104","","","","","","",""
15.0,0.06175589933991432,0.0019978156704698363,"train",16900.0,"2021-11-30 19:27:55.142252","","","","","","",""
15.0,0.08525021374225616,0.001997703857704076,"train",16920.0,"2021-11-30 19:27:59.165372","","","","","","",""
15.0,0.09682243317365646,0.0019975892574381976,"train",16940.0,"2021-11-30 19:28:03.162300","","","","","","",""
15.0,0.07022204250097275,0.001997471869992386,"train",16960.0,"2021-11-30 19:28:07.437843","","","","","","",""
15.0,0.061171166598796844,0.0019973516956946127,"train",16980.0,"2021-11-30 19:28:11.356746","","","","","","",""
15.0,0.05383424460887909,0.0019972287348806366,"train",17000.0,"2021-11-30 19:28:15.240480","","","","","","",""
15.0,0.08184396475553513,0.0019971029878940003,"train",17020.0,"2021-11-30 19:28:19.578802","","","","","","",""
15.0,0.09369700402021408,0.0019969744550860317,"train",17040.0,"2021-11-30 19:28:23.557024","","","","","","",""
15.0,0.05222227796912193,0.0019968431368158433,"train",17060.0,"2021-11-30 19:28:27.437060","","","","","","",""
15.0,0.07595845311880112,0.001996709033450327,"train",17080.0,"2021-11-30 19:28:31.707098","","","","","","",""
15.0,0.07321304827928543,0.0019965721453641585,"train",17100.0,"2021-11-30 19:28:35.580530","","","","","","",""
15.0,0.05515768751502037,0.0019964324729397935,"train",17120.0,"2021-11-30 19:28:39.495613","","","","","","",""
15.0,0.06746887415647507,0.0019962900165674657,"train",17140.0,"2021-11-30 19:28:43.759421","","","","","","",""
15.0,0.07288733869791031,0.0019961447766451887,"train",17160.0,"2021-11-30 19:28:47.650707","","","","","","",""
15.0,0.04407966881990433,0.001995996753578751,"train",17180.0,"2021-11-30 19:28:51.491198","","","","","","",""
15.0,"","","train",17184.0,"2021-11-30 19:30:34.183587",0.6472094884668559,0.6640567209351596,0.9583536544717782,0.6906963831192695,0.5693925182197703,0.5919492652264886,0.40284058278019264
15.0,"","","val",17184.0,"2021-11-30 19:31:02.453644",0.6127217905601299,0.6031801462970564,0.9441043260904306,0.6504154897810637,0.5181288886496244,0.5408715275300728,0.3517809763187436
16.0,0.06947838515043259,0.001995845947781719,"train",17200.0,"2021-11-30 19:31:09.828676","","","","","","",""
16.0,0.0693187341094017,0.001995692359675433,"train",17220.0,"2021-11-30 19:31:13.770557","","","","","","",""
16.0,0.03853844851255417,0.0019955359896890066,"train",17240.0,"2021-11-30 19:31:17.730512","","","","","","",""
16.0,0.061657119542360306,0.0019953768382593258,"train",17260.0,"2021-11-30 19:31:21.949599","","","","","","",""
16.0,0.09285328537225723,0.0019952149058310486,"train",17280.0,"2021-11-30 19:31:26.151094","","","","","","",""
16.0,0.08083625882863998,0.001995050192856602,"train",17300.0,"2021-11-30 19:31:30.110205","","","","","","",""
16.0,0.059634145349264145,0.001994882699796182,"train",17320.0,"2021-11-30 19:31:34.445498","","","","","","",""
16.0,0.07579368352890015,0.001994712427117752,"train",17340.0,"2021-11-30 19:31:38.421861","","","","","","",""
16.0,0.07814795523881912,0.0019945393752970413,"train",17360.0,"2021-11-30 19:31:42.281850","","","","","","",""
16.0,0.09821457415819168,0.001994363544817544,"train",17380.0,"2021-11-30 19:31:46.514156","","","","","","",""
16.0,0.05304582044482231,0.001994184936170517,"train",17400.0,"2021-11-30 19:31:50.379054","","","","","","",""
16.0,0.04831206053495407,0.0019940035498549804,"train",17420.0,"2021-11-30 19:31:54.282517","","","","","","",""
16.0,0.045703429728746414,0.0019938193863777145,"train",17440.0,"2021-11-30 19:31:58.538536","","","","","","",""
16.0,0.06905575841665268,0.001993632446253258,"train",17460.0,"2021-11-30 19:32:02.448075","","","","","","",""
16.0,0.04314160346984863,0.0019934427300039074,"train",17480.0,"2021-11-30 19:32:06.461629","","","","","","",""
16.0,0.03684580326080322,0.001993250238159717,"train",17500.0,"2021-11-30 19:32:10.860546","","","","","","",""
16.0,0.09121357649564743,0.0019930549712584944,"train",17520.0,"2021-11-30 19:32:14.887795","","","","","","",""
16.0,0.08367305248975754,0.001992856929845801,"train",17540.0,"2021-11-30 19:32:18.778255","","","","","","",""
16.0,0.05917110666632652,0.0019926561144749497,"train",17560.0,"2021-11-30 19:32:23.221197","","","","","","",""
16.0,0.049533020704984665,0.001992452525707004,"train",17580.0,"2021-11-30 19:32:27.288896","","","","","","",""
16.0,0.07145527750253677,0.0019922461641107767,"train",17600.0,"2021-11-30 19:32:31.335435","","","","","","",""
16.0,0.04871087148785591,0.001992037030262826,"train",17620.0,"2021-11-30 19:32:35.702850","","","","","","",""
16.0,0.04440104216337204,0.0019918251247474567,"train",17640.0,"2021-11-30 19:32:39.596730","","","","","","",""
16.0,0.06283704191446304,0.001991610448156718,"train",17660.0,"2021-11-30 19:32:43.624654","","","","","","",""
16.0,0.062056764960289,0.0019913930010903996,"train",17680.0,"2021-11-30 19:32:48.027342","","","","","","",""
16.0,0.08507348597049713,0.001991172784156033,"train",17700.0,"2021-11-30 19:32:52.048434","","","","","","",""
16.0,0.07085996121168137,0.0019909497979688877,"train",17720.0,"2021-11-30 19:32:55.935981","","","","","","",""
16.0,0.0905965268611908,0.0019907240431519713,"train",17740.0,"2021-11-30 19:33:00.200202","","","","","","",""
16.0,0.06270895898342133,0.001990495520336026,"train",17760.0,"2021-11-30 19:33:04.069629","","","","","","",""
16.0,0.060308899730443954,0.0019902642301595284,"train",17780.0,"2021-11-30 19:33:07.927013","","","","","","",""
16.0,0.0782923623919487,0.001990030173268685,"train",17800.0,"2021-11-30 19:33:12.176840","","","","","","",""
16.0,0.04657752439379692,0.0019897933503174345,"train",17820.0,"2021-11-30 19:33:16.108222","","","","","","",""
16.0,0.056621141731739044,0.0019895537619674425,"train",17840.0,"2021-11-30 19:33:19.978773","","","","","","",""
16.0,0.037954263389110565,0.001989311408888101,"train",17860.0,"2021-11-30 19:33:24.173701","","","","","","",""
16.0,0.06844253838062286,0.001989066291756527,"train",17880.0,"2021-11-30 19:33:27.920521","","","","","","",""
16.0,0.057917166501283646,0.00198881841125756,"train",17900.0,"2021-11-30 19:33:31.669177","","","","","","",""
16.0,0.0543859489262104,0.0019885677680837595,"train",17920.0,"2021-11-30 19:33:35.775792","","","","","","",""
16.0,0.05242720991373062,0.001988314362935404,"train",17940.0,"2021-11-30 19:33:39.527008","","","","","","",""
16.0,0.04290424659848213,0.0019880581965204896,"train",17960.0,"2021-11-30 19:33:43.460410","","","","","","",""
16.0,0.07726041227579117,0.0019877992695547255,"train",17980.0,"2021-11-30 19:33:47.732575","","","","","","",""
16.0,0.07585010677576065,0.0019875375827615354,"train",18000.0,"2021-11-30 19:33:51.622121","","","","","","",""
16.0,0.04225338622927666,0.0019872731368720527,"train",18020.0,"2021-11-30 19:33:55.514666","","","","","","",""
16.0,0.07767059653997421,0.00198700593262512,"train",18040.0,"2021-11-30 19:33:59.867666","","","","","","",""
16.0,0.056303028017282486,0.001986735970767286,"train",18060.0,"2021-11-30 19:34:03.963353","","","","","","",""
16.0,0.04793306812644005,0.001986463252052804,"train",18080.0,"2021-11-30 19:34:08.038167","","","","","","",""
16.0,0.06345504522323608,0.0019861877772436305,"train",18100.0,"2021-11-30 19:34:12.075720","","","","","","",""
16.0,0.058380912989377975,0.001985909547109422,"train",18120.0,"2021-11-30 19:34:16.502945","","","","","","",""
16.0,0.05859007686376572,0.001985628562427533,"train",18140.0,"2021-11-30 19:34:20.423872","","","","","","",""
16.0,0.10421786457300186,0.001985344823983014,"train",18160.0,"2021-11-30 19:34:24.286651","","","","","","",""
16.0,0.06017238646745682,0.001985058332568609,"train",18180.0,"2021-11-30 19:34:28.558083","","","","","","",""
16.0,0.0629606619477272,0.001984769088984755,"train",18200.0,"2021-11-30 19:34:32.524984","","","","","","",""
16.0,0.06394144892692566,0.001984477094039576,"train",18220.0,"2021-11-30 19:34:36.389035","","","","","","",""
16.0,0.05473407730460167,0.001984182348548885,"train",18240.0,"2021-11-30 19:34:40.781986","","","","","","",""
16.0,"","","train",18258.0,"2021-11-30 19:36:26.482473",0.6337189842101434,0.6649961379720675,0.9602773008003714,0.6975126028666088,0.5696777930121159,0.5910235352350118,0.39766514702297207
16.0,"","","val",18258.0,"2021-11-30 19:36:54.419026",0.5952104835903977,0.5988293671795873,0.9462241162430242,0.6529442671752771,0.517408238947791,0.5357835336324378,0.34330708912748054
17.0,0.051355794072151184,0.00198388485333618,"train",18260.0,"2021-11-30 19:36:58.165834","","","","","","",""
17.0,0.05899934843182564,0.0019835846092326396,"train",18280.0,"2021-11-30 19:37:02.262864","","","","","","",""
17.0,0.06702318042516708,0.0019832816170771246,"train",18300.0,"2021-11-30 19:37:06.776008","","","","","","",""
17.0,0.08646336942911148,0.001982975877716172,"train",18320.0,"2021-11-30 19:37:10.732399","","","","","","",""
17.0,0.06103401258587837,0.0019826673920039957,"train",18340.0,"2021-11-30 19:37:14.787365","","","","","","",""
17.0,0.050387654453516006,0.0019823561608024822,"train",18360.0,"2021-11-30 19:37:19.277103","","","","","","",""
17.0,0.06201270595192909,0.0019820421849811886,"train",18380.0,"2021-11-30 19:37:23.332427","","","","","","",""
17.0,0.04633944854140282,0.0019817254654173402,"train",18400.0,"2021-11-30 19:37:27.377107","","","","","","",""
17.0,0.05850590765476227,0.0019814060029958278,"train",18420.0,"2021-11-30 19:37:31.816701","","","","","","",""
17.0,0.07352600246667862,0.001981083798609206,"train",18440.0,"2021-11-30 19:37:35.883882","","","","","","",""
17.0,0.07660790532827377,0.0019807588531576908,"train",18460.0,"2021-11-30 19:37:39.935504","","","","","","",""
17.0,0.08325644582509995,0.0019804311675491555,"train",18480.0,"2021-11-30 19:37:44.371616","","","","","","",""
17.0,0.08544973284006119,0.00198010074269913,"train",18500.0,"2021-11-30 19:37:48.440940","","","","","","",""
17.0,0.04782110080122948,0.0019797675795307965,"train",18520.0,"2021-11-30 19:37:52.488018","","","","","","",""
17.0,0.06339916586875916,0.0019794316789749885,"train",18540.0,"2021-11-30 19:37:56.889971","","","","","","",""
17.0,0.05665278807282448,0.0019790930419701877,"train",18560.0,"2021-11-30 19:38:00.932117","","","","","","",""
17.0,0.05327652767300606,0.0019787516694625214,"train",18580.0,"2021-11-30 19:38:04.966604","","","","","","",""
17.0,0.0705174133181572,0.0019784075624057584,"train",18600.0,"2021-11-30 19:38:09.396462","","","","","","",""
17.0,0.04598572850227356,0.0019780607217613094,"train",18620.0,"2021-11-30 19:38:13.440472","","","","","","",""
17.0,0.04557744413614273,0.001977711148498221,"train",18640.0,"2021-11-30 19:38:17.396172","","","","","","",""
17.0,0.057249750941991806,0.0019773588435931756,"train",18660.0,"2021-11-30 19:38:21.836163","","","","","","",""
17.0,0.051268525421619415,0.0019770038080304873,"train",18680.0,"2021-11-30 19:38:25.846295","","","","","","",""
17.0,0.05622173473238945,0.001976646042802099,"train",18700.0,"2021-11-30 19:38:29.833701","","","","","","",""
17.0,0.06934940814971924,0.0019762855489075808,"train",18720.0,"2021-11-30 19:38:34.162131","","","","","","",""
17.0,0.048602283000946045,0.001975922327354126,"train",18740.0,"2021-11-30 19:38:38.122779","","","","","","",""
17.0,0.05576194450259209,0.001975556379156549,"train",18760.0,"2021-11-30 19:38:42.055480","","","","","","",""
17.0,0.06259714066982269,0.0019751877053372823,"train",18780.0,"2021-11-30 19:38:46.355438","","","","","","",""
17.0,0.07343000173568726,0.001974816306926373,"train",18800.0,"2021-11-30 19:38:50.246597","","","","","","",""
17.0,0.04816243052482605,0.001974442184961482,"train",18820.0,"2021-11-30 19:38:54.150691","","","","","","",""
17.0,0.08925191313028336,0.0019740653404878776,"train",18840.0,"2021-11-30 19:38:58.454568","","","","","","",""
17.0,0.05352897197008133,0.0019736857745584362,"train",18860.0,"2021-11-30 19:39:02.335213","","","","","","",""
17.0,0.0490291491150856,0.0019733034882336367,"train",18880.0,"2021-11-30 19:39:06.248163","","","","","","",""
17.0,0.035217154771089554,0.0019729184825815586,"train",18900.0,"2021-11-30 19:39:10.542780","","","","","","",""
17.0,0.04693349823355675,0.0019725307586778806,"train",18920.0,"2021-11-30 19:39:14.524441","","","","","","",""
17.0,0.08471599221229553,0.001972140317605874,"train",18940.0,"2021-11-30 19:39:18.461465","","","","","","",""
17.0,0.05850518122315407,0.0019717471604564028,"train",18960.0,"2021-11-30 19:39:22.766201","","","","","","",""
17.0,0.07579859346151352,0.0019713512883279185,"train",18980.0,"2021-11-30 19:39:26.702648","","","","","","",""
17.0,0.046194471418857574,0.00197095270232646,"train",19000.0,"2021-11-30 19:39:30.692080","","","","","","",""
17.0,0.09104735404253006,0.001970551403565646,"train",19020.0,"2021-11-30 19:39:35.037442","","","","","","",""
17.0,0.0900309830904007,0.0019701473931666765,"train",19040.0,"2021-11-30 19:39:39.034847","","","","","","",""
17.0,0.03982870653271675,0.001969740672258327,"train",19060.0,"2021-11-30 19:39:42.990938","","","","","","",""
17.0,0.04020348936319351,0.0019693312419769454,"train",19080.0,"2021-11-30 19:39:47.338122","","","","","","",""
17.0,0.06235168129205704,0.0019689191034664498,"train",19100.0,"2021-11-30 19:39:51.295948","","","","","","",""
17.0,0.07189001142978668,0.0019685042578783257,"train",19120.0,"2021-11-30 19:39:55.268876","","","","","","",""
17.0,0.08770639449357986,0.00196808670637162,"train",19140.0,"2021-11-30 19:39:59.614279","","","","","","",""
17.0,0.05266064032912254,0.001967666450112942,"train",19160.0,"2021-11-30 19:40:03.488342","","","","","","",""
17.0,0.04919485002756119,0.001967243490276456,"train",19180.0,"2021-11-30 19:40:07.437413","","","","","","",""
17.0,0.06266802549362183,0.0019668178280438818,"train",19200.0,"2021-11-30 19:40:11.857447","","","","","","",""
17.0,0.057238735258579254,0.0019663894646044875,"train",19220.0,"2021-11-30 19:40:15.907535","","","","","","",""
17.0,0.047919273376464844,0.001965958401155089,"train",19240.0,"2021-11-30 19:40:19.973971","","","","","","",""
17.0,0.09830155968666077,0.0019655246389000463,"train",19260.0,"2021-11-30 19:40:23.981498","","","","","","",""
17.0,0.03816027194261551,0.0019650881790512597,"train",19280.0,"2021-11-30 19:40:28.247674","","","","","","",""
17.0,0.060732852667570114,0.001964649022828165,"train",19300.0,"2021-11-30 19:40:32.153692","","","","","","",""
17.0,0.0866260901093483,0.0019642071714577325,"train",19320.0,"2021-11-30 19:40:36.068056","","","","","","",""
17.0,"","","train",19332.0,"2021-11-30 19:42:22.486986",0.6486938805209925,0.6795234065237923,0.9636482226680928,0.712203309271412,0.594103711901256,0.6104775044949107,0.41896200061845373
17.0,"","","val",19332.0,"2021-11-30 19:42:50.269698",0.6100545053925548,0.6104159092002613,0.9480883014181096,0.6660278771631264,0.5439320840754976,0.5576419336537779,0.36499183822117776
18.0,0.05589853599667549,0.0019637626261744634,"train",19340.0,"2021-11-30 19:43:07.763388","","","","","","",""
18.0,0.047012925148010254,0.001963315388220384,"train",19360.0,"2021-11-30 19:43:18.687336","","","","","","",""
18.0,0.04656876251101494,0.0019628654588450443,"train",19380.0,"2021-11-30 19:43:22.759854","","","","","","",""
18.0,0.06875675916671753,0.001962412839305514,"train",19400.0,"2021-11-30 19:43:27.330125","","","","","","",""
18.0,0.06513237953186035,0.0019619575308663785,"train",19420.0,"2021-11-30 19:43:31.447625","","","","","","",""
18.0,0.039007097482681274,0.001961499534799737,"train",19440.0,"2021-11-30 19:43:35.558586","","","","","","",""
18.0,0.051331017166376114,0.001961038852385196,"train",19460.0,"2021-11-30 19:43:40.172925","","","","","","",""
18.0,0.054524388164281845,0.0019605754849098683,"train",19480.0,"2021-11-30 19:43:44.374967","","","","","","",""
18.0,0.08296237140893936,0.0019601094336683693,"train",19500.0,"2021-11-30 19:43:48.502759","","","","","","",""
18.0,0.056922879070043564,0.0019596406999628116,"train",19520.0,"2021-11-30 19:43:53.020874","","","","","","",""
18.0,0.08132726699113846,0.0019591692851028022,"train",19540.0,"2021-11-30 19:43:57.158105","","","","","","",""
18.0,0.03739633783698082,0.001958695190405441,"train",19560.0,"2021-11-30 19:44:01.311671","","","","","","",""
18.0,0.08611784130334854,0.001958218417195312,"train",19580.0,"2021-11-30 19:44:05.654431","","","","","","",""
18.0,0.0743246003985405,0.001957738966804486,"train",19600.0,"2021-11-30 19:44:09.773504","","","","","","",""
18.0,0.05877817049622536,0.001957256840572511,"train",19620.0,"2021-11-30 19:44:13.899031","","","","","","",""
18.0,0.057982686907052994,0.0019567720398464133,"train",19640.0,"2021-11-30 19:44:18.367772","","","","","","",""
18.0,0.03675687313079834,0.00195628456598069,"train",19660.0,"2021-11-30 19:44:22.459971","","","","","","",""
18.0,0.05023705214262009,0.001955794420337307,"train",19680.0,"2021-11-30 19:44:26.581108","","","","","","",""
18.0,0.047598619014024734,0.0019553016042856957,"train",19700.0,"2021-11-30 19:44:31.004332","","","","","","",""
18.0,0.05047948658466339,0.001954806119202748,"train",19720.0,"2021-11-30 19:44:35.127004","","","","","","",""
18.0,0.05837292969226837,0.001954307966472812,"train",19740.0,"2021-11-30 19:44:39.125967","","","","","","",""
18.0,0.05431989207863808,0.0019538071474876914,"train",19760.0,"2021-11-30 19:44:43.447840","","","","","","",""
18.0,0.09337427467107773,0.001953303663646636,"train",19780.0,"2021-11-30 19:44:47.337246","","","","","","",""
18.0,0.0772290825843811,0.0019527975163563436,"train",19800.0,"2021-11-30 19:44:51.311437","","","","","","",""
18.0,0.05061089247465134,0.0019522887070309524,"train",19820.0,"2021-11-30 19:44:55.748926","","","","","","",""
18.0,0.06755873560905457,0.0019517772370920379,"train",19840.0,"2021-11-30 19:44:59.784787","","","","","","",""
18.0,0.09090304374694824,0.0019512631079686104,"train",19860.0,"2021-11-30 19:45:03.720182","","","","","","",""
18.0,0.05787099152803421,0.001950746321097108,"train",19880.0,"2021-11-30 19:45:08.098381","","","","","","",""
18.0,0.06957275420427322,0.0019502268779213957,"train",19900.0,"2021-11-30 19:45:12.047821","","","","","","",""
18.0,0.06624060869216919,0.0019497047798927598,"train",19920.0,"2021-11-30 19:45:15.925785","","","","","","",""
18.0,0.039134200662374496,0.001949180028469903,"train",19940.0,"2021-11-30 19:45:20.258889","","","","","","",""
18.0,0.09037090837955475,0.0019486526251189435,"train",19960.0,"2021-11-30 19:45:24.234470","","","","","","",""
18.0,0.08304137736558914,0.0019481225713134064,"train",19980.0,"2021-11-30 19:45:28.152286","","","","","","",""
18.0,0.08032184094190598,0.0019475898685342235,"train",20000.0,"2021-11-30 19:45:32.443658","","","","","","",""
18.0,0.050161201506853104,0.0019470545182697272,"train",20020.0,"2021-11-30 19:45:36.451571","","","","","","",""
18.0,0.0569501668214798,0.001946516522015647,"train",20040.0,"2021-11-30 19:45:40.388859","","","","","","",""
18.0,0.04188043624162674,0.0019459758812751047,"train",20060.0,"2021-11-30 19:45:44.654987","","","","","","",""
18.0,0.06324571371078491,0.0019454325975586106,"train",20080.0,"2021-11-30 19:45:48.548179","","","","","","",""
18.0,0.06201727315783501,0.0019448866723840602,"train",20100.0,"2021-11-30 19:45:52.433335","","","","","","",""
18.0,0.0696505680680275,0.001944338107276728,"train",20120.0,"2021-11-30 19:45:56.719909","","","","","","",""
18.0,0.060510776937007904,0.0019437869037692644,"train",20140.0,"2021-11-30 19:46:00.624920","","","","","","",""
18.0,0.08220845460891724,0.0019432330634016912,"train",20160.0,"2021-11-30 19:46:04.451274","","","","","","",""
18.0,0.09269589185714722,0.0019426765877213986,"train",20180.0,"2021-11-30 19:46:08.688643","","","","","","",""
18.0,0.05828164890408516,0.0019421174782831383,"train",20200.0,"2021-11-30 19:46:12.726515","","","","","","",""
18.0,0.045263633131980896,0.0019415557366490208,"train",20220.0,"2021-11-30 19:46:16.782227","","","","","","",""
18.0,0.051002468913793564,0.0019409913643885113,"train",20240.0,"2021-11-30 19:46:21.151657","","","","","","",""
