"epoch","loss","lr","part","step","time","accuracy","auprc","auroc","challenge_metric","f_beta_measure","f_measure","g_beta_measure"
0.0,0.15296562016010284,8.000730236035311e-05,"train",20.0,"2021-12-01 13:09:42.077059","","","","","","",""
0.0,0.18033714592456818,8.002920933031948e-05,"train",40.0,"2021-12-01 13:09:46.000275","","","","","","",""
0.0,0.1578533947467804,8.006572057662293e-05,"train",60.0,"2021-12-01 13:09:49.785485","","","","","","",""
0.0,0.14517223834991455,8.011683554380914e-05,"train",80.0,"2021-12-01 13:09:53.881003","","","","","","",""
0.0,0.11037148535251617,8.018255345425274e-05,"train",100.0,"2021-12-01 13:09:57.554825","","","","","","",""
0.0,0.13936705887317657,8.026287330817079e-05,"train",120.0,"2021-12-01 13:10:01.276612","","","","","","",""
0.0,0.14911165833473206,8.03577938836373e-05,"train",140.0,"2021-12-01 13:10:05.312717","","","","","","",""
0.0,0.15964233875274658,8.04673137366021e-05,"train",160.0,"2021-12-01 13:10:08.936171","","","","","","",""
0.0,0.10992784053087234,8.059143120091187e-05,"train",180.0,"2021-12-01 13:10:12.622108","","","","","","",""
0.0,0.15128786861896515,8.073014438833613e-05,"train",200.0,"2021-12-01 13:10:16.613520","","","","","","",""
0.0,0.14751605689525604,8.088345118859724e-05,"train",220.0,"2021-12-01 13:10:20.209526","","","","","","",""
0.0,0.14037950336933136,8.10513492693996e-05,"train",240.0,"2021-12-01 13:10:23.790261","","","","","","",""
0.0,0.13792724907398224,8.123383607646804e-05,"train",260.0,"2021-12-01 13:10:27.924730","","","","","","",""
0.0,0.12370485812425613,8.143090883358495e-05,"train",280.0,"2021-12-01 13:10:31.495516","","","","","","",""
0.0,0.1300276219844818,8.164256454263295e-05,"train",300.0,"2021-12-01 13:10:35.091309","","","","","","",""
0.0,0.11890000849962234,8.186879998364088e-05,"train",320.0,"2021-12-01 13:10:39.181497","","","","","","",""
0.0,0.13494309782981873,8.210961171483213e-05,"train",340.0,"2021-12-01 13:10:42.790637","","","","","","",""
0.0,0.11655967682600021,8.236499607267717e-05,"train",360.0,"2021-12-01 13:10:46.506021","","","","","","",""
0.0,0.12732553482055664,8.26349491719505e-05,"train",380.0,"2021-12-01 13:10:50.533638","","","","","","",""
0.0,0.10925223678350449,8.291946690578713e-05,"train",400.0,"2021-12-01 13:10:54.113354","","","","","","",""
0.0,0.10640687495470047,8.321854494574774e-05,"train",420.0,"2021-12-01 13:10:57.712308","","","","","","",""
0.0,0.09564073383808136,8.353217874188293e-05,"train",440.0,"2021-12-01 13:11:01.772143","","","","","","",""
0.0,0.13214269280433655,8.38603635228035e-05,"train",460.0,"2021-12-01 13:11:05.355290","","","","","","",""
0.0,0.11934926360845566,8.420309429575212e-05,"train",480.0,"2021-12-01 13:11:08.917430","","","","","","",""
0.0,0.11179640144109726,8.456036584667914e-05,"train",500.0,"2021-12-01 13:11:12.483177","","","","","","",""
0.0,0.09279968589544296,8.493217274032315e-05,"train",520.0,"2021-12-01 13:11:16.455427","","","","","","",""
0.0,0.1213635504245758,8.531850932029235e-05,"train",540.0,"2021-12-01 13:11:20.059788","","","","","","",""
0.0,0.097123883664608,8.571936970915212e-05,"train",560.0,"2021-12-01 13:11:23.655380","","","","","","",""
0.0,0.09426146745681763,8.613474780851246e-05,"train",580.0,"2021-12-01 13:11:27.617097","","","","","","",""
0.0,0.10771658271551132,8.656463729912224e-05,"train",600.0,"2021-12-01 13:11:31.195537","","","","","","",""
0.0,0.10176268219947815,8.700903164096468e-05,"train",620.0,"2021-12-01 13:11:34.782225","","","","","","",""
0.0,0.10900167375802994,8.746792407335769e-05,"train",640.0,"2021-12-01 13:11:38.795114","","","","","","",""
0.0,0.11296837776899338,8.794130761505497e-05,"train",660.0,"2021-12-01 13:11:42.409704","","","","","","",""
0.0,0.13720516860485077,8.842917506435462e-05,"train",680.0,"2021-12-01 13:11:46.006495","","","","","","",""
0.0,0.14899222552776337,8.893151899920645e-05,"train",700.0,"2021-12-01 13:11:49.971816","","","","","","",""
0.0,0.10751023888587952,8.944833177732632e-05,"train",720.0,"2021-12-01 13:11:53.568948","","","","","","",""
0.0,0.11213279515504837,8.997960553631186e-05,"train",740.0,"2021-12-01 13:11:57.190344","","","","","","",""
0.0,0.11313822865486145,9.052533219376224e-05,"train",760.0,"2021-12-01 13:12:01.196405","","","","","","",""
0.0,0.10972832143306732,9.108550344740104e-05,"train",780.0,"2021-12-01 13:12:04.743057","","","","","","",""
0.0,0.11596313118934631,9.166011077520208e-05,"train",800.0,"2021-12-01 13:12:08.422224","","","","","","",""
0.0,0.09271957725286484,9.224914543552059e-05,"train",820.0,"2021-12-01 13:12:12.412606","","","","","","",""
0.0,0.12012714892625809,9.285259846722417e-05,"train",840.0,"2021-12-01 13:12:15.952785","","","","","","",""
0.0,0.11660312861204147,9.34704606898307e-05,"train",860.0,"2021-12-01 13:12:19.515160","","","","","","",""
0.0,0.10017509758472443,9.410272270364735e-05,"train",880.0,"2021-12-01 13:12:23.107263","","","","","","",""
0.0,0.1174028143286705,9.474937488991348e-05,"train",900.0,"2021-12-01 13:12:27.076143","","","","","","",""
0.0,0.10683820396661758,9.541040741094719e-05,"train",920.0,"2021-12-01 13:12:30.642722","","","","","","",""
0.0,0.11698736250400543,9.608581021029522e-05,"train",940.0,"2021-12-01 13:12:34.244088","","","","","","",""
0.0,0.10241396725177765,9.677557301288509e-05,"train",960.0,"2021-12-01 13:12:38.183175","","","","","","",""
0.0,0.10103193670511246,9.747968532518238e-05,"train",980.0,"2021-12-01 13:12:41.728432","","","","","","",""
0.0,0.09096880257129669,9.819813643535029e-05,"train",1000.0,"2021-12-01 13:12:45.292023","","","","","","",""
0.0,0.1246647760272026,9.893091541341185e-05,"train",1020.0,"2021-12-01 13:12:49.240896","","","","","","",""
0.0,0.11738742887973785,9.967801111141644e-05,"train",1040.0,"2021-12-01 13:12:52.837179","","","","","","",""
0.0,0.1020447388291359,0.00010043941216361023,"train",1060.0,"2021-12-01 13:12:56.478153","","","","","","",""
0.0,"","","train",1074.0,"2021-12-01 13:14:40.814939",0.3633558902714109,0.30683395781133166,0.8466971123363798,0.3507570896188169,0.23555683077756007,0.22913933189680324,0.14067164935200066
0.0,"","","val",1074.0,"2021-12-01 13:15:08.249660",0.35741621245506205,0.3030667980058317,0.8379338161015816,0.3428109877932428,0.23207849647538806,0.22403150694651533,0.13763136732728026
1.0,0.09806906431913376,0.00010121510698660771,"train",1080.0,"2021-12-01 13:15:12.650231","","","","","","",""
1.0,0.12353155016899109,0.00010200508377956928,"train",1100.0,"2021-12-01 13:15:16.341853","","","","","","",""
1.0,0.1175302192568779,0.00010280933052437993,"train",1120.0,"2021-12-01 13:15:19.922389","","","","","","",""
1.0,0.09059836715459824,0.00010362783498583223,"train",1140.0,"2021-12-01 13:15:23.915775","","","","","","",""
1.0,0.11204488575458527,0.0001044605847118124,"train",1160.0,"2021-12-01 13:15:27.548005","","","","","","",""
1.0,0.10127311944961548,0.0001053075670334907,"train",1180.0,"2021-12-01 13:15:31.174608","","","","","","",""
1.0,0.09832873940467834,0.00010616876906551181,"train",1200.0,"2021-12-01 13:15:35.073279","","","","","","",""
1.0,0.10065827518701553,0.0001070441777061941,"train",1220.0,"2021-12-01 13:15:38.654084","","","","","","",""
1.0,0.11540445685386658,0.00010793377963772563,"train",1240.0,"2021-12-01 13:15:42.288120","","","","","","",""
1.0,0.09941235184669495,0.0001088375613263698,"train",1260.0,"2021-12-01 13:15:45.980968","","","","","","",""
1.0,0.10648255795240402,0.00010975550902266908,"train",1280.0,"2021-12-01 13:15:49.981001","","","","","","",""
1.0,0.11379016935825348,0.00011068760876165474,"train",1300.0,"2021-12-01 13:15:53.643860","","","","","","",""
1.0,0.1287936270236969,0.0001116338463630598,"train",1320.0,"2021-12-01 13:15:57.297639","","","","","","",""
1.0,0.09488736093044281,0.00011259420743153455,"train",1340.0,"2021-12-01 13:16:01.306836","","","","","","",""
1.0,0.07575281709432602,0.00011356867735686535,"train",1360.0,"2021-12-01 13:16:04.889611","","","","","","",""
1.0,0.09531930834054947,0.00011455724131419621,"train",1380.0,"2021-12-01 13:16:08.515939","","","","","","",""
1.0,0.09615499526262283,0.00011555988426425654,"train",1400.0,"2021-12-01 13:16:12.495578","","","","","","",""
1.0,0.08924350142478943,0.00011657659095358746,"train",1420.0,"2021-12-01 13:16:16.076804","","","","","","",""
1.0,0.09240078926086426,0.00011760734591477516,"train",1440.0,"2021-12-01 13:16:19.682435","","","","","","",""
1.0,0.09670589119195938,0.00011865213346668618,"train",1460.0,"2021-12-01 13:16:23.701842","","","","","","",""
1.0,0.09899550676345825,0.00011971093771470502,"train",1480.0,"2021-12-01 13:16:27.356136","","","","","","",""
1.0,0.1014176681637764,0.0001207837425509777,"train",1500.0,"2021-12-01 13:16:31.000625","","","","","","",""
1.0,0.08552470058202744,0.00012187053165465503,"train",1520.0,"2021-12-01 13:16:35.085725","","","","","","",""
1.0,0.0916706994175911,0.000122971288492142,"train",1540.0,"2021-12-01 13:16:38.719766","","","","","","",""
1.0,0.09595928341150284,0.00012408599631734863,"train",1560.0,"2021-12-01 13:16:42.356380","","","","","","",""
1.0,0.08642575144767761,0.00012521463817194542,"train",1580.0,"2021-12-01 13:16:46.371174","","","","","","",""
1.0,0.13144996762275696,0.00012635719688562077,"train",1600.0,"2021-12-01 13:16:49.923845","","","","","","",""
1.0,0.1074722558259964,0.00012751365507634267,"train",1620.0,"2021-12-01 13:16:53.475362","","","","","","",""
1.0,0.09094402939081192,0.0001286839951506226,"train",1640.0,"2021-12-01 13:16:57.024230","","","","","","",""
1.0,0.09986857324838638,0.00012986819930378333,"train",1660.0,"2021-12-01 13:17:01.085255","","","","","","",""
1.0,0.08509017527103424,0.00013106624952023064,"train",1680.0,"2021-12-01 13:17:04.715079","","","","","","",""
1.0,0.06664375215768814,0.00013227812757372545,"train",1700.0,"2021-12-01 13:17:08.359242","","","","","","",""
1.0,0.08407662808895111,0.00013350381502766394,"train",1720.0,"2021-12-01 13:17:12.586367","","","","","","",""
1.0,0.11433905363082886,0.00013474329323535494,"train",1740.0,"2021-12-01 13:17:16.221850","","","","","","",""
1.0,0.11227348446846008,0.0001359965433403059,"train",1760.0,"2021-12-01 13:17:19.805751","","","","","","",""
1.0,0.0947435051202774,0.00013726354627650872,"train",1780.0,"2021-12-01 13:17:23.772285","","","","","","",""
1.0,0.0867166742682457,0.00013854428276873052,"train",1800.0,"2021-12-01 13:17:27.358530","","","","","","",""
1.0,0.1004108414053917,0.00013983873333280506,"train",1820.0,"2021-12-01 13:17:30.986724","","","","","","",""
1.0,0.1104140505194664,0.00014114687827593156,"train",1840.0,"2021-12-01 13:17:34.981556","","","","","","",""
1.0,0.0788557156920433,0.00014246869769697352,"train",1860.0,"2021-12-01 13:17:38.615763","","","","","","",""
1.0,0.10687946528196335,0.00014380417148676054,"train",1880.0,"2021-12-01 13:17:42.250733","","","","","","",""
1.0,0.10341531038284302,0.00014515327932839404,"train",1900.0,"2021-12-01 13:17:46.397353","","","","","","",""
1.0,0.09224854409694672,0.0001465160006975598,"train",1920.0,"2021-12-01 13:17:50.012110","","","","","","",""
1.0,0.12220372259616852,0.00014789231486283454,"train",1940.0,"2021-12-01 13:17:53.530210","","","","","","",""
1.0,0.07542635500431061,0.00014928220088600633,"train",1960.0,"2021-12-01 13:17:57.499367","","","","","","",""
1.0,0.100211001932621,0.00015068563762239045,"train",1980.0,"2021-12-01 13:18:01.075647","","","","","","",""
1.0,0.11781046539545059,0.00015210260372115238,"train",2000.0,"2021-12-01 13:18:04.740526","","","","","","",""
1.0,0.09955991804599762,0.00015353307762563115,"train",2020.0,"2021-12-01 13:18:08.748488","","","","","","",""
1.0,0.08243515342473984,0.00015497703757366872,"train",2040.0,"2021-12-01 13:18:12.273766","","","","","","",""
1.0,0.09622989594936371,0.00015643446159794,"train",2060.0,"2021-12-01 13:18:15.788913","","","","","","",""
1.0,0.11467920243740082,0.0001579053275262887,"train",2080.0,"2021-12-01 13:18:19.399271","","","","","","",""
1.0,0.09443825483322144,0.00015938961298206183,"train",2100.0,"2021-12-01 13:18:23.463576","","","","","","",""
1.0,0.11110767722129822,0.00016088729538445297,"train",2120.0,"2021-12-01 13:18:26.952217","","","","","","",""
1.0,0.09430018067359924,0.000162398351948844,"train",2140.0,"2021-12-01 13:18:30.432524","","","","","","",""
1.0,"","","train",2148.0,"2021-12-01 13:20:12.839116",0.40697082150913194,0.3850531926696524,0.8904505131214677,0.42276734173814046,0.3012544229141769,0.2939357674820592,0.18332358728212494
1.0,"","","val",2148.0,"2021-12-01 13:20:43.155408",0.4016583555607097,0.3715932285022935,0.8782604107923818,0.41165486029830634,0.2919284376475677,0.2829800188912753,0.17445194886768448
2.0,0.08962148427963257,0.00016392275968715297,"train",2160.0,"2021-12-01 13:20:48.616365","","","","","","",""
2.0,0.07605396211147308,0.00016546049540818223,"train",2180.0,"2021-12-01 13:20:52.168964","","","","","","",""
2.0,0.1045944020152092,0.00016701153571797313,"train",2200.0,"2021-12-01 13:20:55.663550","","","","","","",""
2.0,0.09507649391889572,0.00016857585702016015,"train",2220.0,"2021-12-01 13:20:59.805765","","","","","","",""
2.0,0.12736912071704865,0.00017015343551633126,"train",2240.0,"2021-12-01 13:21:03.350518","","","","","","",""
2.0,0.087176114320755,0.0001717442472063892,"train",2260.0,"2021-12-01 13:21:06.882939","","","","","","",""
2.0,0.08896444737911224,0.00017334826788891681,"train",2280.0,"2021-12-01 13:21:11.018133","","","","","","",""
2.0,0.09480149298906326,0.00017496547316154555,"train",2300.0,"2021-12-01 13:21:14.646255","","","","","","",""
2.0,0.11038852483034134,0.00017659583842132573,"train",2320.0,"2021-12-01 13:21:18.216276","","","","","","",""
2.0,0.10264807939529419,0.00017823933886510217,"train",2340.0,"2021-12-01 13:21:22.197906","","","","","","",""
2.0,0.08136682957410812,0.00017989594948989015,"train",2360.0,"2021-12-01 13:21:25.682527","","","","","","",""
2.0,0.08770579844713211,0.00018156564509325753,"train",2380.0,"2021-12-01 13:21:29.245345","","","","","","",""
2.0,0.092399001121521,0.0001832484002737059,"train",2400.0,"2021-12-01 13:21:33.379562","","","","","","",""
2.0,0.08228447288274765,0.00018494418943105877,"train",2420.0,"2021-12-01 13:21:37.010847","","","","","","",""
2.0,0.08191592991352081,0.00018665298676685078,"train",2440.0,"2021-12-01 13:21:40.653142","","","","","","",""
2.0,0.10014460980892181,0.0001883747662847191,"train",2460.0,"2021-12-01 13:21:44.299488","","","","","","",""
2.0,0.0895814597606659,0.00019010950179080112,"train",2480.0,"2021-12-01 13:21:48.486036","","","","","","",""
2.0,0.09955611824989319,0.00019185716689412995,"train",2500.0,"2021-12-01 13:21:52.120166","","","","","","",""
2.0,0.09306728094816208,0.00019361773500703797,"train",2520.0,"2021-12-01 13:21:55.798541","","","","","","",""
2.0,0.08003871887922287,0.00019539117934556168,"train",2540.0,"2021-12-01 13:21:59.937937","","","","","","",""
2.0,0.09965180605649948,0.00019717747292984696,"train",2560.0,"2021-12-01 13:22:03.565949","","","","","","",""
2.0,0.1019558385014534,0.0001989765885845624,"train",2580.0,"2021-12-01 13:22:07.339909","","","","","","",""
2.0,0.09949523210525513,0.00020078849893931014,"train",2600.0,"2021-12-01 13:22:11.494895","","","","","","",""
2.0,0.11634621769189835,0.0002026131764290434,"train",2620.0,"2021-12-01 13:22:15.115437","","","","","","",""
2.0,0.10139589756727219,0.00020445059329448614,"train",2640.0,"2021-12-01 13:22:18.622131","","","","","","",""
2.0,0.07674837112426758,0.00020630072158255497,"train",2660.0,"2021-12-01 13:22:22.660827","","","","","","",""
2.0,0.09807425737380981,0.00020816353314678467,"train",2680.0,"2021-12-01 13:22:26.074940","","","","","","",""
2.0,0.08800811320543289,0.00021003899964775505,"train",2700.0,"2021-12-01 13:22:29.504982","","","","","","",""
2.0,0.09401125460863113,0.00021192709255352473,"train",2720.0,"2021-12-01 13:22:33.491371","","","","","","",""
2.0,0.07009562104940414,0.00021382778314006255,"train",2740.0,"2021-12-01 13:22:36.965752","","","","","","",""
2.0,0.09998307377099991,0.00021574104249168615,"train",2760.0,"2021-12-01 13:22:40.574494","","","","","","",""
2.0,0.11979268491268158,0.00021766684150150133,"train",2780.0,"2021-12-01 13:22:44.756538","","","","","","",""
2.0,0.09405238181352615,0.00021960515087184485,"train",2800.0,"2021-12-01 13:22:48.378567","","","","","","",""
2.0,0.11700905859470367,0.00022155594111472978,"train",2820.0,"2021-12-01 13:22:51.989546","","","","","","",""
2.0,0.10342592746019363,0.0002235191825522959,"train",2840.0,"2021-12-01 13:22:55.585659","","","","","","",""
2.0,0.07982321828603745,0.00022549484531725838,"train",2860.0,"2021-12-01 13:22:59.688203","","","","","","",""
2.0,0.07090587168931961,0.00022748289935336434,"train",2880.0,"2021-12-01 13:23:03.288529","","","","","","",""
2.0,0.0747000202536583,0.00022948331441584964,"train",2900.0,"2021-12-01 13:23:06.832198","","","","","","",""
2.0,0.08243659138679504,0.00023149606007189785,"train",2920.0,"2021-12-01 13:23:10.804384","","","","","","",""
2.0,0.08841703832149506,0.00023352110570110476,"train",2940.0,"2021-12-01 13:23:14.284132","","","","","","",""
2.0,0.10008201748132706,0.00023555842049594305,"train",2960.0,"2021-12-01 13:23:17.866251","","","","","","",""
2.0,0.10267525911331177,0.00023760797346223305,"train",2980.0,"2021-12-01 13:23:21.922741","","","","","","",""
2.0,0.07387243211269379,0.00023966973341961028,"train",3000.0,"2021-12-01 13:23:25.485406","","","","","","",""
2.0,0.09217995405197144,0.0002417436690020044,"train",3020.0,"2021-12-01 13:23:29.061016","","","","","","",""
2.0,0.09128191322088242,0.00024382974865811325,"train",3040.0,"2021-12-01 13:23:33.101450","","","","","","",""
2.0,0.09382551163434982,0.000245927940651884,"train",3060.0,"2021-12-01 13:23:36.717924","","","","","","",""
2.0,0.07286658138036728,0.0002480382130629953,"train",3080.0,"2021-12-01 13:23:40.347092","","","","","","",""
2.0,0.07747248560190201,0.0002501605337873443,"train",3100.0,"2021-12-01 13:23:44.474744","","","","","","",""
2.0,0.10240022093057632,0.0002522948705375337,"train",3120.0,"2021-12-01 13:23:48.043506","","","","","","",""
2.0,0.09229186922311783,0.00025444119084336303,"train",3140.0,"2021-12-01 13:23:51.610728","","","","","","",""
2.0,0.07160033285617828,0.00025659946205232364,"train",3160.0,"2021-12-01 13:23:55.748195","","","","","","",""
2.0,0.10523706674575806,0.0002587696513300941,"train",3180.0,"2021-12-01 13:23:59.372085","","","","","","",""
2.0,0.07439883798360825,0.0002609517256610412,"train",3200.0,"2021-12-01 13:24:03.001047","","","","","","",""
2.0,0.09149711579084396,0.00026314565184872084,"train",3220.0,"2021-12-01 13:24:06.526916","","","","","","",""
2.0,"","","train",3222.0,"2021-12-01 13:25:48.331062",0.44822818889616534,0.44931847117114887,0.9201573910361438,0.519472406862662,0.3656806955161602,0.35754266355877373,0.23092799276563775
2.0,"","","val",3222.0,"2021-12-01 13:26:18.898222",0.4471181723298156,0.4259710215130914,0.9096628802594819,0.5107844146377307,0.3547783774196847,0.3430661829561306,0.2220032615102194
3.0,0.08242865651845932,0.0002653513965163838,"train",3240.0,"2021-12-01 13:26:25.769886","","","","","","",""
3.0,0.08019944280385971,0.0002675689261074836,"train",3260.0,"2021-12-01 13:26:29.402517","","","","","","",""
3.0,0.1124267652630806,0.00026979820688618605,"train",3280.0,"2021-12-01 13:26:33.002370","","","","","","",""
3.0,0.0769321545958519,0.00027203920493788433,"train",3300.0,"2021-12-01 13:26:37.076686","","","","","","",""
3.0,0.07949310541152954,0.00027429188616971277,"train",3320.0,"2021-12-01 13:26:40.651502","","","","","","",""
3.0,0.09407313168048859,0.0002765562163110668,"train",3340.0,"2021-12-01 13:26:44.239789","","","","","","",""
3.0,0.09001997858285904,0.00027883216091412503,"train",3360.0,"2021-12-01 13:26:48.271019","","","","","","",""
3.0,0.10043329745531082,0.0002811196853543707,"train",3380.0,"2021-12-01 13:26:51.926362","","","","","","",""
3.0,0.08185195177793503,0.00028341875483112134,"train",3400.0,"2021-12-01 13:26:55.560596","","","","","","",""
3.0,0.08231595903635025,0.00028572933436805644,"train",3420.0,"2021-12-01 13:26:59.598859","","","","","","",""
3.0,0.0825253278017044,0.0002880513888137504,"train",3440.0,"2021-12-01 13:27:03.249654","","","","","","",""
3.0,0.10898229479789734,0.0002903848828422063,"train",3460.0,"2021-12-01 13:27:06.868727","","","","","","",""
3.0,0.09853585064411163,0.00029272978095339465,"train",3480.0,"2021-12-01 13:27:10.864567","","","","","","",""
3.0,0.07701215893030167,0.00029508604747379243,"train",3500.0,"2021-12-01 13:27:14.531677","","","","","","",""
3.0,0.11867336928844452,0.00029745364655692653,"train",3520.0,"2021-12-01 13:27:18.192790","","","","","","",""
3.0,0.07883232831954956,0.0002998325421839181,"train",3540.0,"2021-12-01 13:27:22.350213","","","","","","",""
3.0,0.07610882073640823,0.0003022226981640318,"train",3560.0,"2021-12-01 13:27:26.005476","","","","","","",""
3.0,0.08363007009029388,0.00030462407813522494,"train",3580.0,"2021-12-01 13:27:29.671157","","","","","","",""
3.0,0.08251916617155075,0.0003070366455647027,"train",3600.0,"2021-12-01 13:27:33.711139","","","","","","",""
3.0,0.08886642754077911,0.000309460363749471,"train",3620.0,"2021-12-01 13:27:37.373349","","","","","","",""
3.0,0.0911472886800766,0.0003118951958168978,"train",3640.0,"2021-12-01 13:27:41.126174","","","","","","",""
3.0,0.06703538447618484,0.0003143411047252722,"train",3660.0,"2021-12-01 13:27:44.735766","","","","","","",""
3.0,0.08659092336893082,0.0003167980532643691,"train",3680.0,"2021-12-01 13:27:48.740229","","","","","","",""
3.0,0.09350544214248657,0.0003192660040560141,"train",3700.0,"2021-12-01 13:27:52.317058","","","","","","",""
3.0,0.08877074718475342,0.0003217449195546528,"train",3720.0,"2021-12-01 13:27:55.872293","","","","","","",""
3.0,0.0978459045290947,0.00032423476204792244,"train",3740.0,"2021-12-01 13:27:59.804891","","","","","","",""
3.0,0.07776796072721481,0.0003267354936572248,"train",3760.0,"2021-12-01 13:28:03.394577","","","","","","",""
3.0,0.11502514034509659,0.0003292470763383026,"train",3780.0,"2021-12-01 13:28:06.967406","","","","","","",""
3.0,0.06658820062875748,0.0003317694718818192,"train",3800.0,"2021-12-01 13:28:10.986478","","","","","","",""
3.0,0.07570707052946091,0.00033430264191393853,"train",3820.0,"2021-12-01 13:28:14.741123","","","","","","",""
3.0,0.09387020021677017,0.0003368465478969097,"train",3840.0,"2021-12-01 13:28:18.416506","","","","","","",""
3.0,0.10036414861679077,0.0003394011511296533,"train",3860.0,"2021-12-01 13:28:22.447188","","","","","","",""
3.0,0.09986644238233566,0.0003419664127483496,"train",3880.0,"2021-12-01 13:28:26.097416","","","","","","",""
3.0,0.0776202455163002,0.00034454229372703074,"train",3900.0,"2021-12-01 13:28:29.743869","","","","","","",""
3.0,0.07386069744825363,0.00034712875487817314,"train",3920.0,"2021-12-01 13:28:33.965183","","","","","","",""
3.0,0.08265569061040878,0.00034972575685329526,"train",3940.0,"2021-12-01 13:28:37.582163","","","","","","",""
3.0,0.08881250023841858,0.0003523332601435541,"train",3960.0,"2021-12-01 13:28:41.212313","","","","","","",""
3.0,0.08620117604732513,0.00035495122508034916,"train",3980.0,"2021-12-01 13:28:45.348954","","","","","","",""
3.0,0.0785086378455162,0.0003575796118359231,"train",4000.0,"2021-12-01 13:28:48.988810","","","","","","",""
3.0,0.09137429296970367,0.00036021838042396906,"train",4020.0,"2021-12-01 13:28:52.687161","","","","","","",""
3.0,0.07964759320020676,0.0003628674907002389,"train",4040.0,"2021-12-01 13:28:56.326048","","","","","","",""
3.0,0.06920063495635986,0.00036552690236315395,"train",4060.0,"2021-12-01 13:29:00.333411","","","","","","",""
3.0,0.07408533990383148,0.00036819657495441773,"train",4080.0,"2021-12-01 13:29:03.917563","","","","","","",""
3.0,0.0950787216424942,0.0003708764678596317,"train",4100.0,"2021-12-01 13:29:07.534472","","","","","","",""
3.0,0.08608304709196091,0.00037356654030891293,"train",4120.0,"2021-12-01 13:29:11.540118","","","","","","",""
3.0,0.0821409597992897,0.0003762667513775148,"train",4140.0,"2021-12-01 13:29:15.175963","","","","","","",""
3.0,0.09345569461584091,0.0003789770599864498,"train",4160.0,"2021-12-01 13:29:18.818288","","","","","","",""
3.0,0.09026878327131271,0.000381697424903113,"train",4180.0,"2021-12-01 13:29:22.921260","","","","","","",""
3.0,0.10173910111188889,0.0003844278047419108,"train",4200.0,"2021-12-01 13:29:26.592570","","","","","","",""
3.0,0.06913837045431137,0.0003871681579648903,"train",4220.0,"2021-12-01 13:29:30.148292","","","","","","",""
3.0,0.07900676876306534,0.0003899184428823709,"train",4240.0,"2021-12-01 13:29:34.162864","","","","","","",""
3.0,0.10696233063936234,0.0003926786176535783,"train",4260.0,"2021-12-01 13:29:37.791410","","","","","","",""
3.0,0.10084588825702667,0.0003954486402872818,"train",4280.0,"2021-12-01 13:29:41.407186","","","","","","",""
3.0,"","","train",4296.0,"2021-12-01 13:31:27.572164",0.5134541220985229,0.4998883534944008,0.9351357051262732,0.5528340965941528,0.4055795467193291,0.4072864040900714,0.2655177954380718
3.0,"","","val",4296.0,"2021-12-01 13:31:58.510022",0.5012176736634582,0.4707499225678602,0.9226446728844753,0.5347059568401806,0.39444292037229867,0.3923651746476616,0.25306105492183667
4.0,0.07828271389007568,0.0003982284686424324,"train",4300.0,"2021-12-01 13:32:03.110694","","","","","","",""
4.0,0.0924358144402504,0.0004010180604288045,"train",4320.0,"2021-12-01 13:32:06.727607","","","","","","",""
4.0,0.06719401478767395,0.00040381737320763873,"train",4340.0,"2021-12-01 13:32:10.244037","","","","","","",""
4.0,0.08120007067918777,0.0004066263643922878,"train",4360.0,"2021-12-01 13:32:14.169202","","","","","","",""
4.0,0.09314438700675964,0.0004094449912488646,"train",4380.0,"2021-12-01 13:32:17.648871","","","","","","",""
4.0,0.07967505604028702,0.0004122732108968923,"train",4400.0,"2021-12-01 13:32:21.259193","","","","","","",""
4.0,0.084708072245121,0.0004151109803099558,"train",4420.0,"2021-12-01 13:32:25.468041","","","","","","",""
4.0,0.10785442590713501,0.00041795825631635764,"train",4440.0,"2021-12-01 13:32:29.122704","","","","","","",""
4.0,0.11774741113185883,0.0004208149955997739,"train",4460.0,"2021-12-01 13:32:32.787989","","","","","","",""
4.0,0.09605597704648972,0.0004236811546999141,"train",4480.0,"2021-12-01 13:32:36.464822","","","","","","",""
4.0,0.08399255573749542,0.0004265566900131805,"train",4500.0,"2021-12-01 13:32:40.587402","","","","","","",""
4.0,0.07273045182228088,0.0004294415577933337,"train",4520.0,"2021-12-01 13:32:44.153315","","","","","","",""
4.0,0.06907694786787033,0.00043233571415215717,"train",4540.0,"2021-12-01 13:32:47.641153","","","","","","",""
4.0,0.08382516354322433,0.0004352391150601242,"train",4560.0,"2021-12-01 13:32:51.546697","","","","","","",""
4.0,0.09937205910682678,0.0004381517163470684,"train",4580.0,"2021-12-01 13:32:55.149354","","","","","","",""
4.0,0.06411288678646088,0.00044107347370285683,"train",4600.0,"2021-12-01 13:32:58.788229","","","","","","",""
4.0,0.08041222393512726,0.00044400434267806194,"train",4620.0,"2021-12-01 13:33:02.794858","","","","","","",""
4.0,0.0912315845489502,0.00044694427868463907,"train",4640.0,"2021-12-01 13:33:06.426709","","","","","","",""
4.0,0.06343043595552444,0.00044989323699660467,"train",4660.0,"2021-12-01 13:33:09.969678","","","","","","",""
4.0,0.07523525506258011,0.0004528511727507165,"train",4680.0,"2021-12-01 13:33:13.892477","","","","","","",""
4.0,0.07992549985647202,0.00045581804094715645,"train",4700.0,"2021-12-01 13:33:17.457713","","","","","","",""
4.0,0.09908144921064377,0.00045879379645021425,"train",4720.0,"2021-12-01 13:33:21.047101","","","","","","",""
4.0,0.10055515915155411,0.0004617783939889759,"train",4740.0,"2021-12-01 13:33:25.095886","","","","","","",""
4.0,0.0968666821718216,0.0004647717881580103,"train",4760.0,"2021-12-01 13:33:28.761238","","","","","","",""
4.0,0.08269771188497543,0.0004677739334180617,"train",4780.0,"2021-12-01 13:33:32.426106","","","","","","",""
4.0,0.10106714069843292,0.00047078478409674144,"train",4800.0,"2021-12-01 13:33:36.491067","","","","","","",""
4.0,0.07504957169294357,0.00047380429438922305,"train",4820.0,"2021-12-01 13:33:40.217482","","","","","","",""
4.0,0.07295947521924973,0.00047683241835893946,"train",4840.0,"2021-12-01 13:33:43.821428","","","","","","",""
4.0,0.06758159399032593,0.0004798691099382815,"train",4860.0,"2021-12-01 13:33:47.376761","","","","","","",""
4.0,0.08707986027002335,0.0004829143229292986,"train",4880.0,"2021-12-01 13:33:51.313203","","","","","","",""
4.0,0.062425605952739716,0.0004859680110044023,"train",4900.0,"2021-12-01 13:33:54.913191","","","","","","",""
4.0,0.05517793074250221,0.0004890301277070699,"train",4920.0,"2021-12-01 13:33:58.490270","","","","","","",""
4.0,0.05917947366833687,0.0004921006264525525,"train",4940.0,"2021-12-01 13:34:02.436148","","","","","","",""
4.0,0.08538302779197693,0.0004951794605285824,"train",4960.0,"2021-12-01 13:34:06.004156","","","","","","",""
4.0,0.08851253241300583,0.0004982665830960853,"train",4980.0,"2021-12-01 13:34:09.561750","","","","","","",""
4.0,0.09374866634607315,0.0005013619471898913,"train",5000.0,"2021-12-01 13:34:13.675258","","","","","","",""
4.0,0.07157257944345474,0.0005044655057194504,"train",5020.0,"2021-12-01 13:34:17.284267","","","","","","",""
4.0,0.08598159998655319,0.0005075772114695486,"train",5040.0,"2021-12-01 13:34:20.905149","","","","","","",""
4.0,0.08471997082233429,0.0005106970171010257,"train",5060.0,"2021-12-01 13:34:24.992769","","","","","","",""
4.0,0.07851570099592209,0.0005138248751514966,"train",5080.0,"2021-12-01 13:34:28.570416","","","","","","",""
4.0,0.09827446937561035,0.0005169607380360731,"train",5100.0,"2021-12-01 13:34:32.159870","","","","","","",""
4.0,0.07175092399120331,0.000520104558048086,"train",5120.0,"2021-12-01 13:34:36.133083","","","","","","",""
4.0,0.08201973885297775,0.0005232562873598136,"train",5140.0,"2021-12-01 13:34:39.736207","","","","","","",""
4.0,0.07991509884595871,0.0005264158780232072,"train",5160.0,"2021-12-01 13:34:43.334291","","","","","","",""
4.0,0.06552331149578094,0.0005295832819706228,"train",5180.0,"2021-12-01 13:34:47.321425","","","","","","",""
4.0,0.07335914671421051,0.0005327584510155488,"train",5200.0,"2021-12-01 13:34:50.933888","","","","","","",""
4.0,0.0749116986989975,0.000535941336853343,"train",5220.0,"2021-12-01 13:34:54.520018","","","","","","",""
4.0,0.07607618719339371,0.0005391318910619655,"train",5240.0,"2021-12-01 13:34:58.125536","","","","","","",""
4.0,0.0796039029955864,0.0005423300651027144,"train",5260.0,"2021-12-01 13:35:02.191265","","","","","","",""
4.0,0.08592123538255692,0.0005455358103209663,"train",5280.0,"2021-12-01 13:35:05.866724","","","","","","",""
4.0,0.11751090735197067,0.0005487490779469157,"train",5300.0,"2021-12-01 13:35:09.520285","","","","","","",""
4.0,0.06796742975711823,0.000551969819096316,"train",5320.0,"2021-12-01 13:35:13.518633","","","","","","",""
4.0,0.07358948141336441,0.0005551979847712252,"train",5340.0,"2021-12-01 13:35:17.112520","","","","","","",""
4.0,0.08450163900852203,0.0005584335258607489,"train",5360.0,"2021-12-01 13:35:20.695835","","","","","","",""
4.0,"","","train",5370.0,"2021-12-01 13:37:03.190701",0.5230881175871352,0.5421782213945519,0.9435620193177492,0.580865160050651,0.4471131749369607,0.44877658371475965,0.29232835478914526
4.0,"","","val",5370.0,"2021-12-01 13:37:30.911798",0.5133944102980401,0.507476786265296,0.9308445176913985,0.5605797981731985,0.42592842688487337,0.42546093538298846,0.2741140379141134
5.0,0.06067762151360512,0.0005616763931417894,"train",5380.0,"2021-12-01 13:37:36.114909","","","","","","",""
5.0,0.10626471787691116,0.0005649265372797939,"train",5400.0,"2021-12-01 13:37:39.884835","","","","","","",""
5.0,0.07899370789527893,0.0005681839088295046,"train",5420.0,"2021-12-01 13:37:43.644924","","","","","","",""
5.0,0.08042365312576294,0.0005714484582357109,"train",5440.0,"2021-12-01 13:37:47.868663","","","","","","",""
5.0,0.06858772784471512,0.0005747201358340048,"train",5460.0,"2021-12-01 13:37:51.535228","","","","","","",""
5.0,0.09459349513053894,0.0005779988918515344,"train",5480.0,"2021-12-01 13:37:55.220011","","","","","","",""
5.0,0.09904196113348007,0.0005812846764077623,"train",5500.0,"2021-12-01 13:37:59.233633","","","","","","",""
5.0,0.07830668985843658,0.0005845774395152243,"train",5520.0,"2021-12-01 13:38:02.834656","","","","","","",""
5.0,0.06527832895517349,0.0005878771310802895,"train",5540.0,"2021-12-01 13:38:06.453294","","","","","","",""
5.0,0.05512966588139534,0.0005911837009039229,"train",5560.0,"2021-12-01 13:38:10.601699","","","","","","",""
5.0,0.06642591953277588,0.0005944970986824485,"train",5580.0,"2021-12-01 13:38:14.281237","","","","","","",""
5.0,0.09739714860916138,0.000597817274008315,"train",5600.0,"2021-12-01 13:38:17.909914","","","","","","",""
5.0,0.06625336408615112,0.0006011441763708635,"train",5620.0,"2021-12-01 13:38:21.952002","","","","","","",""
5.0,0.07034619152545929,0.0006044777551570929,"train",5640.0,"2021-12-01 13:38:25.668922","","","","","","",""
5.0,0.08094218373298645,0.000607817959652434,"train",5660.0,"2021-12-01 13:38:29.331694","","","","","","",""
5.0,0.0877649113535881,0.0006111647390415189,"train",5680.0,"2021-12-01 13:38:32.926860","","","","","","",""
5.0,0.08625643700361252,0.0006145180424089525,"train",5700.0,"2021-12-01 13:38:36.887672","","","","","","",""
5.0,0.1075429767370224,0.0006178778187400902,"train",5720.0,"2021-12-01 13:38:40.428368","","","","","","",""
5.0,0.08397753536701202,0.0006212440169218129,"train",5740.0,"2021-12-01 13:38:44.003904","","","","","","",""
5.0,0.0821414589881897,0.0006246165857433027,"train",5760.0,"2021-12-01 13:38:47.998511","","","","","","",""
5.0,0.06664939224720001,0.0006279954738968251,"train",5780.0,"2021-12-01 13:38:51.545512","","","","","","",""
5.0,0.07356924563646317,0.0006313806299785075,"train",5800.0,"2021-12-01 13:38:55.068739","","","","","","",""
5.0,0.06368285417556763,0.0006347720024891209,"train",5820.0,"2021-12-01 13:38:59.036216","","","","","","",""
5.0,0.1016649603843689,0.0006381695398348657,"train",5840.0,"2021-12-01 13:39:02.628336","","","","","","",""
5.0,0.0953153520822525,0.0006415731903281542,"train",5860.0,"2021-12-01 13:39:06.225603","","","","","","",""
5.0,0.06690774112939835,0.0006449829021883979,"train",5880.0,"2021-12-01 13:39:10.272094","","","","","","",""
5.0,0.061908211559057236,0.0006483986235427956,"train",5900.0,"2021-12-01 13:39:13.893682","","","","","","",""
5.0,0.06514507532119751,0.0006518203024271213,"train",5920.0,"2021-12-01 13:39:17.520252","","","","","","",""
5.0,0.11067036539316177,0.0006552478867865169,"train",5940.0,"2021-12-01 13:39:21.506326","","","","","","",""
5.0,0.06297443807125092,0.0006586813244762815,"train",5960.0,"2021-12-01 13:39:25.012521","","","","","","",""
5.0,0.09683370590209961,0.0006621205632626672,"train",5980.0,"2021-12-01 13:39:28.478905","","","","","","",""
5.0,0.08013850450515747,0.0006655655508236717,"train",6000.0,"2021-12-01 13:39:32.347062","","","","","","",""
5.0,0.09396762400865555,0.0006690162347498356,"train",6020.0,"2021-12-01 13:39:35.906598","","","","","","",""
5.0,0.09613758325576782,0.0006724725625450389,"train",6040.0,"2021-12-01 13:39:39.551452","","","","","","",""
5.0,0.07090327143669128,0.0006759344816273003,"train",6060.0,"2021-12-01 13:39:43.194331","","","","","","",""
5.0,0.10418573021888733,0.0006794019393295771,"train",6080.0,"2021-12-01 13:39:47.227000","","","","","","",""
5.0,0.057050492614507675,0.0006828748829005654,"train",6100.0,"2021-12-01 13:39:50.822744","","","","","","",""
5.0,0.06561392545700073,0.0006863532595055041,"train",6120.0,"2021-12-01 13:39:54.411115","","","","","","",""
5.0,0.08702683448791504,0.0006898370162269777,"train",6140.0,"2021-12-01 13:39:58.363836","","","","","","",""
5.0,0.06307374686002731,0.0006933261000657217,"train",6160.0,"2021-12-01 13:40:01.904330","","","","","","",""
5.0,0.07717359066009521,0.000696820457941429,"train",6180.0,"2021-12-01 13:40:05.420962","","","","","","",""
5.0,0.06453816592693329,0.000700320036693557,"train",6200.0,"2021-12-01 13:40:09.330337","","","","","","",""
5.0,0.08245836943387985,0.0007038247830821358,"train",6220.0,"2021-12-01 13:40:12.904358","","","","","","",""
5.0,0.05979791283607483,0.0007073346437885815,"train",6240.0,"2021-12-01 13:40:16.469963","","","","","","",""
5.0,0.07033341377973557,0.000710849565416502,"train",6260.0,"2021-12-01 13:40:20.460576","","","","","","",""
5.0,0.08228639513254166,0.0007143694944925134,"train",6280.0,"2021-12-01 13:40:24.106868","","","","","","",""
5.0,0.0904860645532608,0.0007178943774670524,"train",6300.0,"2021-12-01 13:40:27.731070","","","","","","",""
5.0,0.058697570115327835,0.0007214241607151901,"train",6320.0,"2021-12-01 13:40:31.797339","","","","","","",""
5.0,0.09123571217060089,0.000724958790537449,"train",6340.0,"2021-12-01 13:40:35.449564","","","","","","",""
5.0,0.07270059734582901,0.0007284982131606195,"train",6360.0,"2021-12-01 13:40:39.159598","","","","","","",""
5.0,0.05985721945762634,0.0007320423747385781,"train",6380.0,"2021-12-01 13:40:43.264660","","","","","","",""
5.0,0.07533744722604752,0.0007355912213531054,"train",6400.0,"2021-12-01 13:40:46.923886","","","","","","",""
5.0,0.06968019902706146,0.000739144699014708,"train",6420.0,"2021-12-01 13:40:50.598737","","","","","","",""
5.0,0.06113378703594208,0.0007427027536634401,"train",6440.0,"2021-12-01 13:40:54.213294","","","","","","",""
5.0,"","","train",6444.0,"2021-12-01 13:42:37.290956",0.5493705886633196,0.5647514847816851,0.9496899393400761,0.6001183215750528,0.4502677620020243,0.4644876143476933,0.29766834930323083
5.0,"","","val",6444.0,"2021-12-01 13:43:04.997196",0.5365302099037458,0.5257986552449231,0.936016917104437,0.5773460490224853,0.431329852092426,0.43976874842512126,0.2788154782096355
6.0,0.0856950581073761,0.0007462653311697235,"train",6460.0,"2021-12-01 13:43:11.369686","","","","","","",""
6.0,0.06555365771055222,0.0007498323773351733,"train",6480.0,"2021-12-01 13:43:15.019734","","","","","","",""
6.0,0.0645311027765274,0.0007534038378934223,"train",6500.0,"2021-12-01 13:43:18.564936","","","","","","",""
6.0,0.05417754873633385,0.0007569796585109453,"train",6520.0,"2021-12-01 13:43:22.594845","","","","","","",""
6.0,0.0672888532280922,0.0007605597847878862,"train",6540.0,"2021-12-01 13:43:26.151941","","","","","","",""
6.0,0.08926531672477722,0.0007641441622588871,"train",6560.0,"2021-12-01 13:43:29.670577","","","","","","",""
6.0,0.08406390249729156,0.0007677327363939143,"train",6580.0,"2021-12-01 13:43:33.579398","","","","","","",""
6.0,0.061030223965644836,0.0007713254525990895,"train",6600.0,"2021-12-01 13:43:37.096957","","","","","","",""
6.0,0.07207897305488586,0.0007749222562175211,"train",6620.0,"2021-12-01 13:43:40.604863","","","","","","",""
6.0,0.08009731024503708,0.000778523092530133,"train",6640.0,"2021-12-01 13:43:44.553608","","","","","","",""
6.0,0.0623798593878746,0.0007821279067564996,"train",6660.0,"2021-12-01 13:43:48.122336","","","","","","",""
6.0,0.07215062528848648,0.0007857366440556786,"train",6680.0,"2021-12-01 13:43:51.685060","","","","","","",""
6.0,0.07807353883981705,0.0007893492495270442,"train",6700.0,"2021-12-01 13:43:55.593306","","","","","","",""
6.0,0.11007452756166458,0.0007929656682111239,"train",6720.0,"2021-12-01 13:43:59.083639","","","","","","",""
6.0,0.0744658038020134,0.0007965858450904332,"train",6740.0,"2021-12-01 13:44:02.618693","","","","","","",""
6.0,0.08680609613656998,0.000800209725090314,"train",6760.0,"2021-12-01 13:44:06.663312","","","","","","",""
6.0,0.12427304685115814,0.0008038372530797706,"train",6780.0,"2021-12-01 13:44:10.269607","","","","","","",""
6.0,0.06356460601091385,0.0008074683738723109,"train",6800.0,"2021-12-01 13:44:13.884341","","","","","","",""
6.0,0.0790523961186409,0.0008111030322267832,"train",6820.0,"2021-12-01 13:44:17.930215","","","","","","",""
6.0,0.06249401718378067,0.0008147411728482187,"train",6840.0,"2021-12-01 13:44:21.577130","","","","","","",""
6.0,0.07868293672800064,0.0008183827403886721,"train",6860.0,"2021-12-01 13:44:25.241307","","","","","","",""
6.0,0.05497027561068535,0.0008220276794480633,"train",6880.0,"2021-12-01 13:44:28.893494","","","","","","",""
6.0,0.053207386285066605,0.0008256759345750203,"train",6900.0,"2021-12-01 13:44:32.853492","","","","","","",""
6.0,0.08843057602643967,0.0008293274502677234,"train",6920.0,"2021-12-01 13:44:36.444156","","","","","","",""
6.0,0.0768422931432724,0.0008329821709747486,"train",6940.0,"2021-12-01 13:44:40.142623","","","","","","",""
6.0,0.053907208144664764,0.0008366400410959136,"train",6960.0,"2021-12-01 13:44:44.191457","","","","","","",""
6.0,0.0711006447672844,0.000840301004983123,"train",6980.0,"2021-12-01 13:44:47.782304","","","","","","",""
6.0,0.0827774852514267,0.0008439650069412147,"train",7000.0,"2021-12-01 13:44:51.429853","","","","","","",""
6.0,0.07608464360237122,0.0008476319912288095,"train",7020.0,"2021-12-01 13:44:55.447802","","","","","","",""
6.0,0.06077717989683151,0.0008513019020591544,"train",7040.0,"2021-12-01 13:44:59.080176","","","","","","",""
6.0,0.06650753319263458,0.0008549746836009771,"train",7060.0,"2021-12-01 13:45:02.720621","","","","","","",""
6.0,0.0819922685623169,0.0008586502799793306,"train",7080.0,"2021-12-01 13:45:06.707119","","","","","","",""
6.0,0.06069810688495636,0.0008623286352764453,"train",7100.0,"2021-12-01 13:45:10.370939","","","","","","",""
6.0,0.0778152272105217,0.0008660096935325802,"train",7120.0,"2021-12-01 13:45:14.021088","","","","","","",""
6.0,0.07126883417367935,0.0008696933987468731,"train",7140.0,"2021-12-01 13:45:17.952629","","","","","","",""
6.0,0.06682504713535309,0.0008733796948781924,"train",7160.0,"2021-12-01 13:45:21.490218","","","","","","",""
6.0,0.07785018533468246,0.0008770685258459915,"train",7180.0,"2021-12-01 13:45:25.038731","","","","","","",""
6.0,0.09964245557785034,0.0008807598355311595,"train",7200.0,"2021-12-01 13:45:28.915472","","","","","","",""
6.0,0.07394120842218399,0.0008844535677768764,"train",7220.0,"2021-12-01 13:45:32.429666","","","","","","",""
6.0,0.09239182621240616,0.0008881496663894681,"train",7240.0,"2021-12-01 13:45:35.952350","","","","","","",""
6.0,0.052461616694927216,0.0008918480751392592,"train",7260.0,"2021-12-01 13:45:39.496139","","","","","","",""
6.0,0.08078557252883911,0.00089554873776143,"train",7280.0,"2021-12-01 13:45:43.497900","","","","","","",""
6.0,0.08967731893062592,0.0008992515979568724,"train",7300.0,"2021-12-01 13:45:47.061938","","","","","","",""
6.0,0.07378294318914413,0.0009029565993930457,"train",7320.0,"2021-12-01 13:45:50.604408","","","","","","",""
6.0,0.07306686788797379,0.0009066636857048339,"train",7340.0,"2021-12-01 13:45:54.521654","","","","","","",""
6.0,0.09628795087337494,0.0009103728004954039,"train",7360.0,"2021-12-01 13:45:58.063836","","","","","","",""
6.0,0.06436705589294434,0.0009140838873370617,"train",7380.0,"2021-12-01 13:46:01.616828","","","","","","",""
6.0,0.05916370451450348,0.0009177968897721136,"train",7400.0,"2021-12-01 13:46:05.567527","","","","","","",""
6.0,0.07984712719917297,0.0009215117513137218,"train",7420.0,"2021-12-01 13:46:08.946336","","","","","","",""
6.0,0.07901862263679504,0.0009252284154467663,"train",7440.0,"2021-12-01 13:46:12.335130","","","","","","",""
6.0,0.08385081589221954,0.0009289468256287042,"train",7460.0,"2021-12-01 13:46:16.294159","","","","","","",""
6.0,0.055533044040203094,0.0009326669252904287,"train",7480.0,"2021-12-01 13:46:19.850202","","","","","","",""
6.0,0.05952787771821022,0.0009363886578371307,"train",7500.0,"2021-12-01 13:46:23.387238","","","","","","",""
6.0,"","","train",7518.0,"2021-12-01 13:48:08.546260",0.5734264716582987,0.6021029683927627,0.9584561031804302,0.6155541886264894,0.5038926491497965,0.5148526659904233,0.33663333506993304
6.0,"","","val",7518.0,"2021-12-01 13:48:36.320910",0.5499246202017859,0.5595103155346487,0.9460915894741773,0.5878927693577013,0.47174669172457573,0.4782904200938874,0.30658004393351335
7.0,0.05633512884378433,0.0009401119666491604,"train",7520.0,"2021-12-01 13:48:39.940089","","","","","","",""
7.0,0.056944601237773895,0.0009438367950828869,"train",7540.0,"2021-12-01 13:48:43.708801","","","","","","",""
7.0,0.0718156024813652,0.000947563086471561,"train",7560.0,"2021-12-01 13:48:47.319036","","","","","","",""
7.0,0.06683547794818878,0.0009512907841261783,"train",7580.0,"2021-12-01 13:48:51.472594","","","","","","",""
7.0,0.08010891824960709,0.0009550198313363391,"train",7600.0,"2021-12-01 13:48:55.098863","","","","","","",""
7.0,0.09198424965143204,0.0009587501713711128,"train",7620.0,"2021-12-01 13:48:58.724624","","","","","","",""
7.0,0.05828886851668358,0.0009624817474799023,"train",7640.0,"2021-12-01 13:49:02.348950","","","","","","",""
7.0,0.060815371572971344,0.0009662145028933038,"train",7660.0,"2021-12-01 13:49:06.345804","","","","","","",""
7.0,0.10401607304811478,0.0009699483808239733,"train",7680.0,"2021-12-01 13:49:09.889475","","","","","","",""
7.0,0.08854617178440094,0.0009736833244674895,"train",7700.0,"2021-12-01 13:49:13.413922","","","","","","",""
7.0,0.10550717264413834,0.0009774192770032192,"train",7720.0,"2021-12-01 13:49:17.335542","","","","","","",""
7.0,0.0641765370965004,0.0009811561815951785,"train",7740.0,"2021-12-01 13:49:20.870239","","","","","","",""
7.0,0.07430072128772736,0.0009848939813929015,"train",7760.0,"2021-12-01 13:49:24.427661","","","","","","",""
7.0,0.08912347257137299,0.0009886326195323026,"train",7780.0,"2021-12-01 13:49:28.412348","","","","","","",""
7.0,0.06878344714641571,0.0009923720391365428,"train",7800.0,"2021-12-01 13:49:31.999917","","","","","","",""
7.0,0.08369951695203781,0.000996112183316893,"train",7820.0,"2021-12-01 13:49:35.568130","","","","","","",""
7.0,0.09206198155879974,0.0009998529951736029,"train",7840.0,"2021-12-01 13:49:39.541036","","","","","","",""
7.0,0.0688958391547203,0.0010035944177967638,"train",7860.0,"2021-12-01 13:49:43.128533","","","","","","",""
7.0,0.067742720246315,0.0010073363942671744,"train",7880.0,"2021-12-01 13:49:46.692214","","","","","","",""
7.0,0.07165367901325226,0.0010110788676572094,"train",7900.0,"2021-12-01 13:49:50.626691","","","","","","",""
7.0,0.08772729337215424,0.0010148217810316822,"train",7920.0,"2021-12-01 13:49:54.173332","","","","","","",""
7.0,0.07331384718418121,0.0010185650774487127,"train",7940.0,"2021-12-01 13:49:57.786072","","","","","","",""
7.0,0.07433366775512695,0.0010223086999605951,"train",7960.0,"2021-12-01 13:50:01.808969","","","","","","",""
7.0,0.09647396951913834,0.0010260525916146609,"train",7980.0,"2021-12-01 13:50:05.472151","","","","","","",""
7.0,0.05815165489912033,0.0010297966954541469,"train",8000.0,"2021-12-01 13:50:09.203876","","","","","","",""
7.0,0.09668722748756409,0.001033540954519064,"train",8020.0,"2021-12-01 13:50:12.794019","","","","","","",""
7.0,0.07021470367908478,0.0010372853118470592,"train",8040.0,"2021-12-01 13:50:16.748040","","","","","","",""
7.0,0.09571044892072678,0.0010410297104742857,"train",8060.0,"2021-12-01 13:50:20.291356","","","","","","",""
7.0,0.06354472786188126,0.0010447740934362692,"train",8080.0,"2021-12-01 13:50:23.839236","","","","","","",""
7.0,0.06657963991165161,0.0010485184037687715,"train",8100.0,"2021-12-01 13:50:27.829999","","","","","","",""
7.0,0.06467064470052719,0.0010522625845086615,"train",8120.0,"2021-12-01 13:50:31.461953","","","","","","",""
7.0,0.07794175297021866,0.0010560065786947796,"train",8140.0,"2021-12-01 13:50:35.156542","","","","","","",""
7.0,0.05619983747601509,0.0010597503293688013,"train",8160.0,"2021-12-01 13:50:39.171884","","","","","","",""
7.0,0.06024959310889244,0.001063493779576111,"train",8180.0,"2021-12-01 13:50:42.825090","","","","","","",""
7.0,0.05329270660877228,0.0010672368723666614,"train",8200.0,"2021-12-01 13:50:46.481404","","","","","","",""
7.0,0.07621864229440689,0.0010709795507958426,"train",8220.0,"2021-12-01 13:50:50.473962","","","","","","",""
7.0,0.0909828245639801,0.0010747217579253504,"train",8240.0,"2021-12-01 13:50:54.070247","","","","","","",""
7.0,0.06541426479816437,0.0010784634368240487,"train",8260.0,"2021-12-01 13:50:57.659648","","","","","","",""
7.0,0.06927177309989929,0.0010822045305688382,"train",8280.0,"2021-12-01 13:51:01.672057","","","","","","",""
7.0,0.08770409226417542,0.0010859449822455227,"train",8300.0,"2021-12-01 13:51:05.303013","","","","","","",""
7.0,0.0418628454208374,0.001089684734949672,"train",8320.0,"2021-12-01 13:51:08.925450","","","","","","",""
7.0,0.06403323262929916,0.00109342373178749,"train",8340.0,"2021-12-01 13:51:12.897926","","","","","","",""
7.0,0.07658856362104416,0.0010971619158766821,"train",8360.0,"2021-12-01 13:51:16.467173","","","","","","",""
7.0,0.07601836323738098,0.0011008992303473152,"train",8380.0,"2021-12-01 13:51:20.083716","","","","","","",""
7.0,0.0685175284743309,0.001104635618342687,"train",8400.0,"2021-12-01 13:51:23.725309","","","","","","",""
7.0,0.06668614596128464,0.001108371023020191,"train",8420.0,"2021-12-01 13:51:27.723486","","","","","","",""
7.0,0.0658988431096077,0.0011121053875521787,"train",8440.0,"2021-12-01 13:51:31.352531","","","","","","",""
7.0,0.06121814623475075,0.0011158386551268257,"train",8460.0,"2021-12-01 13:51:34.988051","","","","","","",""
7.0,0.052573077380657196,0.0011195707689489972,"train",8480.0,"2021-12-01 13:51:38.968570","","","","","","",""
7.0,0.07863076031208038,0.0011233016722411097,"train",8500.0,"2021-12-01 13:51:42.539430","","","","","","",""
7.0,0.07847799360752106,0.0011270313082439951,"train",8520.0,"2021-12-01 13:51:46.112467","","","","","","",""
7.0,0.05425933003425598,0.001130759620217767,"train",8540.0,"2021-12-01 13:51:50.167581","","","","","","",""
7.0,0.05655250698328018,0.0011344865514426794,"train",8560.0,"2021-12-01 13:51:53.821371","","","","","","",""
7.0,0.07486505806446075,0.0011382120452199938,"train",8580.0,"2021-12-01 13:51:57.406014","","","","","","",""
7.0,"","","train",8592.0,"2021-12-01 13:53:39.839625",0.5921560066943171,0.6270786997688399,0.9618676725542351,0.6622176573814166,0.5237931818372403,0.5266085325183549,0.3486903826106448
7.0,"","","val",8592.0,"2021-12-01 13:54:11.237257",0.5718427461440334,0.5792717021443282,0.9491771145414963,0.630529315356877,0.48737059858101606,0.48927497251319185,0.3147356396630362
8.0,0.04803037270903587,0.001141936044872839,"train",8600.0,"2021-12-01 13:54:16.524533","","","","","","",""
8.0,0.062254007905721664,0.0011456584937470744,"train",8620.0,"2021-12-01 13:54:20.256277","","","","","","",""
8.0,0.07142211496829987,0.0011493793352121522,"train",8640.0,"2021-12-01 13:54:23.883751","","","","","","",""
8.0,0.10176226496696472,0.0011530985126619784,"train",8660.0,"2021-12-01 13:54:27.938909","","","","","","",""
8.0,0.06252724677324295,0.001156815969515773,"train",8680.0,"2021-12-01 13:54:31.583066","","","","","","",""
8.0,0.05813420191407204,0.001160531649218934,"train",8700.0,"2021-12-01 13:54:35.225112","","","","","","",""
8.0,0.06888395547866821,0.001164245495243894,"train",8720.0,"2021-12-01 13:54:39.251005","","","","","","",""
8.0,0.0660874992609024,0.0011679574510909817,"train",8740.0,"2021-12-01 13:54:42.896744","","","","","","",""
8.0,0.07480424642562866,0.0011716674602892828,"train",8760.0,"2021-12-01 13:54:46.532282","","","","","","",""
8.0,0.06827415525913239,0.0011753754663974968,"train",8780.0,"2021-12-01 13:54:50.145675","","","","","","",""
8.0,0.07407118380069733,0.0011790814130047968,"train",8800.0,"2021-12-01 13:54:54.189068","","","","","","",""
8.0,0.07765324413776398,0.001182785243731688,"train",8820.0,"2021-12-01 13:54:57.905098","","","","","","",""
8.0,0.06482664495706558,0.0011864869022308656,"train",8840.0,"2021-12-01 13:55:01.548385","","","","","","",""
8.0,0.11200884729623795,0.0011901863321880693,"train",8860.0,"2021-12-01 13:55:05.698234","","","","","","",""
8.0,0.05688570439815521,0.001193883477322945,"train",8880.0,"2021-12-01 13:55:09.341726","","","","","","",""
8.0,0.06564071774482727,0.0011975782813898961,"train",8900.0,"2021-12-01 13:55:12.917459","","","","","","",""
8.0,0.06210489198565483,0.0012012706881789417,"train",8920.0,"2021-12-01 13:55:16.932026","","","","","","",""
8.0,0.06931748986244202,0.001204960641516572,"train",8940.0,"2021-12-01 13:55:20.555744","","","","","","",""
8.0,0.06256715953350067,0.0012086480852666014,"train",8960.0,"2021-12-01 13:55:24.192116","","","","","","",""
8.0,0.08768657594919205,0.0012123329633310235,"train",8980.0,"2021-12-01 13:55:28.219133","","","","","","",""
8.0,0.1011725440621376,0.0012160152196508643,"train",9000.0,"2021-12-01 13:55:31.806965","","","","","","",""
8.0,0.06367205083370209,0.0012196947982070355,"train",9020.0,"2021-12-01 13:55:35.409725","","","","","","",""
8.0,0.057391323149204254,0.0012233716430211856,"train",9040.0,"2021-12-01 13:55:39.291027","","","","","","",""
8.0,0.07839646935462952,0.001227045698156553,"train",9060.0,"2021-12-01 13:55:42.765704","","","","","","",""
8.0,0.09295015782117844,0.0012307169077188148,"train",9080.0,"2021-12-01 13:55:46.278933","","","","","","",""
8.0,0.08614516258239746,0.0012343852158569401,"train",9100.0,"2021-12-01 13:55:50.191908","","","","","","",""
8.0,0.06451626867055893,0.0012380505667640377,"train",9120.0,"2021-12-01 13:55:53.769560","","","","","","",""
8.0,0.0793563723564148,0.0012417129046782046,"train",9140.0,"2021-12-01 13:55:57.382983","","","","","","",""
8.0,0.046721238642930984,0.0012453721738833758,"train",9160.0,"2021-12-01 13:56:01.014591","","","","","","",""
8.0,0.042792387306690216,0.001249028318710172,"train",9180.0,"2021-12-01 13:56:05.034462","","","","","","",""
8.0,0.0753808245062828,0.0012526812835367447,"train",9200.0,"2021-12-01 13:56:08.674668","","","","","","",""
8.0,0.0601528063416481,0.0012563310127896242,"train",9220.0,"2021-12-01 13:56:12.280534","","","","","","",""
8.0,0.09018220752477646,0.0012599774509445645,"train",9240.0,"2021-12-01 13:56:16.253763","","","","","","",""
8.0,0.0602257177233696,0.0012636205425273874,"train",9260.0,"2021-12-01 13:56:19.894171","","","","","","",""
8.0,0.05289941653609276,0.0012672602321148268,"train",9280.0,"2021-12-01 13:56:23.486478","","","","","","",""
8.0,0.05571553483605385,0.0012708964643353732,"train",9300.0,"2021-12-01 13:56:27.441078","","","","","","",""
8.0,0.06517105549573898,0.001274529183870114,"train",9320.0,"2021-12-01 13:56:31.096680","","","","","","",""
8.0,0.06856636703014374,0.0012781583354535748,"train",9340.0,"2021-12-01 13:56:34.730810","","","","","","",""
8.0,0.059943947941064835,0.0012817838638745646,"train",9360.0,"2021-12-01 13:56:38.758739","","","","","","",""
8.0,0.10459362715482712,0.001285405713977009,"train",9380.0,"2021-12-01 13:56:42.377499","","","","","","",""
8.0,0.07889330387115479,0.0012890238306607947,"train",9400.0,"2021-12-01 13:56:45.924960","","","","","","",""
8.0,0.08213364332914352,0.001292638158882606,"train",9420.0,"2021-12-01 13:56:49.812168","","","","","","",""
8.0,0.0995599552989006,0.0012962486436567603,"train",9440.0,"2021-12-01 13:56:53.314588","","","","","","",""
8.0,0.04811513423919678,0.0012998552300560484,"train",9460.0,"2021-12-01 13:56:56.801632","","","","","","",""
8.0,0.07288222759962082,0.0013034578632125668,"train",9480.0,"2021-12-01 13:57:00.606679","","","","","","",""
8.0,0.04899008944630623,0.0013070564883185534,"train",9500.0,"2021-12-01 13:57:04.032968","","","","","","",""
8.0,0.061265286058187485,0.001310651050627223,"train",9520.0,"2021-12-01 13:57:07.446732","","","","","","",""
8.0,0.0661311000585556,0.001314241495453598,"train",9540.0,"2021-12-01 13:57:10.903987","","","","","","",""
8.0,0.08759009093046188,0.00131782776817534,"train",9560.0,"2021-12-01 13:57:14.920141","","","","","","",""
8.0,0.06589406728744507,0.0013214098142335837,"train",9580.0,"2021-12-01 13:57:18.554101","","","","","","",""
8.0,0.10136440396308899,0.001324987579133764,"train",9600.0,"2021-12-01 13:57:22.167901","","","","","","",""
8.0,0.05882544070482254,0.0013285610084464463,"train",9620.0,"2021-12-01 13:57:26.182521","","","","","","",""
8.0,0.076595738530159,0.001332130047808155,"train",9640.0,"2021-12-01 13:57:29.806215","","","","","","",""
8.0,0.0767718106508255,0.001335694642922199,"train",9660.0,"2021-12-01 13:57:33.353475","","","","","","",""
8.0,"","","train",9666.0,"2021-12-01 13:59:15.198876",0.6129374954522302,0.6448929925349177,0.9647335202577744,0.6545478256706693,0.5432704364688743,0.5577074838948188,0.3687461522386953
8.0,"","","val",9666.0,"2021-12-01 13:59:42.754670",0.5829757624956512,0.5864841082060656,0.9494534015937487,0.6175264012448091,0.5040633612775913,0.5163978009901886,0.33018114311696845
9.0,0.04414430260658264,0.0013392547395594985,"train",9680.0,"2021-12-01 13:59:49.130673","","","","","","",""
9.0,0.09316661208868027,0.001342810283559412,"train",9700.0,"2021-12-01 13:59:52.753985","","","","","","",""
9.0,0.10010982304811478,0.0013463612208305564,"train",9720.0,"2021-12-01 13:59:56.345932","","","","","","",""
9.0,0.07757172733545303,0.0013499074973516321,"train",9740.0,"2021-12-01 14:00:00.247055","","","","","","",""
9.0,0.0741165429353714,0.0013534490591722464,"train",9760.0,"2021-12-01 14:00:03.725164","","","","","","",""
9.0,0.05364939942955971,0.0013569858524137305,"train",9780.0,"2021-12-01 14:00:07.406027","","","","","","",""
9.0,0.07524557411670685,0.001360517823269962,"train",9800.0,"2021-12-01 14:00:11.537554","","","","","","",""
9.0,0.05543435737490654,0.0013640449180081834,"train",9820.0,"2021-12-01 14:00:15.154725","","","","","","",""
9.0,0.09045203030109406,0.0013675670829698173,"train",9840.0,"2021-12-01 14:00:18.765451","","","","","","",""
9.0,0.06361164152622223,0.0013710842645712853,"train",9860.0,"2021-12-01 14:00:22.773474","","","","","","",""
9.0,0.04593469575047493,0.0013745964093048219,"train",9880.0,"2021-12-01 14:00:26.429458","","","","","","",""
9.0,0.06476520001888275,0.0013781034637392886,"train",9900.0,"2021-12-01 14:00:29.959216","","","","","","",""
9.0,0.045731909573078156,0.0013816053745209864,"train",9920.0,"2021-12-01 14:00:33.883614","","","","","","",""
9.0,0.08959249407052994,0.0013851020883744697,"train",9940.0,"2021-12-01 14:00:37.397863","","","","","","",""
9.0,0.06541508436203003,0.001388593552103353,"train",9960.0,"2021-12-01 14:00:40.871313","","","","","","",""
9.0,0.07441623508930206,0.0013920797125911233,"train",9980.0,"2021-12-01 14:00:44.535726","","","","","","",""
9.0,0.05493590608239174,0.001395560516801947,"train",10000.0,"2021-12-01 14:00:48.458030","","","","","","",""
9.0,0.07458557188510895,0.0013990359117814774,"train",10020.0,"2021-12-01 14:00:51.792323","","","","","","",""
9.0,0.08463737368583679,0.0014025058446576583,"train",10040.0,"2021-12-01 14:00:55.229285","","","","","","",""
9.0,0.051379699259996414,0.0014059702626415317,"train",10060.0,"2021-12-01 14:00:59.157646","","","","","","",""
9.0,0.05559779331088066,0.0014094291130280377,"train",10080.0,"2021-12-01 14:01:02.760283","","","","","","",""
9.0,0.11681349575519562,0.0014128823431968183,"train",10100.0,"2021-12-01 14:01:06.373732","","","","","","",""
9.0,0.08011185377836227,0.001416329900613017,"train",10120.0,"2021-12-01 14:01:10.334627","","","","","","",""
9.0,0.08004965633153915,0.0014197717328280782,"train",10140.0,"2021-12-01 14:01:13.835664","","","","","","",""
9.0,0.07328438758850098,0.0014232077874805457,"train",10160.0,"2021-12-01 14:01:17.319700","","","","","","",""
9.0,0.05905070900917053,0.0014266380122968589,"train",10180.0,"2021-12-01 14:01:21.203952","","","","","","",""
9.0,0.057326264679431915,0.0014300623550921468,"train",10200.0,"2021-12-01 14:01:24.797135","","","","","","",""
9.0,0.065287746489048,0.0014334807637710243,"train",10220.0,"2021-12-01 14:01:28.418598","","","","","","",""
9.0,0.09455279260873795,0.0014368931863283831,"train",10240.0,"2021-12-01 14:01:32.431184","","","","","","",""
9.0,0.09276170283555984,0.0014402995708501826,"train",10260.0,"2021-12-01 14:01:36.044394","","","","","","",""
9.0,0.07323408126831055,0.0014436998655142422,"train",10280.0,"2021-12-01 14:01:39.626885","","","","","","",""
9.0,0.05686749890446663,0.0014470940185910258,"train",10300.0,"2021-12-01 14:01:43.383642","","","","","","",""
9.0,0.0967571958899498,0.001450481978444431,"train",10320.0,"2021-12-01 14:01:46.933016","","","","","","",""
9.0,0.04536813125014305,0.0014538636935325763,"train",10340.0,"2021-12-01 14:01:50.462861","","","","","","",""
9.0,0.0836682915687561,0.0014572391124085817,"train",10360.0,"2021-12-01 14:01:54.035889","","","","","","",""
9.0,0.061418212950229645,0.0014606081837213525,"train",10380.0,"2021-12-01 14:01:57.922933","","","","","","",""
9.0,0.07726778835058212,0.0014639708562163639,"train",10400.0,"2021-12-01 14:02:01.493231","","","","","","",""
9.0,0.04631224274635315,0.001467327078736435,"train",10420.0,"2021-12-01 14:02:05.105876","","","","","","",""
9.0,0.08943262696266174,0.0014706768002225108,"train",10440.0,"2021-12-01 14:02:09.081625","","","","","","",""
9.0,0.054515257477760315,0.0014740199697144392,"train",10460.0,"2021-12-01 14:02:12.687426","","","","","","",""
9.0,0.054793037474155426,0.0014773565363517442,"train",10480.0,"2021-12-01 14:02:16.307716","","","","","","",""
9.0,0.07233815640211105,0.0014806864493744007,"train",10500.0,"2021-12-01 14:02:20.278544","","","","","","",""
9.0,0.06388696283102036,0.0014840096581236072,"train",10520.0,"2021-12-01 14:02:23.881036","","","","","","",""
9.0,0.04879080504179001,0.001487326112042556,"train",10540.0,"2021-12-01 14:02:27.425664","","","","","","",""
9.0,0.06400132924318314,0.0014906357606772013,"train",10560.0,"2021-12-01 14:02:31.354332","","","","","","",""
9.0,0.09439635276794434,0.0014939385536770291,"train",10580.0,"2021-12-01 14:02:34.934086","","","","","","",""
9.0,0.09771253913640976,0.0014972344407958218,"train",10600.0,"2021-12-01 14:02:38.497152","","","","","","",""
9.0,0.047015972435474396,0.0015005233718924213,"train",10620.0,"2021-12-01 14:02:42.427211","","","","","","",""
9.0,0.07477213442325592,0.0015038052969314946,"train",10640.0,"2021-12-01 14:02:45.950192","","","","","","",""
9.0,0.06117825582623482,0.0015070801659842939,"train",10660.0,"2021-12-01 14:02:49.495930","","","","","","",""
9.0,0.05631493031978607,0.001510347929229414,"train",10680.0,"2021-12-01 14:02:53.386261","","","","","","",""
9.0,0.04600003361701965,0.0015136085369535537,"train",10700.0,"2021-12-01 14:02:56.936190","","","","","","",""
9.0,0.07008036226034164,0.0015168619395522708,"train",10720.0,"2021-12-01 14:03:00.476962","","","","","","",""
9.0,0.04960082843899727,0.0015201080875307349,"train",10740.0,"2021-12-01 14:03:03.992508","","","","","","",""
9.0,"","","train",10740.0,"2021-12-01 14:04:45.871934",0.6007130903005167,0.6716356766382398,0.9685050243248943,0.6866206511906822,0.570408401476478,0.5858242275730147,0.3854397306413603
9.0,"","","val",10740.0,"2021-12-01 14:05:13.828462",0.5657543778267424,0.6009359414121943,0.9528600668161181,0.6443310036198436,0.5200117381302375,0.5325133582210669,0.3390616792125246
10.0,0.07875409722328186,0.0015233469315044834,"train",10760.0,"2021-12-01 14:05:21.403954","","","","","","",""
10.0,0.045665640383958817,0.0015265784222001709,"train",10780.0,"2021-12-01 14:05:24.989115","","","","","","",""
10.0,0.08496255427598953,0.0015298025104563185,"train",10800.0,"2021-12-01 14:05:28.545607","","","","","","",""
10.0,0.06416809558868408,0.001533019147224064,"train",10820.0,"2021-12-01 14:05:32.465936","","","","","","",""
10.0,0.04922214150428772,0.0015362282835679054,"train",10840.0,"2021-12-01 14:05:36.001845","","","","","","",""
10.0,0.06634267419576645,0.0015394298706664469,"train",10860.0,"2021-12-01 14:05:39.562518","","","","","","",""
10.0,0.047284699976444244,0.001542623859813141,"train",10880.0,"2021-12-01 14:05:43.482219","","","","","","",""
10.0,0.05752473324537277,0.00154581020241703,"train",10900.0,"2021-12-01 14:05:47.079143","","","","","","",""
10.0,0.09363120794296265,0.0015489888500034858,"train",10920.0,"2021-12-01 14:05:50.713491","","","","","","",""
10.0,0.08830703794956207,0.0015521597542149444,"train",10940.0,"2021-12-01 14:05:54.729902","","","","","","",""
10.0,0.0513899102807045,0.0015553228668116455,"train",10960.0,"2021-12-01 14:05:58.382471","","","","","","",""
10.0,0.10011111944913864,0.0015584781396723642,"train",10980.0,"2021-12-01 14:06:02.062073","","","","","","",""
10.0,0.053909290581941605,0.0015616255247951432,"train",11000.0,"2021-12-01 14:06:06.146921","","","","","","",""
10.0,0.07689441740512848,0.0015647649742980233,"train",11020.0,"2021-12-01 14:06:09.811721","","","","","","",""
10.0,0.10062368214130402,0.0015678964404197727,"train",11040.0,"2021-12-01 14:06:13.406519","","","","","","",""
10.0,0.04755045846104622,0.0015710198755206112,"train",11060.0,"2021-12-01 14:06:17.422622","","","","","","",""
10.0,0.09088131785392761,0.0015741352320829379,"train",11080.0,"2021-12-01 14:06:21.084196","","","","","","",""
10.0,0.053235266357660294,0.0015772424627120527,"train",11100.0,"2021-12-01 14:06:24.720110","","","","","","",""
10.0,0.056722525507211685,0.0015803415201368761,"train",11120.0,"2021-12-01 14:06:28.729600","","","","","","",""
10.0,0.08590254187583923,0.001583432357210671,"train",11140.0,"2021-12-01 14:06:32.363363","","","","","","",""
10.0,0.05238451436161995,0.001586514926911758,"train",11160.0,"2021-12-01 14:06:35.991087","","","","","","",""
10.0,0.07160984724760056,0.0015895891823442313,"train",11180.0,"2021-12-01 14:06:39.617881","","","","","","",""
10.0,0.05134139209985733,0.0015926550767386717,"train",11200.0,"2021-12-01 14:06:43.682096","","","","","","",""
10.0,0.05654103308916092,0.0015957125634528599,"train",11220.0,"2021-12-01 14:06:47.325789","","","","","","",""
10.0,0.08633624762296677,0.0015987615959724836,"train",11240.0,"2021-12-01 14:06:50.970477","","","","","","",""
10.0,0.0470181480050087,0.0016018021279118457,"train",11260.0,"2021-12-01 14:06:55.005728","","","","","","",""
10.0,0.07280558347702026,0.0016048341130145728,"train",11280.0,"2021-12-01 14:06:58.743403","","","","","","",""
10.0,0.10078190267086029,0.0016078575051543145,"train",11300.0,"2021-12-01 14:07:02.424979","","","","","","",""
10.0,0.051263291388750076,0.0016108722583354478,"train",11320.0,"2021-12-01 14:07:06.454766","","","","","","",""
10.0,0.08576106280088425,0.0016138783266937777,"train",11340.0,"2021-12-01 14:07:10.063563","","","","","","",""
10.0,0.07240201532840729,0.0016168756644972322,"train",11360.0,"2021-12-01 14:07:13.673611","","","","","","",""
10.0,0.088361456990242,0.0016198642261465587,"train",11380.0,"2021-12-01 14:07:17.648999","","","","","","",""
10.0,0.08313822746276855,0.0016228439661760208,"train",11400.0,"2021-12-01 14:07:21.243499","","","","","","",""
10.0,0.09738042205572128,0.001625814839254086,"train",11420.0,"2021-12-01 14:07:24.857382","","","","","","",""
10.0,0.09752752631902695,0.0016287768001841164,"train",11440.0,"2021-12-01 14:07:28.672714","","","","","","",""
10.0,0.05526241287589073,0.001631729803905059,"train",11460.0,"2021-12-01 14:07:32.103083","","","","","","",""
10.0,0.09033118933439255,0.0016346738054921273,"train",11480.0,"2021-12-01 14:07:35.465719","","","","","","",""
10.0,0.06046048551797867,0.001637608760157486,"train",11500.0,"2021-12-01 14:07:39.358006","","","","","","",""
10.0,0.05099052935838699,0.0016405346232509356,"train",11520.0,"2021-12-01 14:07:43.014137","","","","","","",""
10.0,0.05528343841433525,0.0016434513502605861,"train",11540.0,"2021-12-01 14:07:46.628408","","","","","","",""
10.0,0.06278830021619797,0.0016463588968135383,"train",11560.0,"2021-12-01 14:07:50.227530","","","","","","",""
10.0,0.050631117075681686,0.0016492572186765577,"train",11580.0,"2021-12-01 14:07:54.265699","","","","","","",""
10.0,0.05433347821235657,0.001652146271756747,"train",11600.0,"2021-12-01 14:07:57.935535","","","","","","",""
10.0,0.07910827547311783,0.0016550260121022172,"train",11620.0,"2021-12-01 14:08:01.610067","","","","","","",""
10.0,0.04995804652571678,0.0016578963959027562,"train",11640.0,"2021-12-01 14:08:05.671572","","","","","","",""
10.0,0.0450085885822773,0.001660757379490496,"train",11660.0,"2021-12-01 14:08:09.293064","","","","","","",""
10.0,0.04334568977355957,0.0016636089193405761,"train",11680.0,"2021-12-01 14:08:12.901155","","","","","","",""
10.0,0.06783131510019302,0.0016664509720718049,"train",11700.0,"2021-12-01 14:08:17.006141","","","","","","",""
10.0,0.06343023478984833,0.0016692834944473224,"train",11720.0,"2021-12-01 14:08:20.699568","","","","","","",""
10.0,0.09175541251897812,0.0016721064433752554,"train",11740.0,"2021-12-01 14:08:24.221623","","","","","","",""
10.0,0.07667069137096405,0.0016749197759093734,"train",11760.0,"2021-12-01 14:08:28.123406","","","","","","",""
10.0,0.05010180175304413,0.0016777234492497436,"train",11780.0,"2021-12-01 14:08:31.687319","","","","","","",""
10.0,0.06549810618162155,0.0016805174207433808,"train",11800.0,"2021-12-01 14:08:35.415881","","","","","","",""
10.0,"","","train",11814.0,"2021-12-01 14:10:20.297449",0.6234446627373936,0.6787530380358999,0.9705444442332355,0.6935990719617724,0.5844111104630466,0.5954803413993622,0.399309336803763
10.0,"","","val",11814.0,"2021-12-01 14:10:47.952870",0.5931230430244694,0.6081241730139496,0.9561444155024448,0.6525997112077357,0.5358742517164132,0.545010179372859,0.3513813422726061
11.0,0.06850931793451309,0.0016833016478848956,"train",11820.0,"2021-12-01 14:10:52.857651","","","","","","",""
11.0,0.058622244745492935,0.0016860760883171426,"train",11840.0,"2021-12-01 14:10:56.694956","","","","","","",""
11.0,0.06547117978334427,0.001688840699831864,"train",11860.0,"2021-12-01 14:11:00.571517","","","","","","",""
11.0,0.08283187448978424,0.0016915954403703313,"train",11880.0,"2021-12-01 14:11:04.561162","","","","","","",""
11.0,0.05325259640812874,0.0016943402680239862,"train",11900.0,"2021-12-01 14:11:08.186502","","","","","","",""
11.0,0.07363777607679367,0.0016970751410350774,"train",11920.0,"2021-12-01 14:11:11.771038","","","","","","",""
11.0,0.08246765285730362,0.001699800017797296,"train",11940.0,"2021-12-01 14:11:15.673592","","","","","","",""
11.0,0.07329566776752472,0.0017025148568564086,"train",11960.0,"2021-12-01 14:11:19.184108","","","","","","",""
11.0,0.05664803087711334,0.001705219616910888,"train",11980.0,"2021-12-01 14:11:22.799504","","","","","","",""
11.0,0.07889886200428009,0.001707914256812541,"train",12000.0,"2021-12-01 14:11:26.473571","","","","","","",""
11.0,0.09250738471746445,0.0017105987355671352,"train",12020.0,"2021-12-01 14:11:30.368493","","","","","","",""
11.0,0.09089654684066772,0.0017132730123350227,"train",12040.0,"2021-12-01 14:11:33.928551","","","","","","",""
11.0,0.08032793551683426,0.00171593704643176,"train",12060.0,"2021-12-01 14:11:37.771835","","","","","","",""
11.0,0.05186852440237999,0.0017185907973287285,"train",12080.0,"2021-12-01 14:11:41.734699","","","","","","",""
11.0,0.05461818724870682,0.0017212342246537506,"train",12100.0,"2021-12-01 14:11:45.259783","","","","","","",""
11.0,0.0888483002781868,0.0017238672881917032,"train",12120.0,"2021-12-01 14:11:48.803713","","","","","","",""
11.0,0.04795031249523163,0.001726489947885131,"train",12140.0,"2021-12-01 14:11:52.730134","","","","","","",""
11.0,0.076239213347435,0.0017291021638348543,"train",12160.0,"2021-12-01 14:11:56.253161","","","","","","",""
11.0,0.06545655429363251,0.0017317038963005765,"train",12180.0,"2021-12-01 14:11:59.859052","","","","","","",""
11.0,0.06332596391439438,0.00173429510570149,"train",12200.0,"2021-12-01 14:12:04.023882","","","","","","",""
11.0,0.056522663682699203,0.0017368757526168759,"train",12220.0,"2021-12-01 14:12:07.568447","","","","","","",""
11.0,0.04927097260951996,0.0017394457977867057,"train",12240.0,"2021-12-01 14:12:11.096344","","","","","","",""
11.0,0.09617066383361816,0.0017420052021122378,"train",12260.0,"2021-12-01 14:12:15.022169","","","","","","",""
11.0,0.05326041951775551,0.0017445539266566128,"train",12280.0,"2021-12-01 14:12:18.591445","","","","","","",""
11.0,0.06654435396194458,0.001747091932645445,"train",12300.0,"2021-12-01 14:12:22.249939","","","","","","",""
11.0,0.06465251743793488,0.0017496191814674125,"train",12320.0,"2021-12-01 14:12:26.566385","","","","","","",""
11.0,0.05510926619172096,0.001752135634674846,"train",12340.0,"2021-12-01 14:12:30.114417","","","","","","",""
11.0,0.06150520592927933,0.0017546412539843118,"train",12360.0,"2021-12-01 14:12:33.673674","","","","","","",""
11.0,0.06418450176715851,0.001757136001277194,"train",12380.0,"2021-12-01 14:12:37.272823","","","","","","",""
11.0,0.06869188696146011,0.001759619838600278,"train",12400.0,"2021-12-01 14:12:41.258194","","","","","","",""
11.0,0.05475323274731636,0.0017620927281663229,"train",12420.0,"2021-12-01 14:12:44.915958","","","","","","",""
11.0,0.07689002901315689,0.0017645546323546398,"train",12440.0,"2021-12-01 14:12:48.752646","","","","","","",""
11.0,0.04809631034731865,0.0017670055137116636,"train",12460.0,"2021-12-01 14:12:52.939063","","","","","","",""
11.0,0.05677022412419319,0.0017694453349515209,"train",12480.0,"2021-12-01 14:12:56.594698","","","","","","",""
11.0,0.05356450378894806,0.0017718740589566,"train",12500.0,"2021-12-01 14:13:00.238106","","","","","","",""
11.0,0.07032490521669388,0.0017742916487781134,"train",12520.0,"2021-12-01 14:13:04.266917","","","","","","",""
11.0,0.054161448031663895,0.0017766980676366608,"train",12540.0,"2021-12-01 14:13:07.849502","","","","","","",""
11.0,0.0844743624329567,0.001779093278922789,"train",12560.0,"2021-12-01 14:13:11.410020","","","","","","",""
11.0,0.08996426314115524,0.001781477246197548,"train",12580.0,"2021-12-01 14:13:15.488158","","","","","","",""
11.0,0.0493796244263649,0.0017838499331930462,"train",12600.0,"2021-12-01 14:13:19.031071","","","","","","",""
11.0,0.07992378622293472,0.001786211303813001,"train",12620.0,"2021-12-01 14:13:22.584376","","","","","","",""
11.0,0.0801517441868782,0.0017885613221332894,"train",12640.0,"2021-12-01 14:13:26.513067","","","","","","",""
11.0,0.04841027036309242,0.0017908999524024931,"train",12660.0,"2021-12-01 14:13:30.082303","","","","","","",""
11.0,0.04391049966216087,0.0017932271590424438,"train",12680.0,"2021-12-01 14:13:33.826724","","","","","","",""
11.0,0.06376698613166809,0.0017955429066487635,"train",12700.0,"2021-12-01 14:13:38.004125","","","","","","",""
11.0,0.04749775677919388,0.0017978471599914025,"train",12720.0,"2021-12-01 14:13:41.647911","","","","","","",""
11.0,0.040160056203603745,0.0018001398840151778,"train",12740.0,"2021-12-01 14:13:45.277669","","","","","","",""
11.0,0.07307348400354385,0.0018024210438403031,"train",12760.0,"2021-12-01 14:13:48.898271","","","","","","",""
11.0,0.04721478372812271,0.0018046906047629228,"train",12780.0,"2021-12-01 14:13:52.852677","","","","","","",""
11.0,0.09736564755439758,0.0018069485322556372,"train",12800.0,"2021-12-01 14:13:56.478234","","","","","","",""
11.0,0.06606628745794296,0.001809194791968029,"train",12820.0,"2021-12-01 14:14:00.072199","","","","","","",""
11.0,0.053488172590732574,0.0018114293497271863,"train",12840.0,"2021-12-01 14:14:04.087882","","","","","","",""
11.0,0.10007824003696442,0.0018136521715382218,"train",12860.0,"2021-12-01 14:14:07.705939","","","","","","",""
11.0,0.04788613319396973,0.0018158632235847892,"train",12880.0,"2021-12-01 14:14:11.338270","","","","","","",""
11.0,"","","train",12888.0,"2021-12-01 14:15:53.243141",0.6238084843192898,0.7009295574181957,0.9724552079348405,0.7027688408289149,0.5814892981035343,0.6001296116179178,0.40368791943311116
11.0,"","","val",12888.0,"2021-12-01 14:16:20.860503",0.581584135451699,0.6161744266322103,0.9556934639187002,0.6510503820636747,0.5228094894869467,0.5374122761500584,0.3485368934412478
12.0,0.04862552508711815,0.0018180624722295999,"train",12900.0,"2021-12-01 14:16:26.983039","","","","","","",""
12.0,0.07628177106380463,0.001820249884014933,"train",12920.0,"2021-12-01 14:16:30.675593","","","","","","",""
12.0,0.11151053011417389,0.001822425425663144,"train",12940.0,"2021-12-01 14:16:34.215065","","","","","","",""
12.0,0.054245706647634506,0.0018245890640771725,"train",12960.0,"2021-12-01 14:16:38.225087","","","","","","",""
12.0,0.05435561388731003,0.0018267407663410452,"train",12980.0,"2021-12-01 14:16:41.982220","","","","","","",""
12.0,0.06885607540607452,0.0018288804997203755,"train",13000.0,"2021-12-01 14:16:45.522171","","","","","","",""
12.0,0.08253488689661026,0.0018310082316628634,"train",13020.0,"2021-12-01 14:16:49.429750","","","","","","",""
12.0,0.06357909739017487,0.0018331239297987893,"train",13040.0,"2021-12-01 14:16:52.982693","","","","","","",""
12.0,0.04789981245994568,0.0018352275619415066,"train",13060.0,"2021-12-01 14:16:56.580081","","","","","","",""
12.0,0.057533327490091324,0.0018373190960879326,"train",13080.0,"2021-12-01 14:17:00.458341","","","","","","",""
12.0,0.06035042554140091,0.0018393985004190336,"train",13100.0,"2021-12-01 14:17:03.962831","","","","","","",""
12.0,0.05291369557380676,0.00184146574330031,"train",13120.0,"2021-12-01 14:17:07.469088","","","","","","",""
12.0,0.08619259297847748,0.001843520793282278,"train",13140.0,"2021-12-01 14:17:11.080958","","","","","","",""
12.0,0.08646717667579651,0.0018455636191009464,"train",13160.0,"2021-12-01 14:17:15.017140","","","","","","",""
12.0,0.07231432944536209,0.001847594189678294,"train",13180.0,"2021-12-01 14:17:18.585214","","","","","","",""
12.0,0.057626333087682724,0.0018496124741227415,"train",13200.0,"2021-12-01 14:17:22.142666","","","","","","",""
12.0,0.04578385129570961,0.001851618441729622,"train",13220.0,"2021-12-01 14:17:26.073290","","","","","","",""
12.0,0.0873696506023407,0.0018536120619816467,"train",13240.0,"2021-12-01 14:17:29.620598","","","","","","",""
12.0,0.08674128353595734,0.0018555933045493712,"train",13260.0,"2021-12-01 14:17:33.240149","","","","","","",""
12.0,0.04828521981835365,0.0018575621392916554,"train",13280.0,"2021-12-01 14:17:37.279209","","","","","","",""
12.0,0.05989318713545799,0.0018595185362561225,"train",13300.0,"2021-12-01 14:17:40.906862","","","","","","",""
12.0,0.06371559947729111,0.0018614624656796155,"train",13320.0,"2021-12-01 14:17:44.542310","","","","","","",""
12.0,0.058422915637493134,0.0018633938979886484,"train",13340.0,"2021-12-01 14:17:48.556418","","","","","","",""
12.0,0.056180957704782486,0.0018653128037998568,"train",13360.0,"2021-12-01 14:17:52.147244","","","","","","",""
12.0,0.07906819880008698,0.0018672191539204459,"train",13380.0,"2021-12-01 14:17:55.822069","","","","","","",""
12.0,0.0798213854432106,0.0018691129193486335,"train",13400.0,"2021-12-01 14:17:59.823543","","","","","","",""
12.0,0.0689418613910675,0.0018709940712740908,"train",13420.0,"2021-12-01 14:18:03.461182","","","","","","",""
12.0,0.07058878988027573,0.0018728625810783823,"train",13440.0,"2021-12-01 14:18:07.099386","","","","","","",""
12.0,0.0382712222635746,0.0018747184203353996,"train",13460.0,"2021-12-01 14:18:11.169931","","","","","","",""
12.0,0.09985099732875824,0.0018765615608117947,"train",13480.0,"2021-12-01 14:18:14.856365","","","","","","",""
12.0,0.06612757593393326,0.0018783919744674096,"train",13500.0,"2021-12-01 14:18:18.530221","","","","","","",""
12.0,0.053758375346660614,0.0018802096334557027,"train",13520.0,"2021-12-01 14:18:22.135698","","","","","","",""
12.0,0.05539758503437042,0.0018820145101241712,"train",13540.0,"2021-12-01 14:18:26.120964","","","","","","",""
12.0,0.05904806777834892,0.0018838065770147745,"train",13560.0,"2021-12-01 14:18:29.757438","","","","","","",""
12.0,0.05818420276045799,0.0018855858068643496,"train",13580.0,"2021-12-01 14:18:33.402748","","","","","","",""
12.0,0.06505841016769409,0.001887352172605026,"train",13600.0,"2021-12-01 14:18:37.419308","","","","","","",""
12.0,0.04796583205461502,0.0018891056473646398,"train",13620.0,"2021-12-01 14:18:41.074691","","","","","","",""
12.0,0.08508968353271484,0.0018908462044671395,"train",13640.0,"2021-12-01 14:18:44.742290","","","","","","",""
12.0,0.08471694588661194,0.001892573817432993,"train",13660.0,"2021-12-01 14:18:48.833004","","","","","","",""
12.0,0.056482091546058655,0.0018942884599795914,"train",13680.0,"2021-12-01 14:18:52.473294","","","","","","",""
12.0,0.08648840337991714,0.001895990106021648,"train",13700.0,"2021-12-01 14:18:56.030090","","","","","","",""
12.0,0.07226447016000748,0.0018976787296715943,"train",13720.0,"2021-12-01 14:18:59.895926","","","","","","",""
12.0,0.07089855521917343,0.0018993543052399757,"train",13740.0,"2021-12-01 14:19:03.473555","","","","","","",""
12.0,0.055603597313165665,0.0019010168072358413,"train",13760.0,"2021-12-01 14:19:07.014102","","","","","","",""
12.0,0.061831191182136536,0.0019026662103671305,"train",13780.0,"2021-12-01 14:19:10.933263","","","","","","",""
12.0,0.07589218020439148,0.0019043024895410605,"train",13800.0,"2021-12-01 14:19:14.359994","","","","","","",""
12.0,0.055804383009672165,0.001905925619864506,"train",13820.0,"2021-12-01 14:19:17.795853","","","","","","",""
12.0,0.046789851039648056,0.001907535576644378,"train",13840.0,"2021-12-01 14:19:21.711657","","","","","","",""
12.0,0.07863575220108032,0.0019091323353880008,"train",13860.0,"2021-12-01 14:19:25.239752","","","","","","",""
12.0,0.08835356682538986,0.0019107158718034828,"train",13880.0,"2021-12-01 14:19:28.824204","","","","","","",""
12.0,0.10839362442493439,0.001912286161800088,"train",13900.0,"2021-12-01 14:19:32.457606","","","","","","",""
12.0,0.06334088742733002,0.0019138431814886008,"train",13920.0,"2021-12-01 14:19:36.540400","","","","","","",""
12.0,0.05611376836895943,0.0019153869071816896,"train",13940.0,"2021-12-01 14:19:40.193694","","","","","","",""
12.0,0.07008481025695801,0.0019169173153942693,"train",13960.0,"2021-12-01 14:19:43.839492","","","","","","",""
12.0,"","","train",13962.0,"2021-12-01 14:21:24.729558",0.6509786800553009,0.7149406768559653,0.9749371503215287,0.7049150620603821,0.5904669552494746,0.6120990323164978,0.41783582511306566
12.0,"","","val",13962.0,"2021-12-01 14:21:52.143580",0.6079670648266264,0.6222998103814,0.958196338590189,0.6531269755219802,0.5289731959075572,0.5456670785114516,0.35878231450469483
13.0,0.049714475870132446,0.0019184343828438557,"train",13980.0,"2021-12-01 14:21:59.377221","","","","","","",""
13.0,0.08605197817087173,0.0019199380864509208,"train",14000.0,"2021-12-01 14:22:03.072696","","","","","","",""
13.0,0.06746815890073776,0.0019214284033392457,"train",14020.0,"2021-12-01 14:22:06.715161","","","","","","",""
13.0,0.07850799709558487,0.0019229053108362649,"train",14040.0,"2021-12-01 14:22:10.757630","","","","","","",""
13.0,0.09081386029720306,0.0019243687864734145,"train",14060.0,"2021-12-01 14:22:14.430418","","","","","","",""
13.0,0.0554865263402462,0.0019258188079864732,"train",14080.0,"2021-12-01 14:22:18.067291","","","","","","",""
13.0,0.067055843770504,0.0019272553533158999,"train",14100.0,"2021-12-01 14:22:22.145728","","","","","","",""
13.0,0.059068452566862106,0.0019286784006071697,"train",14120.0,"2021-12-01 14:22:25.790433","","","","","","",""
13.0,0.05325884744524956,0.0019300879282111083,"train",14140.0,"2021-12-01 14:22:29.431157","","","","","","",""
13.0,0.0825115367770195,0.0019314839146842185,"train",14160.0,"2021-12-01 14:22:33.480267","","","","","","",""
13.0,0.07410263270139694,0.0019328663387890076,"train",14180.0,"2021-12-01 14:22:37.235277","","","","","","",""
13.0,0.048404209315776825,0.0019342351794943119,"train",14200.0,"2021-12-01 14:22:40.974714","","","","","","",""
13.0,0.1006535068154335,0.0019355904159756138,"train",14220.0,"2021-12-01 14:22:45.002180","","","","","","",""
13.0,0.07171447575092316,0.0019369320276153613,"train",14240.0,"2021-12-01 14:22:48.557345","","","","","","",""
13.0,0.04421404376626015,0.00193825999400328,"train",14260.0,"2021-12-01 14:22:52.091629","","","","","","",""
13.0,0.09125900268554688,0.0019395742949366843,"train",14280.0,"2021-12-01 14:22:56.006408","","","","","","",""
13.0,0.08871862292289734,0.0019408749104207845,"train",14300.0,"2021-12-01 14:22:59.587668","","","","","","",""
13.0,0.05846863612532616,0.0019421618206689913,"train",14320.0,"2021-12-01 14:23:03.186030","","","","","","",""
13.0,0.044284887611866,0.0019434350061032163,"train",14340.0,"2021-12-01 14:23:06.748050","","","","","","",""
13.0,0.04955868795514107,0.0019446944473541703,"train",14360.0,"2021-12-01 14:23:10.754488","","","","","","",""
13.0,0.08414784073829651,0.0019459401252616573,"train",14380.0,"2021-12-01 14:23:14.448635","","","","","","",""
13.0,0.048076264560222626,0.001947172020874868,"train",14400.0,"2021-12-01 14:23:18.158920","","","","","","",""
13.0,0.051720984280109406,0.0019483901154526647,"train",14420.0,"2021-12-01 14:23:22.246092","","","","","","",""
13.0,0.05630161240696907,0.0019495943904638694,"train",14440.0,"2021-12-01 14:23:25.853932","","","","","","",""
13.0,0.06234656274318695,0.0019507848275875444,"train",14460.0,"2021-12-01 14:23:29.494226","","","","","","",""
13.0,0.04958724230527878,0.0019519614087132712,"train",14480.0,"2021-12-01 14:23:33.495836","","","","","","",""
13.0,0.03786155581474304,0.0019531241159414263,"train",14500.0,"2021-12-01 14:23:37.128279","","","","","","",""
13.0,0.056603558361530304,0.001954272931583453,"train",14520.0,"2021-12-01 14:23:40.604674","","","","","","",""
13.0,0.049729183316230774,0.0019554078381621306,"train",14540.0,"2021-12-01 14:23:44.604572","","","","","","",""
13.0,0.05962962284684181,0.0019565288184118417,"train",14560.0,"2021-12-01 14:23:48.199853","","","","","","",""
13.0,0.04174881428480148,0.0019576358552788314,"train",14580.0,"2021-12-01 14:23:51.764788","","","","","","",""
13.0,0.056687090545892715,0.0019587289319214713,"train",14600.0,"2021-12-01 14:23:55.710761","","","","","","",""
13.0,0.03973165154457092,0.0019598080317105113,"train",14620.0,"2021-12-01 14:23:59.290735","","","","","","",""
13.0,0.04594878852367401,0.001960873138229337,"train",14640.0,"2021-12-01 14:24:02.860540","","","","","","",""
13.0,0.07219453901052475,0.0019619242352742153,"train",14660.0,"2021-12-01 14:24:06.819498","","","","","","",""
13.0,0.09444873780012131,0.001962961306854543,"train",14680.0,"2021-12-01 14:24:10.357347","","","","","","",""
13.0,0.06759097427129745,0.0019639843371930905,"train",14700.0,"2021-12-01 14:24:13.902726","","","","","","",""
13.0,0.06550845503807068,0.001964993310726241,"train",14720.0,"2021-12-01 14:24:17.463653","","","","","","",""
13.0,0.044064003974199295,0.0019659882121042262,"train",14740.0,"2021-12-01 14:24:21.437204","","","","","","",""
13.0,0.08262244611978531,0.001966969026191363,"train",14760.0,"2021-12-01 14:24:25.054581","","","","","","",""
13.0,0.042507104575634,0.0019679357380662805,"train",14780.0,"2021-12-01 14:24:28.647406","","","","","","",""
13.0,0.04163588210940361,0.001968888333022148,"train",14800.0,"2021-12-01 14:24:32.607659","","","","","","",""
13.0,0.04169248417019844,0.0019698267965669,"train",14820.0,"2021-12-01 14:24:36.213199","","","","","","",""
13.0,0.06068774685263634,0.0019707511144234557,"train",14840.0,"2021-12-01 14:24:39.775698","","","","","","",""
13.0,0.06772596389055252,0.001971661272529935,"train",14860.0,"2021-12-01 14:24:43.747137","","","","","","",""
13.0,0.04852857068181038,0.001972557257039875,"train",14880.0,"2021-12-01 14:24:47.302064","","","","","","",""
13.0,0.07860105484724045,0.0019734390543224385,"train",14900.0,"2021-12-01 14:24:50.873225","","","","","","",""
13.0,0.04277113080024719,0.001974306650962622,"train",14920.0,"2021-12-01 14:24:54.823078","","","","","","",""
13.0,0.08909368515014648,0.0019751600337614608,"train",14940.0,"2021-12-01 14:24:58.373423","","","","","","",""
13.0,0.09507572650909424,0.0019759991897362284,"train",14960.0,"2021-12-01 14:25:01.933786","","","","","","",""
13.0,0.07947448641061783,0.0019768241061206343,"train",14980.0,"2021-12-01 14:25:05.894904","","","","","","",""
13.0,0.06776762753725052,0.0019776347703650186,"train",15000.0,"2021-12-01 14:25:09.565554","","","","","","",""
13.0,0.04223408177495003,0.001978431170136543,"train",15020.0,"2021-12-01 14:25:13.206641","","","","","","",""
13.0,"","","train",15036.0,"2021-12-01 14:26:56.873623",0.6595794222513279,0.7231810830772883,0.9764397398254488,0.7060380608565588,0.5876574260297399,0.6148792935889505,0.41625978100972555
13.0,"","","val",15036.0,"2021-12-01 14:27:28.524494",0.6167227183114925,0.6262047476184439,0.9581394703912637,0.655001199563717,0.5311930432575452,0.5504879529724023,0.3587903558316223
14.0,0.07500511407852173,0.0019792132933193784,"train",15040.0,"2021-12-01 14:27:33.036507","","","","","","",""
14.0,0.05148361623287201,0.001979981128014888,"train",15060.0,"2021-12-01 14:27:36.827009","","","","","","",""
14.0,0.04297271743416786,0.001980734662541811,"train",15080.0,"2021-12-01 14:27:40.435376","","","","","","",""
14.0,0.04051266983151436,0.0019814738854364374,"train",15100.0,"2021-12-01 14:27:44.356629","","","","","","",""
14.0,0.108138307929039,0.0019821987854527832,"train",15120.0,"2021-12-01 14:27:47.889640","","","","","","",""
14.0,0.045199424028396606,0.0019829093515627634,"train",15140.0,"2021-12-01 14:27:51.423912","","","","","","",""
14.0,0.04939362779259682,0.001983605572956358,"train",15160.0,"2021-12-01 14:27:54.942478","","","","","","",""
14.0,0.051974620670080185,0.001984287439041775,"train",15180.0,"2021-12-01 14:27:58.899881","","","","","","",""
14.0,0.08684568852186203,0.001984954939445616,"train",15200.0,"2021-12-01 14:28:02.496154","","","","","","",""
14.0,0.04518534243106842,0.0019856080640130295,"train",15220.0,"2021-12-01 14:28:06.078789","","","","","","",""
14.0,0.04834461212158203,0.0019862468028078676,"train",15240.0,"2021-12-01 14:28:10.118379","","","","","","",""
14.0,0.07100339978933334,0.001986871146112837,"train",15260.0,"2021-12-01 14:28:13.774772","","","","","","",""
14.0,0.03716867417097092,0.0019874810844296466,"train",15280.0,"2021-12-01 14:28:17.496872","","","","","","",""
14.0,0.05984538421034813,0.0019880766084791517,"train",15300.0,"2021-12-01 14:28:21.443062","","","","","","",""
14.0,0.07612136751413345,0.0019886577092014953,"train",15320.0,"2021-12-01 14:28:25.010467","","","","","","",""
14.0,0.049821335822343826,0.001989224377756247,"train",15340.0,"2021-12-01 14:28:28.577230","","","","","","",""
14.0,0.07051218301057816,0.0019897766055225353,"train",15360.0,"2021-12-01 14:28:32.545896","","","","","","",""
14.0,0.08277236670255661,0.0019903143840991813,"train",15380.0,"2021-12-01 14:28:36.084779","","","","","","",""
14.0,0.05302615463733673,0.0019908377053048246,"train",15400.0,"2021-12-01 14:28:39.701600","","","","","","",""
14.0,0.048135388642549515,0.001991346561178048,"train",15420.0,"2021-12-01 14:28:43.558180","","","","","","",""
14.0,0.06216699630022049,0.0019918409439775003,"train",15440.0,"2021-12-01 14:28:46.950781","","","","","","",""
14.0,0.08226508647203445,0.0019923208461820117,"train",15460.0,"2021-12-01 14:28:50.307414","","","","","","",""
14.0,0.06458457559347153,0.001992786260490709,"train",15480.0,"2021-12-01 14:28:54.227245","","","","","","",""
14.0,0.06897486746311188,0.0019932371798231287,"train",15500.0,"2021-12-01 14:28:57.799676","","","","","","",""
14.0,0.07232554256916046,0.0019936735973193212,"train",15520.0,"2021-12-01 14:29:01.471185","","","","","","",""
14.0,0.04711271449923515,0.001994095506339958,"train",15540.0,"2021-12-01 14:29:05.138560","","","","","","",""
14.0,0.054746273905038834,0.001994502900466431,"train",15560.0,"2021-12-01 14:29:09.176108","","","","","","",""
14.0,0.06660038977861404,0.0019948957735009517,"train",15580.0,"2021-12-01 14:29:12.863389","","","","","","",""
14.0,0.06295600533485413,0.0019952741194666436,"train",15600.0,"2021-12-01 14:29:16.525119","","","","","","",""
14.0,0.08066137135028839,0.0019956379326076354,"train",15620.0,"2021-12-01 14:29:20.588466","","","","","","",""
14.0,0.04597189649939537,0.001995987207389146,"train",15640.0,"2021-12-01 14:29:24.120038","","","","","","",""
14.0,0.057354480028152466,0.0019963219384975706,"train",15660.0,"2021-12-01 14:29:27.640061","","","","","","",""
14.0,0.08249640464782715,0.001996642120840561,"train",15680.0,"2021-12-01 14:29:31.625107","","","","","","",""
14.0,0.04501956328749657,0.001996947749547103,"train",15700.0,"2021-12-01 14:29:35.250066","","","","","","",""
14.0,0.06686396896839142,0.0019972388199675905,"train",15720.0,"2021-12-01 14:29:38.789409","","","","","","",""
14.0,0.07308825105428696,0.001997515327673896,"train",15740.0,"2021-12-01 14:29:42.805158","","","","","","",""
14.0,0.04945855215191841,0.0019977772684594388,"train",15760.0,"2021-12-01 14:29:46.441038","","","","","","",""
14.0,0.060331858694553375,0.0019980246383392475,"train",15780.0,"2021-12-01 14:29:50.065278","","","","","","",""
14.0,0.08093857765197754,0.0019982574335500225,"train",15800.0,"2021-12-01 14:29:54.061587","","","","","","",""
14.0,0.04481656476855278,0.001998475650550192,"train",15820.0,"2021-12-01 14:29:57.701368","","","","","","",""
14.0,0.050238125026226044,0.0019986792860199657,"train",15840.0,"2021-12-01 14:30:01.233549","","","","","","",""
14.0,0.07232081890106201,0.001998868336861386,"train",15860.0,"2021-12-01 14:30:05.159486","","","","","","",""
14.0,0.047918032854795456,0.001999042800198376,"train",15880.0,"2021-12-01 14:30:08.757137","","","","","","",""
14.0,0.08313267678022385,0.00199920267337678,"train",15900.0,"2021-12-01 14:30:12.436531","","","","","","",""
14.0,0.0750068947672844,0.0019993479539644077,"train",15920.0,"2021-12-01 14:30:16.142024","","","","","","",""
14.0,0.0552518330514431,0.0019994786397510697,"train",15940.0,"2021-12-01 14:30:20.113327","","","","","","",""
14.0,0.037134382873773575,0.0019995947287486096,"train",15960.0,"2021-12-01 14:30:23.692873","","","","","","",""
14.0,0.06497692316770554,0.0019996962191909367,"train",15980.0,"2021-12-01 14:30:27.274588","","","","","","",""
14.0,0.08073505014181137,0.0019997831095340513,"train",16000.0,"2021-12-01 14:30:31.258651","","","","","","",""
14.0,0.07303007692098618,0.001999855398456069,"train",16020.0,"2021-12-01 14:30:34.819043","","","","","","",""
14.0,0.07317908853292465,0.00199991308485724,"train",16040.0,"2021-12-01 14:30:38.375907","","","","","","",""
14.0,0.0917094349861145,0.001999956167859967,"train",16060.0,"2021-12-01 14:30:42.317372","","","","","","",""
14.0,0.04981669411063194,0.0019999846468088172,"train",16080.0,"2021-12-01 14:30:45.898986","","","","","","",""
14.0,0.051764681935310364,0.0019999985212705335,"train",16100.0,"2021-12-01 14:30:49.452370","","","","","","",""
14.0,"","","train",16110.0,"2021-12-01 14:32:32.290186",0.6645856072182201,0.742574329278739,0.9795368338635888,0.7250827325650513,0.6248338093503367,0.6503120080594998,0.44437310321951407
14.0,"","","val",16110.0,"2021-12-01 14:32:59.894235",0.6146352777455641,0.6331899590674913,0.960830794191106,0.6666948977098561,0.5579717960769796,0.5758958940457745,0.3791583867222734
15.0,0.04768642410635948,0.0019999995774202316,"train",16120.0,"2021-12-01 14:33:06.496614","","","","","","",""
15.0,0.05924250930547714,0.0019999966438102564,"train",16140.0,"2021-12-01 14:33:10.058031","","","","","","",""
15.0,0.07829466462135315,0.0019999909162942875,"train",16160.0,"2021-12-01 14:33:13.554535","","","","","","",""
15.0,0.08512495458126068,0.001999982394888327,"train",16180.0,"2021-12-01 14:33:17.414124","","","","","","",""
15.0,0.04488024860620499,0.0019999710796161823,"train",16200.0,"2021-12-01 14:33:20.987329","","","","","","",""
15.0,0.062296293675899506,0.0019999569705094686,"train",16220.0,"2021-12-01 14:33:24.579761","","","","","","",""
15.0,0.05453653633594513,0.001999940067607605,"train",16240.0,"2021-12-01 14:33:28.601403","","","","","","",""
15.0,0.04769347608089447,0.001999920370957817,"train",16260.0,"2021-12-01 14:33:32.193578","","","","","","",""
15.0,0.04337861016392708,0.0019998978806151355,"train",16280.0,"2021-12-01 14:33:35.774678","","","","","","",""
15.0,0.04347831755876541,0.0019998725966423976,"train",16300.0,"2021-12-01 14:33:39.735700","","","","","","",""
15.0,0.06045079603791237,0.001999844519110244,"train",16320.0,"2021-12-01 14:33:43.307542","","","","","","",""
15.0,0.06863398849964142,0.001999813648097122,"train",16340.0,"2021-12-01 14:33:46.863415","","","","","","",""
15.0,0.04547463357448578,0.001999779983689282,"train",16360.0,"2021-12-01 14:33:50.498831","","","","","","",""
15.0,0.07202696800231934,0.0019997435259807806,"train",16380.0,"2021-12-01 14:33:54.447029","","","","","","",""
15.0,0.05620921775698662,0.001999704275073478,"train",16400.0,"2021-12-01 14:33:58.010680","","","","","","",""
15.0,0.0643269419670105,0.0019996622310770383,"train",16420.0,"2021-12-01 14:34:01.618693","","","","","","",""
15.0,0.051315613090991974,0.0019996173941089286,"train",16440.0,"2021-12-01 14:34:05.602177","","","","","","",""
15.0,0.06735531985759735,0.0019995697642944212,"train",16460.0,"2021-12-01 14:34:09.246457","","","","","","",""
15.0,0.09176867455244064,0.0019995193417665894,"train",16480.0,"2021-12-01 14:34:12.853633","","","","","","",""
15.0,0.04516398906707764,0.0019994661266663108,"train",16500.0,"2021-12-01 14:34:16.823681","","","","","","",""
15.0,0.046838317066431046,0.001999410119142264,"train",16520.0,"2021-12-01 14:34:20.388372","","","","","","",""
15.0,0.10231141000986099,0.0019993513193509297,"train",16540.0,"2021-12-01 14:34:23.949397","","","","","","",""
15.0,0.047214243561029434,0.0019992897274565906,"train",16560.0,"2021-12-01 14:34:27.902422","","","","","","",""
15.0,0.041292861104011536,0.0019992253436313303,"train",16580.0,"2021-12-01 14:34:31.509187","","","","","","",""
15.0,0.06288259476423264,0.0019991581680550313,"train",16600.0,"2021-12-01 14:34:35.139108","","","","","","",""
15.0,0.05177794396877289,0.0019990882009153785,"train",16620.0,"2021-12-01 14:34:39.102799","","","","","","",""
15.0,0.05751161649823189,0.001999015442407854,"train",16640.0,"2021-12-01 14:34:42.663140","","","","","","",""
15.0,0.0496477335691452,0.0019989398927357403,"train",16660.0,"2021-12-01 14:34:46.215357","","","","","","",""
15.0,0.06770198047161102,0.0019988615521101174,"train",16680.0,"2021-12-01 14:34:50.289273","","","","","","",""
15.0,0.053112324327230453,0.0019987804207498637,"train",16700.0,"2021-12-01 14:34:53.980931","","","","","","",""
15.0,0.0520637072622776,0.0019986964988816533,"train",16720.0,"2021-12-01 14:34:57.451917","","","","","","",""
15.0,0.05504712462425232,0.0019986097867399585,"train",16740.0,"2021-12-01 14:35:00.915370","","","","","","",""
15.0,0.0705217495560646,0.0019985202845670463,"train",16760.0,"2021-12-01 14:35:04.930197","","","","","","",""
15.0,0.09648734331130981,0.0019984279926129798,"train",16780.0,"2021-12-01 14:35:08.461849","","","","","","",""
15.0,0.06948746740818024,0.001998332911135615,"train",16800.0,"2021-12-01 14:35:12.014504","","","","","","",""
15.0,0.05774805694818497,0.0019982350404006036,"train",16820.0,"2021-12-01 14:35:15.946272","","","","","","",""
15.0,0.047818586230278015,0.0019981343806813883,"train",16840.0,"2021-12-01 14:35:19.481508","","","","","","",""
15.0,0.04042171686887741,0.001998030932259205,"train",16860.0,"2021-12-01 14:35:23.007983","","","","","","",""
15.0,0.04876221716403961,0.0019979246954230823,"train",16880.0,"2021-12-01 14:35:26.916736","","","","","","",""
15.0,0.05597127228975296,0.0019978156704698363,"train",16900.0,"2021-12-01 14:35:30.443879","","","","","","",""
15.0,0.06467028707265854,0.001997703857704076,"train",16920.0,"2021-12-01 14:35:33.993329","","","","","","",""
15.0,0.05219317227602005,0.0019975892574381976,"train",16940.0,"2021-12-01 14:35:37.965453","","","","","","",""
15.0,0.07621666043996811,0.001997471869992386,"train",16960.0,"2021-12-01 14:35:41.520379","","","","","","",""
15.0,0.06259603053331375,0.0019973516956946127,"train",16980.0,"2021-12-01 14:35:45.127942","","","","","","",""
15.0,0.06159919127821922,0.0019972287348806366,"train",17000.0,"2021-12-01 14:35:49.145763","","","","","","",""
15.0,0.0740031823515892,0.0019971029878940003,"train",17020.0,"2021-12-01 14:35:52.840376","","","","","","",""
15.0,0.08293229341506958,0.0019969744550860317,"train",17040.0,"2021-12-01 14:35:56.495272","","","","","","",""
15.0,0.04240705445408821,0.0019968431368158433,"train",17060.0,"2021-12-01 14:36:00.491662","","","","","","",""
15.0,0.04492673650383949,0.001996709033450327,"train",17080.0,"2021-12-01 14:36:04.097228","","","","","","",""
15.0,0.04719502478837967,0.0019965721453641585,"train",17100.0,"2021-12-01 14:36:07.725268","","","","","","",""
15.0,0.0477585569024086,0.0019964324729397935,"train",17120.0,"2021-12-01 14:36:11.233965","","","","","","",""
15.0,0.0464150570333004,0.0019962900165674657,"train",17140.0,"2021-12-01 14:36:15.104303","","","","","","",""
15.0,0.030246656388044357,0.0019961447766451887,"train",17160.0,"2021-12-01 14:36:18.656478","","","","","","",""
15.0,0.0458541102707386,0.001995996753578751,"train",17180.0,"2021-12-01 14:36:22.262662","","","","","","",""
15.0,"","","train",17184.0,"2021-12-01 14:38:04.873427",0.6726042348832133,0.7582620734873077,0.9816142372155318,0.7404785953048127,0.6567259448317574,0.6735829169588038,0.46668041510803254
15.0,"","","val",17184.0,"2021-12-01 14:38:32.413491",0.6134755885422707,0.6450242842124589,0.9624798432160617,0.6734696338182957,0.5841350797437469,0.59700920286812,0.3897942198752393
16.0,0.04893725737929344,0.001995845947781719,"train",17200.0,"2021-12-01 14:38:39.303832","","","","","","",""
16.0,0.07834356278181076,0.001995692359675433,"train",17220.0,"2021-12-01 14:38:42.963028","","","","","","",""
16.0,0.06447672098875046,0.0019955359896890066,"train",17240.0,"2021-12-01 14:38:46.501573","","","","","","",""
16.0,0.05411860719323158,0.0019953768382593258,"train",17260.0,"2021-12-01 14:38:50.421725","","","","","","",""
16.0,0.047469452023506165,0.0019952149058310486,"train",17280.0,"2021-12-01 14:38:54.042133","","","","","","",""
16.0,0.07965277135372162,0.001995050192856602,"train",17300.0,"2021-12-01 14:38:57.671381","","","","","","",""
16.0,0.05574401840567589,0.001994882699796182,"train",17320.0,"2021-12-01 14:39:01.678855","","","","","","",""
16.0,0.04370320588350296,0.001994712427117752,"train",17340.0,"2021-12-01 14:39:05.294300","","","","","","",""
16.0,0.07781118154525757,0.0019945393752970413,"train",17360.0,"2021-12-01 14:39:08.878409","","","","","","",""
16.0,0.04787062853574753,0.001994363544817544,"train",17380.0,"2021-12-01 14:39:12.850487","","","","","","",""
16.0,0.07097230106592178,0.001994184936170517,"train",17400.0,"2021-12-01 14:39:16.443421","","","","","","",""
16.0,0.039285678416490555,0.0019940035498549804,"train",17420.0,"2021-12-01 14:39:20.012093","","","","","","",""
16.0,0.0491131916642189,0.0019938193863777145,"train",17440.0,"2021-12-01 14:39:24.063209","","","","","","",""
16.0,0.05385730043053627,0.001993632446253258,"train",17460.0,"2021-12-01 14:39:27.663880","","","","","","",""
16.0,0.059262920171022415,0.0019934427300039074,"train",17480.0,"2021-12-01 14:39:31.256718","","","","","","",""
16.0,0.08264581114053726,0.001993250238159717,"train",17500.0,"2021-12-01 14:39:34.849121","","","","","","",""
16.0,0.0589778870344162,0.0019930549712584944,"train",17520.0,"2021-12-01 14:39:39.007001","","","","","","",""
16.0,0.04950348287820816,0.001992856929845801,"train",17540.0,"2021-12-01 14:39:42.652271","","","","","","",""
16.0,0.05130505934357643,0.0019926561144749497,"train",17560.0,"2021-12-01 14:39:46.328569","","","","","","",""
16.0,0.049015313386917114,0.001992452525707004,"train",17580.0,"2021-12-01 14:39:50.353013","","","","","","",""
16.0,0.05610514059662819,0.0019922461641107767,"train",17600.0,"2021-12-01 14:39:53.988520","","","","","","",""
16.0,0.05044250935316086,0.001992037030262826,"train",17620.0,"2021-12-01 14:39:57.632677","","","","","","",""
16.0,0.08116044104099274,0.0019918251247474567,"train",17640.0,"2021-12-01 14:40:01.656504","","","","","","",""
16.0,0.04917704313993454,0.001991610448156718,"train",17660.0,"2021-12-01 14:40:05.291758","","","","","","",""
16.0,0.04133403301239014,0.0019913930010903996,"train",17680.0,"2021-12-01 14:40:08.923338","","","","","","",""
16.0,0.05485774949193001,0.001991172784156033,"train",17700.0,"2021-12-01 14:40:12.932104","","","","","","",""
16.0,0.07461927086114883,0.0019909497979688877,"train",17720.0,"2021-12-01 14:40:16.550431","","","","","","",""
16.0,0.07785512506961823,0.0019907240431519713,"train",17740.0,"2021-12-01 14:40:20.150922","","","","","","",""
16.0,0.057236190885305405,0.001990495520336026,"train",17760.0,"2021-12-01 14:40:24.174409","","","","","","",""
16.0,0.07739940285682678,0.0019902642301595284,"train",17780.0,"2021-12-01 14:40:27.780991","","","","","","",""
16.0,0.03373197466135025,0.001990030173268685,"train",17800.0,"2021-12-01 14:40:31.185300","","","","","","",""
16.0,0.0494428426027298,0.0019897933503174345,"train",17820.0,"2021-12-01 14:40:35.117926","","","","","","",""
16.0,0.04760328680276871,0.0019895537619674425,"train",17840.0,"2021-12-01 14:40:38.693352","","","","","","",""
16.0,0.07256827503442764,0.001989311408888101,"train",17860.0,"2021-12-01 14:40:42.270735","","","","","","",""
16.0,0.07112834602594376,0.001989066291756527,"train",17880.0,"2021-12-01 14:40:45.851414","","","","","","",""
16.0,0.03700891509652138,0.00198881841125756,"train",17900.0,"2021-12-01 14:40:49.945655","","","","","","",""
16.0,0.04903435334563255,0.0019885677680837595,"train",17920.0,"2021-12-01 14:40:53.609790","","","","","","",""
16.0,0.08088719099760056,0.001988314362935404,"train",17940.0,"2021-12-01 14:40:57.196902","","","","","","",""
16.0,0.07997939735651016,0.0019880581965204896,"train",17960.0,"2021-12-01 14:41:01.149420","","","","","","",""
16.0,0.04411877319216728,0.0019877992695547255,"train",17980.0,"2021-12-01 14:41:04.717294","","","","","","",""
16.0,0.04127224162220955,0.0019875375827615354,"train",18000.0,"2021-12-01 14:41:08.289697","","","","","","",""
16.0,0.07852472364902496,0.0019872731368720527,"train",18020.0,"2021-12-01 14:41:12.260120","","","","","","",""
16.0,0.05161181092262268,0.00198700593262512,"train",18040.0,"2021-12-01 14:41:15.835406","","","","","","",""
16.0,0.04840996861457825,0.001986735970767286,"train",18060.0,"2021-12-01 14:41:19.387096","","","","","","",""
16.0,0.05634743720293045,0.001986463252052804,"train",18080.0,"2021-12-01 14:41:23.326209","","","","","","",""
16.0,0.03819311037659645,0.0019861877772436305,"train",18100.0,"2021-12-01 14:41:26.887800","","","","","","",""
16.0,0.0650249719619751,0.001985909547109422,"train",18120.0,"2021-12-01 14:41:30.488671","","","","","","",""
16.0,0.049951471388339996,0.001985628562427533,"train",18140.0,"2021-12-01 14:41:34.549034","","","","","","",""
16.0,0.07896218448877335,0.001985344823983014,"train",18160.0,"2021-12-01 14:41:38.234546","","","","","","",""
16.0,0.06644241511821747,0.001985058332568609,"train",18180.0,"2021-12-01 14:41:41.942524","","","","","","",""
16.0,0.06973373144865036,0.001984769088984755,"train",18200.0,"2021-12-01 14:41:46.050484","","","","","","",""
16.0,0.04529990255832672,0.001984477094039576,"train",18220.0,"2021-12-01 14:41:49.528871","","","","","","",""
16.0,0.053605448454618454,0.001984182348548885,"train",18240.0,"2021-12-01 14:41:52.907310","","","","","","",""
16.0,"","","train",18258.0,"2021-12-01 14:43:36.445343",0.6662446336316671,0.769966635194457,0.9828772333660548,0.7488401929552774,0.6583494252305713,0.6780613979236129,0.4721895113362454
16.0,"","","val",18258.0,"2021-12-01 14:44:04.025289",0.6052417951988867,0.6426719542064903,0.9634222413630054,0.6783179187688566,0.5710459455575936,0.5852015661477433,0.3835474255319752
17.0,0.04182317852973938,0.00198388485333618,"train",18260.0,"2021-12-01 14:44:08.193441","","","","","","",""
17.0,0.05059201270341873,0.0019835846092326396,"train",18280.0,"2021-12-01 14:44:12.018143","","","","","","",""
17.0,0.04595913365483284,0.0019832816170771246,"train",18300.0,"2021-12-01 14:44:15.624612","","","","","","",""
17.0,0.07611986994743347,0.001982975877716172,"train",18320.0,"2021-12-01 14:44:19.216946","","","","","","",""
17.0,0.049089908599853516,0.0019826673920039957,"train",18340.0,"2021-12-01 14:44:23.210428","","","","","","",""
17.0,0.0423290841281414,0.0019823561608024822,"train",18360.0,"2021-12-01 14:44:26.775091","","","","","","",""
17.0,0.042178984731435776,0.0019820421849811886,"train",18380.0,"2021-12-01 14:44:30.281506","","","","","","",""
17.0,0.04262318089604378,0.0019817254654173402,"train",18400.0,"2021-12-01 14:44:34.175288","","","","","","",""
17.0,0.04847998917102814,0.0019814060029958278,"train",18420.0,"2021-12-01 14:44:37.753043","","","","","","",""
17.0,0.056577131152153015,0.001981083798609206,"train",18440.0,"2021-12-01 14:44:41.244488","","","","","","",""
17.0,0.051990170031785965,0.0019807588531576908,"train",18460.0,"2021-12-01 14:44:45.228062","","","","","","",""
17.0,0.08331861346960068,0.0019804311675491555,"train",18480.0,"2021-12-01 14:44:48.872983","","","","","","",""
17.0,0.08186991512775421,0.00198010074269913,"train",18500.0,"2021-12-01 14:44:52.527422","","","","","","",""
17.0,0.04012170061469078,0.0019797675795307965,"train",18520.0,"2021-12-01 14:44:56.557336","","","","","","",""
17.0,0.055157262831926346,0.0019794316789749885,"train",18540.0,"2021-12-01 14:45:00.163440","","","","","","",""
17.0,0.0785713940858841,0.0019790930419701877,"train",18560.0,"2021-12-01 14:45:03.730234","","","","","","",""
17.0,0.04824313893914223,0.0019787516694625214,"train",18580.0,"2021-12-01 14:45:07.713501","","","","","","",""
17.0,0.06163087859749794,0.0019784075624057584,"train",18600.0,"2021-12-01 14:45:11.323033","","","","","","",""
17.0,0.09179607033729553,0.0019780607217613094,"train",18620.0,"2021-12-01 14:45:14.941011","","","","","","",""
17.0,0.05728263407945633,0.001977711148498221,"train",18640.0,"2021-12-01 14:45:19.080378","","","","","","",""
17.0,0.053019244223833084,0.0019773588435931756,"train",18660.0,"2021-12-01 14:45:22.776642","","","","","","",""
17.0,0.04787999019026756,0.0019770038080304873,"train",18680.0,"2021-12-01 14:45:26.459431","","","","","","",""
17.0,0.043169211596250534,0.001976646042802099,"train",18700.0,"2021-12-01 14:45:30.128397","","","","","","",""
17.0,0.05054204538464546,0.0019762855489075808,"train",18720.0,"2021-12-01 14:45:34.228139","","","","","","",""
17.0,0.048348698765039444,0.001975922327354126,"train",18740.0,"2021-12-01 14:45:37.892480","","","","","","",""
17.0,0.043568965047597885,0.001975556379156549,"train",18760.0,"2021-12-01 14:45:41.502600","","","","","","",""
17.0,0.044604092836380005,0.0019751877053372823,"train",18780.0,"2021-12-01 14:45:45.497172","","","","","","",""
17.0,0.08639990538358688,0.001974816306926373,"train",18800.0,"2021-12-01 14:45:49.114602","","","","","","",""
17.0,0.06160376965999603,0.001974442184961482,"train",18820.0,"2021-12-01 14:45:52.709037","","","","","","",""
17.0,0.03728553280234337,0.0019740653404878776,"train",18840.0,"2021-12-01 14:45:56.754443","","","","","","",""
17.0,0.06547705829143524,0.0019736857745584362,"train",18860.0,"2021-12-01 14:46:00.389343","","","","","","",""
17.0,0.04025803878903389,0.0019733034882336367,"train",18880.0,"2021-12-01 14:46:03.939139","","","","","","",""
17.0,0.06335735321044922,0.0019729184825815586,"train",18900.0,"2021-12-01 14:46:07.896325","","","","","","",""
17.0,0.045460935682058334,0.0019725307586778806,"train",18920.0,"2021-12-01 14:46:11.493431","","","","","","",""
17.0,0.04933040961623192,0.001972140317605874,"train",18940.0,"2021-12-01 14:46:15.158194","","","","","","",""
17.0,0.05447608605027199,0.0019717471604564028,"train",18960.0,"2021-12-01 14:46:19.211693","","","","","","",""
17.0,0.08339058607816696,0.0019713512883279185,"train",18980.0,"2021-12-01 14:46:22.881528","","","","","","",""
17.0,0.06357907503843307,0.00197095270232646,"train",19000.0,"2021-12-01 14:46:26.567332","","","","","","",""
17.0,0.08377718925476074,0.001970551403565646,"train",19020.0,"2021-12-01 14:46:30.812644","","","","","","",""
17.0,0.037384841591119766,0.0019701473931666765,"train",19040.0,"2021-12-01 14:46:34.387794","","","","","","",""
17.0,0.049134742468595505,0.001969740672258327,"train",19060.0,"2021-12-01 14:46:37.839283","","","","","","",""
17.0,0.07977341115474701,0.0019693312419769454,"train",19080.0,"2021-12-01 14:46:41.285470","","","","","","",""
17.0,0.0795365422964096,0.0019689191034664498,"train",19100.0,"2021-12-01 14:46:45.299160","","","","","","",""
17.0,0.05737260356545448,0.0019685042578783257,"train",19120.0,"2021-12-01 14:46:48.742294","","","","","","",""
17.0,0.08558064699172974,0.00196808670637162,"train",19140.0,"2021-12-01 14:46:52.154873","","","","","","",""
17.0,0.04820891097187996,0.001967666450112942,"train",19160.0,"2021-12-01 14:46:56.358910","","","","","","",""
17.0,0.0564209520816803,0.001967243490276456,"train",19180.0,"2021-12-01 14:47:00.042711","","","","","","",""
17.0,0.04327157139778137,0.0019668178280438818,"train",19200.0,"2021-12-01 14:47:03.638484","","","","","","",""
17.0,0.02891610749065876,0.0019663894646044875,"train",19220.0,"2021-12-01 14:47:07.687097","","","","","","",""
17.0,0.08949388563632965,0.001965958401155089,"train",19240.0,"2021-12-01 14:47:11.299569","","","","","","",""
17.0,0.04674268886446953,0.0019655246389000463,"train",19260.0,"2021-12-01 14:47:14.947250","","","","","","",""
17.0,0.03891463577747345,0.0019650881790512597,"train",19280.0,"2021-12-01 14:47:18.936722","","","","","","",""
17.0,0.040340226143598557,0.001964649022828165,"train",19300.0,"2021-12-01 14:47:22.614169","","","","","","",""
17.0,0.08943897485733032,0.0019642071714577325,"train",19320.0,"2021-12-01 14:47:26.284658","","","","","","",""
17.0,"","","train",19332.0,"2021-12-01 14:49:14.838519",0.6991049989085353,0.7865898089435289,0.9847242371647102,0.7630459962604677,0.673738867619095,0.7007626375877758,0.49184035157451095
17.0,"","","val",19332.0,"2021-12-01 14:49:42.097940",0.6250724805752058,0.6580980588577555,0.9633353396204105,0.6830429407267139,0.5826590946524605,0.6041354883036582,0.394079358426735
18.0,0.0595887266099453,0.0019637626261744634,"train",19340.0,"2021-12-01 14:49:47.487659","","","","","","",""
18.0,0.05714161694049835,0.001963315388220384,"train",19360.0,"2021-12-01 14:49:51.223270","","","","","","",""
18.0,0.049247950315475464,0.0019628654588450443,"train",19380.0,"2021-12-01 14:49:54.836289","","","","","","",""
18.0,0.039577312767505646,0.001962412839305514,"train",19400.0,"2021-12-01 14:49:58.841084","","","","","","",""
18.0,0.0394371896982193,0.0019619575308663785,"train",19420.0,"2021-12-01 14:50:02.464494","","","","","","",""
18.0,0.07428163290023804,0.001961499534799737,"train",19440.0,"2021-12-01 14:50:06.119290","","","","","","",""
18.0,0.06958981603384018,0.001961038852385196,"train",19460.0,"2021-12-01 14:50:10.122679","","","","","","",""
18.0,0.0358382873237133,0.0019605754849098683,"train",19480.0,"2021-12-01 14:50:13.744172","","","","","","",""
18.0,0.08068733662366867,0.0019601094336683693,"train",19500.0,"2021-12-01 14:50:17.410711","","","","","","",""
18.0,0.060353104025125504,0.0019596406999628116,"train",19520.0,"2021-12-01 14:50:21.309592","","","","","","",""
18.0,0.06796325743198395,0.0019591692851028022,"train",19540.0,"2021-12-01 14:50:24.971328","","","","","","",""
18.0,0.04694470390677452,0.001958695190405441,"train",19560.0,"2021-12-01 14:50:28.577406","","","","","","",""
18.0,0.08090045303106308,0.001958218417195312,"train",19580.0,"2021-12-01 14:50:32.251257","","","","","","",""
18.0,0.04241429269313812,0.001957738966804486,"train",19600.0,"2021-12-01 14:50:36.205142","","","","","","",""
18.0,0.04923984408378601,0.001957256840572511,"train",19620.0,"2021-12-01 14:50:39.766632","","","","","","",""
18.0,0.04869876801967621,0.0019567720398464133,"train",19640.0,"2021-12-01 14:50:43.290272","","","","","","",""
18.0,0.04968483746051788,0.00195628456598069,"train",19660.0,"2021-12-01 14:50:47.249737","","","","","","",""
18.0,0.052815694361925125,0.001955794420337307,"train",19680.0,"2021-12-01 14:50:50.778613","","","","","","",""
18.0,0.0564955398440361,0.0019553016042856957,"train",19700.0,"2021-12-01 14:50:54.317709","","","","","","",""
18.0,0.09824340790510178,0.001954806119202748,"train",19720.0,"2021-12-01 14:50:58.254206","","","","","","",""
18.0,0.0510316863656044,0.001954307966472812,"train",19740.0,"2021-12-01 14:51:01.794929","","","","","","",""
18.0,0.03712109848856926,0.0019538071474876914,"train",19760.0,"2021-12-01 14:51:05.341282","","","","","","",""
18.0,0.05956404283642769,0.001953303663646636,"train",19780.0,"2021-12-01 14:51:09.265429","","","","","","",""
18.0,0.04684454947710037,0.0019527975163563436,"train",19800.0,"2021-12-01 14:51:12.862710","","","","","","",""
18.0,0.08398714661598206,0.0019522887070309524,"train",19820.0,"2021-12-01 14:51:16.424450","","","","","","",""
18.0,0.0587867796421051,0.0019517772370920379,"train",19840.0,"2021-12-01 14:51:20.423506","","","","","","",""
18.0,0.04224487766623497,0.0019512631079686104,"train",19860.0,"2021-12-01 14:51:23.964320","","","","","","",""
18.0,0.08267726004123688,0.001950746321097108,"train",19880.0,"2021-12-01 14:51:27.521448","","","","","","",""
18.0,0.08450812846422195,0.0019502268779213957,"train",19900.0,"2021-12-01 14:51:31.524614","","","","","","",""
18.0,0.03712456300854683,0.0019497047798927598,"train",19920.0,"2021-12-01 14:51:35.074026","","","","","","",""
18.0,0.07616753876209259,0.001949180028469903,"train",19940.0,"2021-12-01 14:51:38.621935","","","","","","",""
18.0,0.03970697894692421,0.0019486526251189435,"train",19960.0,"2021-12-01 14:51:42.210080","","","","","","",""
18.0,0.07814551889896393,0.0019481225713134064,"train",19980.0,"2021-12-01 14:51:46.247296","","","","","","",""
18.0,0.08088741451501846,0.0019475898685342235,"train",20000.0,"2021-12-01 14:51:49.913261","","","","","","",""
18.0,0.04969055950641632,0.0019470545182697272,"train",20020.0,"2021-12-01 14:51:53.586277","","","","","","",""
18.0,0.06769833713769913,0.001946516522015647,"train",20040.0,"2021-12-01 14:51:57.604430","","","","","","",""
18.0,0.04898497089743614,0.0019459758812751047,"train",20060.0,"2021-12-01 14:52:01.259436","","","","","","",""
18.0,0.0718555599451065,0.0019454325975586106,"train",20080.0,"2021-12-01 14:52:04.904287","","","","","","",""
18.0,0.0755479633808136,0.0019448866723840602,"train",20100.0,"2021-12-01 14:52:08.951271","","","","","","",""
18.0,0.05406958609819412,0.001944338107276728,"train",20120.0,"2021-12-01 14:52:12.598188","","","","","","",""
18.0,0.08301196247339249,0.0019437869037692644,"train",20140.0,"2021-12-01 14:52:16.264101","","","","","","",""
18.0,0.06729103624820709,0.0019432330634016912,"train",20160.0,"2021-12-01 14:52:20.319922","","","","","","",""
18.0,0.03807241469621658,0.0019426765877213986,"train",20180.0,"2021-12-01 14:52:23.975173","","","","","","",""
18.0,0.04065602645277977,0.0019421174782831383,"train",20200.0,"2021-12-01 14:52:27.654370","","","","","","",""
18.0,0.07671437412500381,0.0019415557366490208,"train",20220.0,"2021-12-01 14:52:31.729658","","","","","","",""
18.0,0.05574679747223854,0.0019409913643885113,"train",20240.0,"2021-12-01 14:52:35.361299","","","","","","",""
