"epoch","loss","lr","part","step","time","accuracy","auprc","auroc","challenge_metric","f_beta_measure","f_measure","g_beta_measure"
0.0,0.19657841324806213,8.000730236035311e-05,"train",20.0,"2021-12-01 03:42:43.654200","","","","","","",""
0.0,0.1777319759130478,8.002920933031948e-05,"train",40.0,"2021-12-01 03:42:47.493278","","","","","","",""
0.0,0.15189866721630096,8.006572057662293e-05,"train",60.0,"2021-12-01 03:42:51.793096","","","","","","",""
0.0,0.14117980003356934,8.011683554380914e-05,"train",80.0,"2021-12-01 03:42:55.579887","","","","","","",""
0.0,0.12995731830596924,8.018255345425274e-05,"train",100.0,"2021-12-01 03:42:59.293607","","","","","","",""
0.0,0.16840223968029022,8.026287330817079e-05,"train",120.0,"2021-12-01 03:43:03.448676","","","","","","",""
0.0,0.12359476834535599,8.03577938836373e-05,"train",140.0,"2021-12-01 03:43:07.239737","","","","","","",""
0.0,0.12697236239910126,8.04673137366021e-05,"train",160.0,"2021-12-01 03:43:10.909692","","","","","","",""
0.0,0.1564570516347885,8.059143120091187e-05,"train",180.0,"2021-12-01 03:43:14.974929","","","","","","",""
0.0,0.1257103681564331,8.073014438833613e-05,"train",200.0,"2021-12-01 03:43:18.648526","","","","","","",""
0.0,0.12692394852638245,8.088345118859724e-05,"train",220.0,"2021-12-01 03:43:22.294654","","","","","","",""
0.0,0.11795411258935928,8.10513492693996e-05,"train",240.0,"2021-12-01 03:43:26.327512","","","","","","",""
0.0,0.10756265372037888,8.123383607646804e-05,"train",260.0,"2021-12-01 03:43:30.038090","","","","","","",""
0.0,0.12981589138507843,8.143090883358495e-05,"train",280.0,"2021-12-01 03:43:33.795810","","","","","","",""
0.0,0.12448491156101227,8.164256454263295e-05,"train",300.0,"2021-12-01 03:43:37.919490","","","","","","",""
0.0,0.12092440575361252,8.186879998364088e-05,"train",320.0,"2021-12-01 03:43:41.679355","","","","","","",""
0.0,0.10808464884757996,8.210961171483213e-05,"train",340.0,"2021-12-01 03:43:45.433496","","","","","","",""
0.0,0.09280385076999664,8.236499607267717e-05,"train",360.0,"2021-12-01 03:43:49.548910","","","","","","",""
0.0,0.11264049261808395,8.26349491719505e-05,"train",380.0,"2021-12-01 03:43:53.324625","","","","","","",""
0.0,0.10680538415908813,8.291946690578713e-05,"train",400.0,"2021-12-01 03:43:57.120870","","","","","","",""
0.0,0.11149671673774719,8.321854494574774e-05,"train",420.0,"2021-12-01 03:44:01.396130","","","","","","",""
0.0,0.10648953169584274,8.353217874188293e-05,"train",440.0,"2021-12-01 03:44:05.196741","","","","","","",""
0.0,0.10071738064289093,8.38603635228035e-05,"train",460.0,"2021-12-01 03:44:08.965575","","","","","","",""
0.0,0.10707134753465652,8.420309429575212e-05,"train",480.0,"2021-12-01 03:44:12.779621","","","","","","",""
0.0,0.1148233711719513,8.456036584667914e-05,"train",500.0,"2021-12-01 03:44:16.938546","","","","","","",""
0.0,0.10565853863954544,8.493217274032315e-05,"train",520.0,"2021-12-01 03:44:20.721593","","","","","","",""
0.0,0.10108669102191925,8.531850932029235e-05,"train",540.0,"2021-12-01 03:44:24.431236","","","","","","",""
0.0,0.1308053731918335,8.571936970915212e-05,"train",560.0,"2021-12-01 03:44:28.481086","","","","","","",""
0.0,0.11562293767929077,8.613474780851246e-05,"train",580.0,"2021-12-01 03:44:32.191016","","","","","","",""
0.0,0.11236268281936646,8.656463729912224e-05,"train",600.0,"2021-12-01 03:44:36.064690","","","","","","",""
0.0,0.09532549232244492,8.700903164096468e-05,"train",620.0,"2021-12-01 03:44:40.251232","","","","","","",""
0.0,0.10223185271024704,8.746792407335769e-05,"train",640.0,"2021-12-01 03:44:44.001101","","","","","","",""
0.0,0.10714047402143478,8.794130761505497e-05,"train",660.0,"2021-12-01 03:44:47.759002","","","","","","",""
0.0,0.0891679897904396,8.842917506435462e-05,"train",680.0,"2021-12-01 03:44:51.930322","","","","","","",""
0.0,0.10773974657058716,8.893151899920645e-05,"train",700.0,"2021-12-01 03:44:55.704634","","","","","","",""
0.0,0.08956771343946457,8.944833177732632e-05,"train",720.0,"2021-12-01 03:44:59.475008","","","","","","",""
0.0,0.12041523307561874,8.997960553631186e-05,"train",740.0,"2021-12-01 03:45:03.607803","","","","","","",""
0.0,0.13254359364509583,9.052533219376224e-05,"train",760.0,"2021-12-01 03:45:07.372630","","","","","","",""
0.0,0.1056378036737442,9.108550344740104e-05,"train",780.0,"2021-12-01 03:45:11.126202","","","","","","",""
0.0,0.10679357498884201,9.166011077520208e-05,"train",800.0,"2021-12-01 03:45:15.229016","","","","","","",""
0.0,0.1258012354373932,9.224914543552059e-05,"train",820.0,"2021-12-01 03:45:18.992138","","","","","","",""
0.0,0.10964687168598175,9.285259846722417e-05,"train",840.0,"2021-12-01 03:45:22.759947","","","","","","",""
0.0,0.11199355870485306,9.34704606898307e-05,"train",860.0,"2021-12-01 03:45:26.991014","","","","","","",""
0.0,0.09622699022293091,9.410272270364735e-05,"train",880.0,"2021-12-01 03:45:30.742019","","","","","","",""
0.0,0.1092417910695076,9.474937488991348e-05,"train",900.0,"2021-12-01 03:45:34.423450","","","","","","",""
0.0,0.09325354546308517,9.541040741094719e-05,"train",920.0,"2021-12-01 03:45:38.437579","","","","","","",""
0.0,0.09841535985469818,9.608581021029522e-05,"train",940.0,"2021-12-01 03:45:42.027303","","","","","","",""
0.0,0.1299593597650528,9.677557301288509e-05,"train",960.0,"2021-12-01 03:45:45.723278","","","","","","",""
0.0,0.07654624432325363,9.747968532518238e-05,"train",980.0,"2021-12-01 03:45:49.764626","","","","","","",""
0.0,0.11198464035987854,9.819813643535029e-05,"train",1000.0,"2021-12-01 03:45:53.498684","","","","","","",""
0.0,0.1269586980342865,9.893091541341185e-05,"train",1020.0,"2021-12-01 03:45:57.331328","","","","","","",""
0.0,0.1231788694858551,9.967801111141644e-05,"train",1040.0,"2021-12-01 03:46:01.347974","","","","","","",""
0.0,0.10880541056394577,0.00010043941216361023,"train",1060.0,"2021-12-01 03:46:04.981368","","","","","","",""
0.0,"","","train",1074.0,"2021-12-01 03:47:48.463650",0.3347304082078149,0.3062694980817397,0.8445686955626637,0.36372421788534665,0.2425978383183085,0.2321770500475234,0.14346742044115487
0.0,"","","val",1074.0,"2021-12-01 03:48:16.048955",0.32784413777107735,0.3024978802889574,0.8397936283568123,0.3556252750096038,0.23873403651700922,0.22638615667271095,0.13970814289901384
1.0,0.1056423932313919,0.00010121510698660771,"train",1080.0,"2021-12-01 03:48:26.114756","","","","","","",""
1.0,0.11146695911884308,0.00010200508377956928,"train",1100.0,"2021-12-01 03:48:30.045863","","","","","","",""
1.0,0.09371577203273773,0.00010280933052437993,"train",1120.0,"2021-12-01 03:48:34.289150","","","","","","",""
1.0,0.10566486418247223,0.00010362783498583223,"train",1140.0,"2021-12-01 03:48:38.019036","","","","","","",""
1.0,0.10696706920862198,0.0001044605847118124,"train",1160.0,"2021-12-01 03:48:41.753168","","","","","","",""
1.0,0.08201880007982254,0.0001053075670334907,"train",1180.0,"2021-12-01 03:48:45.866480","","","","","","",""
1.0,0.09754583984613419,0.00010616876906551181,"train",1200.0,"2021-12-01 03:48:49.601896","","","","","","",""
1.0,0.08571383357048035,0.0001070441777061941,"train",1220.0,"2021-12-01 03:48:53.246173","","","","","","",""
1.0,0.08325882256031036,0.00010793377963772563,"train",1240.0,"2021-12-01 03:48:57.264113","","","","","","",""
1.0,0.10470698773860931,0.0001088375613263698,"train",1260.0,"2021-12-01 03:49:01.107081","","","","","","",""
1.0,0.0937667116522789,0.00010975550902266908,"train",1280.0,"2021-12-01 03:49:04.797417","","","","","","",""
1.0,0.10033383965492249,0.00011068760876165474,"train",1300.0,"2021-12-01 03:49:08.849901","","","","","","",""
1.0,0.11073672026395798,0.0001116338463630598,"train",1320.0,"2021-12-01 03:49:12.544096","","","","","","",""
1.0,0.10719193518161774,0.00011259420743153455,"train",1340.0,"2021-12-01 03:49:16.281128","","","","","","",""
1.0,0.11196925491094589,0.00011356867735686535,"train",1360.0,"2021-12-01 03:49:20.433506","","","","","","",""
1.0,0.09520994871854782,0.00011455724131419621,"train",1380.0,"2021-12-01 03:49:24.212867","","","","","","",""
1.0,0.1013222485780716,0.00011555988426425654,"train",1400.0,"2021-12-01 03:49:27.969180","","","","","","",""
1.0,0.07689783722162247,0.00011657659095358746,"train",1420.0,"2021-12-01 03:49:32.114614","","","","","","",""
1.0,0.10172757506370544,0.00011760734591477516,"train",1440.0,"2021-12-01 03:49:35.877426","","","","","","",""
1.0,0.1033083125948906,0.00011865213346668618,"train",1460.0,"2021-12-01 03:49:39.627343","","","","","","",""
1.0,0.09815201163291931,0.00011971093771470502,"train",1480.0,"2021-12-01 03:49:43.825907","","","","","","",""
1.0,0.11089549213647842,0.0001207837425509777,"train",1500.0,"2021-12-01 03:49:47.544248","","","","","","",""
1.0,0.10574176162481308,0.00012187053165465503,"train",1520.0,"2021-12-01 03:49:51.402363","","","","","","",""
1.0,0.09797655791044235,0.000122971288492142,"train",1540.0,"2021-12-01 03:49:55.563970","","","","","","",""
1.0,0.09395966678857803,0.00012408599631734863,"train",1560.0,"2021-12-01 03:49:59.291357","","","","","","",""
1.0,0.07738672941923141,0.00012521463817194542,"train",1580.0,"2021-12-01 03:50:03.026956","","","","","","",""
1.0,0.1139131709933281,0.00012635719688562077,"train",1600.0,"2021-12-01 03:50:07.035282","","","","","","",""
1.0,0.08579375594854355,0.00012751365507634267,"train",1620.0,"2021-12-01 03:50:10.743079","","","","","","",""
1.0,0.11907503008842468,0.0001286839951506226,"train",1640.0,"2021-12-01 03:50:14.499483","","","","","","",""
1.0,0.07763870805501938,0.00012986819930378333,"train",1660.0,"2021-12-01 03:50:18.622750","","","","","","",""
1.0,0.0998048335313797,0.00013106624952023064,"train",1680.0,"2021-12-01 03:50:22.386354","","","","","","",""
1.0,0.09307749569416046,0.00013227812757372545,"train",1700.0,"2021-12-01 03:50:26.193199","","","","","","",""
1.0,0.10004935413599014,0.00013350381502766394,"train",1720.0,"2021-12-01 03:50:30.328750","","","","","","",""
1.0,0.12277545034885406,0.00013474329323535494,"train",1740.0,"2021-12-01 03:50:34.029918","","","","","","",""
1.0,0.09427499026060104,0.0001359965433403059,"train",1760.0,"2021-12-01 03:50:37.682346","","","","","","",""
1.0,0.11282680928707123,0.00013726354627650872,"train",1780.0,"2021-12-01 03:50:41.314909","","","","","","",""
1.0,0.09416281431913376,0.00013854428276873052,"train",1800.0,"2021-12-01 03:50:45.356522","","","","","","",""
1.0,0.10596247017383575,0.00013983873333280506,"train",1820.0,"2021-12-01 03:50:49.057616","","","","","","",""
1.0,0.09732329100370407,0.00014114687827593156,"train",1840.0,"2021-12-01 03:50:52.735374","","","","","","",""
1.0,0.08941885828971863,0.00014246869769697352,"train",1860.0,"2021-12-01 03:50:56.798318","","","","","","",""
1.0,0.10489426553249359,0.00014380417148676054,"train",1880.0,"2021-12-01 03:51:00.465639","","","","","","",""
1.0,0.09613833576440811,0.00014515327932839404,"train",1900.0,"2021-12-01 03:51:04.315055","","","","","","",""
1.0,0.09327647089958191,0.0001465160006975598,"train",1920.0,"2021-12-01 03:51:08.524650","","","","","","",""
1.0,0.11167658865451813,0.00014789231486283454,"train",1940.0,"2021-12-01 03:51:12.289307","","","","","","",""
1.0,0.08084133267402649,0.00014928220088600633,"train",1960.0,"2021-12-01 03:51:16.061203","","","","","","",""
1.0,0.09192071855068207,0.00015068563762239045,"train",1980.0,"2021-12-01 03:51:20.130973","","","","","","",""
1.0,0.1277000904083252,0.00015210260372115238,"train",2000.0,"2021-12-01 03:51:23.874303","","","","","","",""
1.0,0.1019471287727356,0.00015353307762563115,"train",2020.0,"2021-12-01 03:51:27.636112","","","","","","",""
1.0,0.08184366673231125,0.00015497703757366872,"train",2040.0,"2021-12-01 03:51:31.779504","","","","","","",""
1.0,0.0786934494972229,0.00015643446159794,"train",2060.0,"2021-12-01 03:51:35.436452","","","","","","",""
1.0,0.10583864897489548,0.0001579053275262887,"train",2080.0,"2021-12-01 03:51:39.101070","","","","","","",""
1.0,0.09587477147579193,0.00015938961298206183,"train",2100.0,"2021-12-01 03:51:43.101489","","","","","","",""
1.0,0.08061783760786057,0.00016088729538445297,"train",2120.0,"2021-12-01 03:51:46.729465","","","","","","",""
1.0,0.11203799396753311,0.000162398351948844,"train",2140.0,"2021-12-01 03:51:50.373662","","","","","","",""
1.0,"","","train",2148.0,"2021-12-01 03:53:33.374265",0.38876518955104417,0.40036769471921746,0.8975102733146219,0.43574989149887267,0.3133116482405347,0.3050962149115881,0.19042529226870364
1.0,"","","val",2148.0,"2021-12-01 03:54:01.448622",0.386582395917894,0.38914311378984734,0.8905649942362189,0.42925263110860473,0.3073287286078713,0.29659303811034826,0.1845462574530339
2.0,0.0706181675195694,0.00016392275968715297,"train",2160.0,"2021-12-01 03:54:11.566304","","","","","","",""
2.0,0.0844883844256401,0.00016546049540818223,"train",2180.0,"2021-12-01 03:54:15.387950","","","","","","",""
2.0,0.12045981734991074,0.00016701153571797313,"train",2200.0,"2021-12-01 03:54:19.218064","","","","","","",""
2.0,0.09329972416162491,0.00016857585702016015,"train",2220.0,"2021-12-01 03:54:23.491138","","","","","","",""
2.0,0.08175527304410934,0.00017015343551633126,"train",2240.0,"2021-12-01 03:54:27.359633","","","","","","",""
2.0,0.09986314922571182,0.0001717442472063892,"train",2260.0,"2021-12-01 03:54:31.214371","","","","","","",""
2.0,0.07920584827661514,0.00017334826788891681,"train",2280.0,"2021-12-01 03:54:35.497285","","","","","","",""
2.0,0.11451063305139542,0.00017496547316154555,"train",2300.0,"2021-12-01 03:54:39.337558","","","","","","",""
2.0,0.07603824138641357,0.00017659583842132573,"train",2320.0,"2021-12-01 03:54:43.317746","","","","","","",""
2.0,0.075722835958004,0.00017823933886510217,"train",2340.0,"2021-12-01 03:54:47.217175","","","","","","",""
2.0,0.07669542729854584,0.00017989594948989015,"train",2360.0,"2021-12-01 03:54:51.505845","","","","","","",""
2.0,0.08165468275547028,0.00018156564509325753,"train",2380.0,"2021-12-01 03:54:55.190241","","","","","","",""
2.0,0.09514513611793518,0.0001832484002737059,"train",2400.0,"2021-12-01 03:54:58.878972","","","","","","",""
2.0,0.10044856369495392,0.00018494418943105877,"train",2420.0,"2021-12-01 03:55:02.930803","","","","","","",""
2.0,0.09799658507108688,0.00018665298676685078,"train",2440.0,"2021-12-01 03:55:06.725671","","","","","","",""
2.0,0.08969935774803162,0.0001883747662847191,"train",2460.0,"2021-12-01 03:55:10.372621","","","","","","",""
2.0,0.07040121406316757,0.00019010950179080112,"train",2480.0,"2021-12-01 03:55:14.509467","","","","","","",""
2.0,0.12192258983850479,0.00019185716689412995,"train",2500.0,"2021-12-01 03:55:18.275833","","","","","","",""
2.0,0.0848832055926323,0.00019361773500703797,"train",2520.0,"2021-12-01 03:55:22.041436","","","","","","",""
2.0,0.11473475396633148,0.00019539117934556168,"train",2540.0,"2021-12-01 03:55:26.270857","","","","","","",""
2.0,0.08335831016302109,0.00019717747292984696,"train",2560.0,"2021-12-01 03:55:30.088108","","","","","","",""
2.0,0.0824378952383995,0.0001989765885845624,"train",2580.0,"2021-12-01 03:55:33.915752","","","","","","",""
2.0,0.10451366007328033,0.00020078849893931014,"train",2600.0,"2021-12-01 03:55:38.104506","","","","","","",""
2.0,0.07335791736841202,0.0002026131764290434,"train",2620.0,"2021-12-01 03:55:41.833359","","","","","","",""
2.0,0.09091553837060928,0.00020445059329448614,"train",2640.0,"2021-12-01 03:55:45.456815","","","","","","",""
2.0,0.0754864364862442,0.00020630072158255497,"train",2660.0,"2021-12-01 03:55:49.498125","","","","","","",""
2.0,0.08874132484197617,0.00020816353314678467,"train",2680.0,"2021-12-01 03:55:53.163532","","","","","","",""
2.0,0.09802034497261047,0.00021003899964775505,"train",2700.0,"2021-12-01 03:55:56.836535","","","","","","",""
2.0,0.08696484565734863,0.00021192709255352473,"train",2720.0,"2021-12-01 03:56:00.878799","","","","","","",""
2.0,0.07045271247625351,0.00021382778314006255,"train",2740.0,"2021-12-01 03:56:04.571414","","","","","","",""
2.0,0.08914326131343842,0.00021574104249168615,"train",2760.0,"2021-12-01 03:56:08.259380","","","","","","",""
2.0,0.06457268446683884,0.00021766684150150133,"train",2780.0,"2021-12-01 03:56:12.362921","","","","","","",""
2.0,0.0839480310678482,0.00021960515087184485,"train",2800.0,"2021-12-01 03:56:16.127496","","","","","","",""
2.0,0.08445268124341965,0.00022155594111472978,"train",2820.0,"2021-12-01 03:56:19.916438","","","","","","",""
2.0,0.09008537977933884,0.0002235191825522959,"train",2840.0,"2021-12-01 03:56:23.993543","","","","","","",""
2.0,0.08952664583921432,0.00022549484531725838,"train",2860.0,"2021-12-01 03:56:27.768739","","","","","","",""
2.0,0.07027751207351685,0.00022748289935336434,"train",2880.0,"2021-12-01 03:56:31.462771","","","","","","",""
2.0,0.07822229713201523,0.00022948331441584964,"train",2900.0,"2021-12-01 03:56:35.541751","","","","","","",""
2.0,0.0666140615940094,0.00023149606007189785,"train",2920.0,"2021-12-01 03:56:39.229849","","","","","","",""
2.0,0.06824905425310135,0.00023352110570110476,"train",2940.0,"2021-12-01 03:56:42.916973","","","","","","",""
2.0,0.11107951402664185,0.00023555842049594305,"train",2960.0,"2021-12-01 03:56:46.658511","","","","","","",""
2.0,0.09087841957807541,0.00023760797346223305,"train",2980.0,"2021-12-01 03:56:50.528804","","","","","","",""
2.0,0.07752756029367447,0.00023966973341961028,"train",3000.0,"2021-12-01 03:56:54.182801","","","","","","",""
2.0,0.09479087591171265,0.0002417436690020044,"train",3020.0,"2021-12-01 03:56:57.976211","","","","","","",""
2.0,0.08613939583301544,0.00024382974865811325,"train",3040.0,"2021-12-01 03:57:02.124153","","","","","","",""
2.0,0.08406122028827667,0.000245927940651884,"train",3060.0,"2021-12-01 03:57:05.917788","","","","","","",""
2.0,0.10518337041139603,0.0002480382130629953,"train",3080.0,"2021-12-01 03:57:09.610504","","","","","","",""
2.0,0.11002275347709656,0.0002501605337873443,"train",3100.0,"2021-12-01 03:57:13.768227","","","","","","",""
2.0,0.08620205521583557,0.0002522948705375337,"train",3120.0,"2021-12-01 03:57:17.427570","","","","","","",""
2.0,0.09883831441402435,0.00025444119084336303,"train",3140.0,"2021-12-01 03:57:21.101128","","","","","","",""
2.0,0.09526267647743225,0.00025659946205232364,"train",3160.0,"2021-12-01 03:57:25.167433","","","","","","",""
2.0,0.09431544691324234,0.0002587696513300941,"train",3180.0,"2021-12-01 03:57:28.873404","","","","","","",""
2.0,0.1119958832859993,0.0002609517256610412,"train",3200.0,"2021-12-01 03:57:32.563972","","","","","","",""
2.0,0.06489351391792297,0.00026314565184872084,"train",3220.0,"2021-12-01 03:57:36.619146","","","","","","",""
2.0,"","","train",3222.0,"2021-12-01 03:59:20.014725",0.4576875500254675,0.46238509968198555,0.9237759926565056,0.5229138458087454,0.3770726141632332,0.37164997195034444,0.23473224895442435
2.0,"","","val",3222.0,"2021-12-01 03:59:51.894266",0.45477212107155285,0.44771275054763454,0.9166881055152977,0.5105130339948003,0.363966465931797,0.3569666921565515,0.22266941415294492
3.0,0.10202255845069885,0.0002653513965163838,"train",3240.0,"2021-12-01 03:59:58.566727","","","","","","",""
3.0,0.07620277255773544,0.0002675689261074836,"train",3260.0,"2021-12-01 04:00:02.322533","","","","","","",""
3.0,0.07086930423974991,0.00026979820688618605,"train",3280.0,"2021-12-01 04:00:06.483402","","","","","","",""
3.0,0.05401909723877907,0.00027203920493788433,"train",3300.0,"2021-12-01 04:00:10.147130","","","","","","",""
3.0,0.08309777826070786,0.00027429188616971277,"train",3320.0,"2021-12-01 04:00:13.876790","","","","","","",""
3.0,0.07287891954183578,0.0002765562163110668,"train",3340.0,"2021-12-01 04:00:17.905971","","","","","","",""
3.0,0.09517095237970352,0.00027883216091412503,"train",3360.0,"2021-12-01 04:00:21.571620","","","","","","",""
3.0,0.09891528636217117,0.0002811196853543707,"train",3380.0,"2021-12-01 04:00:25.234824","","","","","","",""
3.0,0.09631313383579254,0.00028341875483112134,"train",3400.0,"2021-12-01 04:00:29.357047","","","","","","",""
3.0,0.0910993218421936,0.00028572933436805644,"train",3420.0,"2021-12-01 04:00:33.112165","","","","","","",""
3.0,0.08788681030273438,0.0002880513888137504,"train",3440.0,"2021-12-01 04:00:36.868605","","","","","","",""
3.0,0.07785740494728088,0.0002903848828422063,"train",3460.0,"2021-12-01 04:00:41.000745","","","","","","",""
3.0,0.10729466378688812,0.00029272978095339465,"train",3480.0,"2021-12-01 04:00:44.741785","","","","","","",""
3.0,0.06935407966375351,0.00029508604747379243,"train",3500.0,"2021-12-01 04:00:48.474862","","","","","","",""
3.0,0.07460114359855652,0.00029745364655692653,"train",3520.0,"2021-12-01 04:00:52.533589","","","","","","",""
3.0,0.08893081545829773,0.0002998325421839181,"train",3540.0,"2021-12-01 04:00:56.167514","","","","","","",""
3.0,0.09310156106948853,0.0003022226981640318,"train",3560.0,"2021-12-01 04:00:59.810387","","","","","","",""
3.0,0.08053690195083618,0.00030462407813522494,"train",3580.0,"2021-12-01 04:01:03.837878","","","","","","",""
3.0,0.09859536588191986,0.0003070366455647027,"train",3600.0,"2021-12-01 04:01:07.520063","","","","","","",""
3.0,0.06160366162657738,0.000309460363749471,"train",3620.0,"2021-12-01 04:01:11.167648","","","","","","",""
3.0,0.06850693374872208,0.0003118951958168978,"train",3640.0,"2021-12-01 04:01:14.790544","","","","","","",""
3.0,0.09489235281944275,0.0003143411047252722,"train",3660.0,"2021-12-01 04:01:18.769611","","","","","","",""
3.0,0.08129644393920898,0.0003167980532643691,"train",3680.0,"2021-12-01 04:01:22.392645","","","","","","",""
3.0,0.07927504181861877,0.0003192660040560141,"train",3700.0,"2021-12-01 04:01:26.068952","","","","","","",""
3.0,0.0761001855134964,0.0003217449195546528,"train",3720.0,"2021-12-01 04:01:30.083420","","","","","","",""
3.0,0.07137902081012726,0.00032423476204792244,"train",3740.0,"2021-12-01 04:01:33.763143","","","","","","",""
3.0,0.08153778314590454,0.0003267354936572248,"train",3760.0,"2021-12-01 04:01:37.448375","","","","","","",""
3.0,0.09952487051486969,0.0003292470763383026,"train",3780.0,"2021-12-01 04:01:41.466125","","","","","","",""
3.0,0.059687890112400055,0.0003317694718818192,"train",3800.0,"2021-12-01 04:01:45.106276","","","","","","",""
3.0,0.07486005127429962,0.00033430264191393853,"train",3820.0,"2021-12-01 04:01:48.752495","","","","","","",""
3.0,0.07731368392705917,0.0003368465478969097,"train",3840.0,"2021-12-01 04:01:52.866551","","","","","","",""
3.0,0.07570478320121765,0.0003394011511296533,"train",3860.0,"2021-12-01 04:01:56.614154","","","","","","",""
3.0,0.10288742929697037,0.0003419664127483496,"train",3880.0,"2021-12-01 04:02:00.342975","","","","","","",""
3.0,0.059676095843315125,0.00034454229372703074,"train",3900.0,"2021-12-01 04:02:04.493625","","","","","","",""
3.0,0.07503767311573029,0.00034712875487817314,"train",3920.0,"2021-12-01 04:02:08.234335","","","","","","",""
3.0,0.10422076284885406,0.00034972575685329526,"train",3940.0,"2021-12-01 04:02:11.956263","","","","","","",""
3.0,0.09057135879993439,0.0003523332601435541,"train",3960.0,"2021-12-01 04:02:16.035967","","","","","","",""
3.0,0.09379129856824875,0.00035495122508034916,"train",3980.0,"2021-12-01 04:02:19.744801","","","","","","",""
3.0,0.0648948922753334,0.0003575796118359231,"train",4000.0,"2021-12-01 04:02:23.502689","","","","","","",""
3.0,0.0807582437992096,0.00036021838042396906,"train",4020.0,"2021-12-01 04:02:27.607446","","","","","","",""
3.0,0.06791875511407852,0.0003628674907002389,"train",4040.0,"2021-12-01 04:02:31.357270","","","","","","",""
3.0,0.07870320230722427,0.00036552690236315395,"train",4060.0,"2021-12-01 04:02:34.969511","","","","","","",""
3.0,0.08272218704223633,0.00036819657495441773,"train",4080.0,"2021-12-01 04:02:39.104117","","","","","","",""
3.0,0.07026779651641846,0.0003708764678596317,"train",4100.0,"2021-12-01 04:02:42.905353","","","","","","",""
3.0,0.08581704646348953,0.00037356654030891293,"train",4120.0,"2021-12-01 04:02:46.614634","","","","","","",""
3.0,0.10453573614358902,0.0003762667513775148,"train",4140.0,"2021-12-01 04:02:50.720661","","","","","","",""
3.0,0.07403888553380966,0.0003789770599864498,"train",4160.0,"2021-12-01 04:02:54.444870","","","","","","",""
3.0,0.08309096843004227,0.000381697424903113,"train",4180.0,"2021-12-01 04:02:58.171612","","","","","","",""
3.0,0.07367213070392609,0.0003844278047419108,"train",4200.0,"2021-12-01 04:03:02.263953","","","","","","",""
3.0,0.0923885852098465,0.0003871681579648903,"train",4220.0,"2021-12-01 04:03:06.020610","","","","","","",""
3.0,0.10097215324640274,0.0003899184428823709,"train",4240.0,"2021-12-01 04:03:09.748849","","","","","","",""
3.0,0.07529880851507187,0.0003926786176535783,"train",4260.0,"2021-12-01 04:03:13.785410","","","","","","",""
3.0,0.10822498053312302,0.0003954486402872818,"train",4280.0,"2021-12-01 04:03:17.431813","","","","","","",""
3.0,"","","train",4296.0,"2021-12-01 04:05:05.042796",0.5275558466128211,0.5150946170968108,0.9386819035381847,0.5788315230869232,0.4213156726330008,0.4257153018222239,0.2764192150974978
3.0,"","","val",4296.0,"2021-12-01 04:05:32.910999",0.5175113069697321,0.4909235598410326,0.9285900161371701,0.5630614504959471,0.40594348032086874,0.4065852169535328,0.2626065609477201
4.0,0.08391841500997543,0.0003982284686424324,"train",4300.0,"2021-12-01 04:05:40.033369","","","","","","",""
4.0,0.07113789767026901,0.0004010180604288045,"train",4320.0,"2021-12-01 04:05:43.843071","","","","","","",""
4.0,0.07984399795532227,0.00040381737320763873,"train",4340.0,"2021-12-01 04:05:48.030298","","","","","","",""
4.0,0.0709320604801178,0.0004066263643922878,"train",4360.0,"2021-12-01 04:05:51.863381","","","","","","",""
4.0,0.09271205961704254,0.0004094449912488646,"train",4380.0,"2021-12-01 04:05:55.668301","","","","","","",""
4.0,0.06055385619401932,0.0004122732108968923,"train",4400.0,"2021-12-01 04:05:59.770517","","","","","","",""
4.0,0.0860099270939827,0.0004151109803099558,"train",4420.0,"2021-12-01 04:06:03.474573","","","","","","",""
4.0,0.05919612571597099,0.00041795825631635764,"train",4440.0,"2021-12-01 04:06:07.116173","","","","","","",""
4.0,0.11208239197731018,0.0004208149955997739,"train",4460.0,"2021-12-01 04:06:11.228997","","","","","","",""
4.0,0.07331192493438721,0.0004236811546999141,"train",4480.0,"2021-12-01 04:06:14.889125","","","","","","",""
4.0,0.058539990335702896,0.0004265566900131805,"train",4500.0,"2021-12-01 04:06:18.555724","","","","","","",""
4.0,0.07101594656705856,0.0004294415577933337,"train",4520.0,"2021-12-01 04:06:22.617992","","","","","","",""
4.0,0.10857046395540237,0.00043233571415215717,"train",4540.0,"2021-12-01 04:06:26.311427","","","","","","",""
4.0,0.08574145287275314,0.0004352391150601242,"train",4560.0,"2021-12-01 04:06:30.094578","","","","","","",""
4.0,0.09135332703590393,0.0004381517163470684,"train",4580.0,"2021-12-01 04:06:34.217868","","","","","","",""
4.0,0.09949081391096115,0.00044107347370285683,"train",4600.0,"2021-12-01 04:06:37.943496","","","","","","",""
4.0,0.08199597895145416,0.00044400434267806194,"train",4620.0,"2021-12-01 04:06:41.651761","","","","","","",""
4.0,0.04783182963728905,0.00044694427868463907,"train",4640.0,"2021-12-01 04:06:45.763542","","","","","","",""
4.0,0.09345628321170807,0.00044989323699660467,"train",4660.0,"2021-12-01 04:06:49.436173","","","","","","",""
4.0,0.07657784968614578,0.0004528511727507165,"train",4680.0,"2021-12-01 04:06:53.172178","","","","","","",""
4.0,0.07022689282894135,0.00045581804094715645,"train",4700.0,"2021-12-01 04:06:57.198410","","","","","","",""
4.0,0.08341549336910248,0.00045879379645021425,"train",4720.0,"2021-12-01 04:07:00.816560","","","","","","",""
4.0,0.06590579450130463,0.0004617783939889759,"train",4740.0,"2021-12-01 04:07:04.465037","","","","","","",""
4.0,0.08160541206598282,0.0004647717881580103,"train",4760.0,"2021-12-01 04:07:08.554031","","","","","","",""
4.0,0.09368571639060974,0.0004677739334180617,"train",4780.0,"2021-12-01 04:07:12.225179","","","","","","",""
4.0,0.05962355062365532,0.00047078478409674144,"train",4800.0,"2021-12-01 04:07:15.851961","","","","","","",""
4.0,0.08023151010274887,0.00047380429438922305,"train",4820.0,"2021-12-01 04:07:19.879523","","","","","","",""
4.0,0.08225852251052856,0.00047683241835893946,"train",4840.0,"2021-12-01 04:07:23.444192","","","","","","",""
4.0,0.06344892084598541,0.0004798691099382815,"train",4860.0,"2021-12-01 04:07:26.969208","","","","","","",""
4.0,0.06167823448777199,0.0004829143229292986,"train",4880.0,"2021-12-01 04:07:30.495486","","","","","","",""
4.0,0.0849025622010231,0.0004859680110044023,"train",4900.0,"2021-12-01 04:07:34.410703","","","","","","",""
4.0,0.08846240490674973,0.0004890301277070699,"train",4920.0,"2021-12-01 04:07:38.100618","","","","","","",""
4.0,0.08018726110458374,0.0004921006264525525,"train",4940.0,"2021-12-01 04:07:41.823782","","","","","","",""
4.0,0.07573340833187103,0.0004951794605285824,"train",4960.0,"2021-12-01 04:07:45.985016","","","","","","",""
4.0,0.12323469668626785,0.0004982665830960853,"train",4980.0,"2021-12-01 04:07:49.715704","","","","","","",""
4.0,0.07046949863433838,0.0005013619471898913,"train",5000.0,"2021-12-01 04:07:53.402982","","","","","","",""
4.0,0.052245885133743286,0.0005044655057194504,"train",5020.0,"2021-12-01 04:07:57.447752","","","","","","",""
4.0,0.09247276186943054,0.0005075772114695486,"train",5040.0,"2021-12-01 04:08:01.191643","","","","","","",""
4.0,0.11124488711357117,0.0005106970171010257,"train",5060.0,"2021-12-01 04:08:05.002031","","","","","","",""
4.0,0.09650573879480362,0.0005138248751514966,"train",5080.0,"2021-12-01 04:08:09.191550","","","","","","",""
4.0,0.0899461880326271,0.0005169607380360731,"train",5100.0,"2021-12-01 04:08:12.920502","","","","","","",""
4.0,0.08236817270517349,0.000520104558048086,"train",5120.0,"2021-12-01 04:08:16.689930","","","","","","",""
4.0,0.1199973076581955,0.0005232562873598136,"train",5140.0,"2021-12-01 04:08:20.798263","","","","","","",""
4.0,0.06440577656030655,0.0005264158780232072,"train",5160.0,"2021-12-01 04:08:24.461013","","","","","","",""
4.0,0.10288085043430328,0.0005295832819706228,"train",5180.0,"2021-12-01 04:08:28.135952","","","","","","",""
4.0,0.09409051388502121,0.0005327584510155488,"train",5200.0,"2021-12-01 04:08:32.194382","","","","","","",""
4.0,0.07766377925872803,0.000535941336853343,"train",5220.0,"2021-12-01 04:08:35.895926","","","","","","",""
4.0,0.060265734791755676,0.0005391318910619655,"train",5240.0,"2021-12-01 04:08:39.654252","","","","","","",""
4.0,0.07313080877065659,0.0005423300651027144,"train",5260.0,"2021-12-01 04:08:43.781507","","","","","","",""
4.0,0.05367494374513626,0.0005455358103209663,"train",5280.0,"2021-12-01 04:08:47.539161","","","","","","",""
4.0,0.07230478525161743,0.0005487490779469157,"train",5300.0,"2021-12-01 04:08:51.211942","","","","","","",""
4.0,0.07381819933652878,0.000551969819096316,"train",5320.0,"2021-12-01 04:08:55.271049","","","","","","",""
4.0,0.054960187524557114,0.0005551979847712252,"train",5340.0,"2021-12-01 04:08:58.944539","","","","","","",""
4.0,0.07841982692480087,0.0005584335258607489,"train",5360.0,"2021-12-01 04:09:02.656460","","","","","","",""
4.0,"","","train",5370.0,"2021-12-01 04:10:47.022145",0.5461107472895292,0.5576259412841161,0.9487111332347037,0.6192616447691821,0.473163909653949,0.47420316123020584,0.313556412098172
4.0,"","","val",5370.0,"2021-12-01 04:11:14.780593",0.5277745564188797,0.5242251963395697,0.9380408989192007,0.5957501658432166,0.45007936053967124,0.44793831165852066,0.29250522854239497
5.0,0.06926462799310684,0.0005616763931417894,"train",5380.0,"2021-12-01 04:11:20.533049","","","","","","",""
5.0,0.07222122699022293,0.0005649265372797939,"train",5400.0,"2021-12-01 04:11:24.372328","","","","","","",""
5.0,0.10138743370771408,0.0005681839088295046,"train",5420.0,"2021-12-01 04:11:28.137747","","","","","","",""
5.0,0.061044804751873016,0.0005714484582357109,"train",5440.0,"2021-12-01 04:11:31.933595","","","","","","",""
5.0,0.06718694418668747,0.0005747201358340048,"train",5460.0,"2021-12-01 04:11:36.048247","","","","","","",""
5.0,0.057983435690402985,0.0005779988918515344,"train",5480.0,"2021-12-01 04:11:39.848238","","","","","","",""
5.0,0.11070769280195236,0.0005812846764077623,"train",5500.0,"2021-12-01 04:11:43.587946","","","","","","",""
5.0,0.07046794146299362,0.0005845774395152243,"train",5520.0,"2021-12-01 04:11:47.740976","","","","","","",""
5.0,0.09662118554115295,0.0005878771310802895,"train",5540.0,"2021-12-01 04:11:51.515127","","","","","","",""
5.0,0.0794537290930748,0.0005911837009039229,"train",5560.0,"2021-12-01 04:11:55.297032","","","","","","",""
5.0,0.08463796973228455,0.0005944970986824485,"train",5580.0,"2021-12-01 04:11:59.484664","","","","","","",""
5.0,0.08516287803649902,0.000597817274008315,"train",5600.0,"2021-12-01 04:12:03.290953","","","","","","",""
5.0,0.1058669462800026,0.0006011441763708635,"train",5620.0,"2021-12-01 04:12:07.040984","","","","","","",""
5.0,0.08404363691806793,0.0006044777551570929,"train",5640.0,"2021-12-01 04:12:11.194216","","","","","","",""
5.0,0.079766184091568,0.000607817959652434,"train",5660.0,"2021-12-01 04:12:14.984669","","","","","","",""
5.0,0.08877378702163696,0.0006111647390415189,"train",5680.0,"2021-12-01 04:12:18.794383","","","","","","",""
5.0,0.07136058062314987,0.0006145180424089525,"train",5700.0,"2021-12-01 04:12:23.031819","","","","","","",""
5.0,0.05803627520799637,0.0006178778187400902,"train",5720.0,"2021-12-01 04:12:26.831294","","","","","","",""
5.0,0.08398500829935074,0.0006212440169218129,"train",5740.0,"2021-12-01 04:12:30.680940","","","","","","",""
5.0,0.05487731844186783,0.0006246165857433027,"train",5760.0,"2021-12-01 04:12:34.870370","","","","","","",""
5.0,0.06021250784397125,0.0006279954738968251,"train",5780.0,"2021-12-01 04:12:38.665452","","","","","","",""
5.0,0.10988576710224152,0.0006313806299785075,"train",5800.0,"2021-12-01 04:12:42.431645","","","","","","",""
5.0,0.07733862847089767,0.0006347720024891209,"train",5820.0,"2021-12-01 04:12:46.586650","","","","","","",""
5.0,0.06347779184579849,0.0006381695398348657,"train",5840.0,"2021-12-01 04:12:50.374644","","","","","","",""
5.0,0.09190034866333008,0.0006415731903281542,"train",5860.0,"2021-12-01 04:12:54.178972","","","","","","",""
5.0,0.06006893143057823,0.0006449829021883979,"train",5880.0,"2021-12-01 04:12:58.334726","","","","","","",""
5.0,0.09574893862009048,0.0006483986235427956,"train",5900.0,"2021-12-01 04:13:02.118201","","","","","","",""
5.0,0.06717006862163544,0.0006518203024271213,"train",5920.0,"2021-12-01 04:13:05.914488","","","","","","",""
5.0,0.067693792283535,0.0006552478867865169,"train",5940.0,"2021-12-01 04:13:10.081113","","","","","","",""
5.0,0.08643469959497452,0.0006586813244762815,"train",5960.0,"2021-12-01 04:13:13.845963","","","","","","",""
5.0,0.07623287290334702,0.0006621205632626672,"train",5980.0,"2021-12-01 04:13:17.567894","","","","","","",""
5.0,0.08074270933866501,0.0006655655508236717,"train",6000.0,"2021-12-01 04:13:21.648885","","","","","","",""
5.0,0.08389271795749664,0.0006690162347498356,"train",6020.0,"2021-12-01 04:13:25.345796","","","","","","",""
5.0,0.09337466210126877,0.0006724725625450389,"train",6040.0,"2021-12-01 04:13:29.080821","","","","","","",""
5.0,0.07707630842924118,0.0006759344816273003,"train",6060.0,"2021-12-01 04:13:33.218090","","","","","","",""
5.0,0.06896308809518814,0.0006794019393295771,"train",6080.0,"2021-12-01 04:13:37.005967","","","","","","",""
5.0,0.07011067122220993,0.0006828748829005654,"train",6100.0,"2021-12-01 04:13:40.773602","","","","","","",""
5.0,0.09621204435825348,0.0006863532595055041,"train",6120.0,"2021-12-01 04:13:44.536686","","","","","","",""
5.0,0.05840650200843811,0.0006898370162269777,"train",6140.0,"2021-12-01 04:13:48.679836","","","","","","",""
5.0,0.10135854780673981,0.0006933261000657217,"train",6160.0,"2021-12-01 04:13:52.388881","","","","","","",""
5.0,0.07466462254524231,0.000696820457941429,"train",6180.0,"2021-12-01 04:13:56.157701","","","","","","",""
5.0,0.07037534564733505,0.000700320036693557,"train",6200.0,"2021-12-01 04:14:00.248248","","","","","","",""
5.0,0.049111757427453995,0.0007038247830821358,"train",6220.0,"2021-12-01 04:14:03.893320","","","","","","",""
5.0,0.07495316863059998,0.0007073346437885815,"train",6240.0,"2021-12-01 04:14:07.592150","","","","","","",""
5.0,0.08214714378118515,0.000710849565416502,"train",6260.0,"2021-12-01 04:14:11.741317","","","","","","",""
5.0,0.08501918613910675,0.0007143694944925134,"train",6280.0,"2021-12-01 04:14:15.501057","","","","","","",""
5.0,0.0823298990726471,0.0007178943774670524,"train",6300.0,"2021-12-01 04:14:19.279674","","","","","","",""
5.0,0.07758177816867828,0.0007214241607151901,"train",6320.0,"2021-12-01 04:14:23.441064","","","","","","",""
5.0,0.08348623663187027,0.000724958790537449,"train",6340.0,"2021-12-01 04:14:27.171734","","","","","","",""
5.0,0.06258449703454971,0.0007284982131606195,"train",6360.0,"2021-12-01 04:14:30.885477","","","","","","",""
5.0,0.04962369427084923,0.0007320423747385781,"train",6380.0,"2021-12-01 04:14:35.013200","","","","","","",""
5.0,0.057203881442546844,0.0007355912213531054,"train",6400.0,"2021-12-01 04:14:38.740581","","","","","","",""
5.0,0.08225299417972565,0.000739144699014708,"train",6420.0,"2021-12-01 04:14:42.485818","","","","","","",""
5.0,0.07326436787843704,0.0007427027536634401,"train",6440.0,"2021-12-01 04:14:46.599735","","","","","","",""
5.0,"","","train",6444.0,"2021-12-01 04:16:30.158338",0.5387033398821218,0.5776225301612155,0.9512483113100986,0.6289681784376515,0.47033097903239,0.4817006965893528,0.31462232000206203
5.0,"","","val",6444.0,"2021-12-01 04:17:01.909109",0.5240635509683405,0.5417052235014593,0.938092381438905,0.6046563115683075,0.4439560463712465,0.4521784486145144,0.2919212249214972
6.0,0.1012103259563446,0.0007462653311697235,"train",6460.0,"2021-12-01 04:17:08.229712","","","","","","",""
6.0,0.06138504669070244,0.0007498323773351733,"train",6480.0,"2021-12-01 04:17:11.921511","","","","","","",""
6.0,0.06148392707109451,0.0007534038378934223,"train",6500.0,"2021-12-01 04:17:16.103223","","","","","","",""
6.0,0.06422696262598038,0.0007569796585109453,"train",6520.0,"2021-12-01 04:17:19.784651","","","","","","",""
6.0,0.09374949336051941,0.0007605597847878862,"train",6540.0,"2021-12-01 04:17:23.486589","","","","","","",""
6.0,0.06448618322610855,0.0007641441622588871,"train",6560.0,"2021-12-01 04:17:27.575629","","","","","","",""
6.0,0.07403912395238876,0.0007677327363939143,"train",6580.0,"2021-12-01 04:17:31.325765","","","","","","",""
6.0,0.06918965280056,0.0007713254525990895,"train",6600.0,"2021-12-01 04:17:35.088314","","","","","","",""
6.0,0.10610519349575043,0.0007749222562175211,"train",6620.0,"2021-12-01 04:17:39.277971","","","","","","",""
6.0,0.06893458962440491,0.000778523092530133,"train",6640.0,"2021-12-01 04:17:43.054634","","","","","","",""
6.0,0.0705999881029129,0.0007821279067564996,"train",6660.0,"2021-12-01 04:17:46.746957","","","","","","",""
6.0,0.06811212003231049,0.0007857366440556786,"train",6680.0,"2021-12-01 04:17:50.840931","","","","","","",""
6.0,0.06838444620370865,0.0007893492495270442,"train",6700.0,"2021-12-01 04:17:54.509573","","","","","","",""
6.0,0.08073582500219345,0.0007929656682111239,"train",6720.0,"2021-12-01 04:17:58.162717","","","","","","",""
6.0,0.05502369999885559,0.0007965858450904332,"train",6740.0,"2021-12-01 04:18:02.180323","","","","","","",""
6.0,0.08394858986139297,0.000800209725090314,"train",6760.0,"2021-12-01 04:18:05.895484","","","","","","",""
6.0,0.07179640978574753,0.0008038372530797706,"train",6780.0,"2021-12-01 04:18:09.601240","","","","","","",""
6.0,0.09644923359155655,0.0008074683738723109,"train",6800.0,"2021-12-01 04:18:13.687773","","","","","","",""
6.0,0.08362932503223419,0.0008111030322267832,"train",6820.0,"2021-12-01 04:18:17.403102","","","","","","",""
6.0,0.0716734528541565,0.0008147411728482187,"train",6840.0,"2021-12-01 04:18:21.149667","","","","","","",""
6.0,0.10096865892410278,0.0008183827403886721,"train",6860.0,"2021-12-01 04:18:24.990003","","","","","","",""
6.0,0.05882077291607857,0.0008220276794480633,"train",6880.0,"2021-12-01 04:18:29.111023","","","","","","",""
6.0,0.06678424030542374,0.0008256759345750203,"train",6900.0,"2021-12-01 04:18:32.838710","","","","","","",""
6.0,0.05919679254293442,0.0008293274502677234,"train",6920.0,"2021-12-01 04:18:36.561153","","","","","","",""
6.0,0.0652136281132698,0.0008329821709747486,"train",6940.0,"2021-12-01 04:18:40.658012","","","","","","",""
6.0,0.06140739098191261,0.0008366400410959136,"train",6960.0,"2021-12-01 04:18:44.454164","","","","","","",""
6.0,0.0808100551366806,0.000840301004983123,"train",6980.0,"2021-12-01 04:18:48.263387","","","","","","",""
6.0,0.05644642189145088,0.0008439650069412147,"train",7000.0,"2021-12-01 04:18:52.399366","","","","","","",""
6.0,0.0671861320734024,0.0008476319912288095,"train",7020.0,"2021-12-01 04:18:56.145474","","","","","","",""
6.0,0.07137066125869751,0.0008513019020591544,"train",7040.0,"2021-12-01 04:18:59.829989","","","","","","",""
6.0,0.075072281062603,0.0008549746836009771,"train",7060.0,"2021-12-01 04:19:04.012659","","","","","","",""
6.0,0.0678320825099945,0.0008586502799793306,"train",7080.0,"2021-12-01 04:19:07.752757","","","","","","",""
6.0,0.061989717185497284,0.0008623286352764453,"train",7100.0,"2021-12-01 04:19:11.453256","","","","","","",""
6.0,0.09751074761152267,0.0008660096935325802,"train",7120.0,"2021-12-01 04:19:15.519901","","","","","","",""
6.0,0.06303386390209198,0.0008696933987468731,"train",7140.0,"2021-12-01 04:19:19.249826","","","","","","",""
6.0,0.10099508613348007,0.0008733796948781924,"train",7160.0,"2021-12-01 04:19:23.049858","","","","","","",""
6.0,0.05203846096992493,0.0008770685258459915,"train",7180.0,"2021-12-01 04:19:27.386253","","","","","","",""
6.0,0.04616598039865494,0.0008807598355311595,"train",7200.0,"2021-12-01 04:19:31.287423","","","","","","",""
6.0,0.06842869520187378,0.0008844535677768764,"train",7220.0,"2021-12-01 04:19:35.040595","","","","","","",""
6.0,0.07790795713663101,0.0008881496663894681,"train",7240.0,"2021-12-01 04:19:39.146536","","","","","","",""
6.0,0.0526144839823246,0.0008918480751392592,"train",7260.0,"2021-12-01 04:19:42.996579","","","","","","",""
6.0,0.09228743612766266,0.00089554873776143,"train",7280.0,"2021-12-01 04:19:46.861483","","","","","","",""
6.0,0.04979082569479942,0.0008992515979568724,"train",7300.0,"2021-12-01 04:19:51.056336","","","","","","",""
6.0,0.08384008705615997,0.0009029565993930457,"train",7320.0,"2021-12-01 04:19:54.912561","","","","","","",""
6.0,0.07474130392074585,0.0009066636857048339,"train",7340.0,"2021-12-01 04:19:58.740742","","","","","","",""
6.0,0.057230059057474136,0.0009103728004954039,"train",7360.0,"2021-12-01 04:20:02.965065","","","","","","",""
6.0,0.05972485989332199,0.0009140838873370617,"train",7380.0,"2021-12-01 04:20:06.801134","","","","","","",""
6.0,0.07253985852003098,0.0009177968897721136,"train",7400.0,"2021-12-01 04:20:10.644542","","","","","","",""
6.0,0.08147245645523071,0.0009215117513137218,"train",7420.0,"2021-12-01 04:20:14.471735","","","","","","",""
6.0,0.055095989257097244,0.0009252284154467663,"train",7440.0,"2021-12-01 04:20:18.699599","","","","","","",""
6.0,0.053285565227270126,0.0009289468256287042,"train",7460.0,"2021-12-01 04:20:22.516502","","","","","","",""
6.0,0.07085151970386505,0.0009326669252904287,"train",7480.0,"2021-12-01 04:20:26.295709","","","","","","",""
6.0,0.06671265512704849,0.0009363886578371307,"train",7500.0,"2021-12-01 04:20:30.521275","","","","","","",""
6.0,"","","train",7518.0,"2021-12-01 04:22:15.636884",0.5988503238012078,0.62021566169312,0.9605383082215884,0.6497808498612729,0.5165963817650215,0.5263624430136328,0.35184174506567706
6.0,"","","val",7518.0,"2021-12-01 04:22:43.255592",0.5732343731879856,0.5725405663984361,0.9477548254713348,0.6169272066643154,0.4821049077126426,0.48741832474252766,0.31844280927482704
7.0,0.06872239708900452,0.0009401119666491604,"train",7520.0,"2021-12-01 04:22:46.883793","","","","","","",""
7.0,0.05653312802314758,0.0009438367950828869,"train",7540.0,"2021-12-01 04:22:50.777069","","","","","","",""
7.0,0.07832188159227371,0.000947563086471561,"train",7560.0,"2021-12-01 04:22:54.993036","","","","","","",""
7.0,0.04682047665119171,0.0009512907841261783,"train",7580.0,"2021-12-01 04:22:58.616676","","","","","","",""
7.0,0.04948382079601288,0.0009550198313363391,"train",7600.0,"2021-12-01 04:23:02.311823","","","","","","",""
7.0,0.09403970837593079,0.0009587501713711128,"train",7620.0,"2021-12-01 04:23:06.475210","","","","","","",""
7.0,0.06399301439523697,0.0009624817474799023,"train",7640.0,"2021-12-01 04:23:10.204824","","","","","","",""
7.0,0.06937289983034134,0.0009662145028933038,"train",7660.0,"2021-12-01 04:23:13.905901","","","","","","",""
7.0,0.04980407655239105,0.0009699483808239733,"train",7680.0,"2021-12-01 04:23:17.951170","","","","","","",""
7.0,0.09617757797241211,0.0009736833244674895,"train",7700.0,"2021-12-01 04:23:21.642733","","","","","","",""
7.0,0.05451733618974686,0.0009774192770032192,"train",7720.0,"2021-12-01 04:23:25.257806","","","","","","",""
7.0,0.06348414719104767,0.0009811561815951785,"train",7740.0,"2021-12-01 04:23:29.244225","","","","","","",""
7.0,0.07816480100154877,0.0009848939813929015,"train",7760.0,"2021-12-01 04:23:32.871340","","","","","","",""
7.0,0.10557326674461365,0.0009886326195323026,"train",7780.0,"2021-12-01 04:23:36.481859","","","","","","",""
7.0,0.10156507045030594,0.0009923720391365428,"train",7800.0,"2021-12-01 04:23:40.476394","","","","","","",""
7.0,0.04865262284874916,0.000996112183316893,"train",7820.0,"2021-12-01 04:23:44.085529","","","","","","",""
7.0,0.07445812970399857,0.0009998529951736029,"train",7840.0,"2021-12-01 04:23:47.782101","","","","","","",""
7.0,0.06975793838500977,0.0010035944177967638,"train",7860.0,"2021-12-01 04:23:51.856550","","","","","","",""
7.0,0.07556848227977753,0.0010073363942671744,"train",7880.0,"2021-12-01 04:23:55.574475","","","","","","",""
7.0,0.07491680234670639,0.0010110788676572094,"train",7900.0,"2021-12-01 04:23:59.324696","","","","","","",""
7.0,0.06337662786245346,0.0010148217810316822,"train",7920.0,"2021-12-01 04:24:03.381245","","","","","","",""
7.0,0.04794152453541756,0.0010185650774487127,"train",7940.0,"2021-12-01 04:24:07.051330","","","","","","",""
7.0,0.0653112530708313,0.0010223086999605951,"train",7960.0,"2021-12-01 04:24:10.724955","","","","","","",""
7.0,0.06208695098757744,0.0010260525916146609,"train",7980.0,"2021-12-01 04:24:14.753487","","","","","","",""
7.0,0.10120633989572525,0.0010297966954541469,"train",8000.0,"2021-12-01 04:24:18.387032","","","","","","",""
7.0,0.09708662331104279,0.001033540954519064,"train",8020.0,"2021-12-01 04:24:22.130696","","","","","","",""
7.0,0.08301304280757904,0.0010372853118470592,"train",8040.0,"2021-12-01 04:24:25.884802","","","","","","",""
7.0,0.0730946883559227,0.0010410297104742857,"train",8060.0,"2021-12-01 04:24:30.002591","","","","","","",""
7.0,0.06166311353445053,0.0010447740934362692,"train",8080.0,"2021-12-01 04:24:33.734830","","","","","","",""
7.0,0.0511292889714241,0.0010485184037687715,"train",8100.0,"2021-12-01 04:24:37.491523","","","","","","",""
7.0,0.07662282139062881,0.0010522625845086615,"train",8120.0,"2021-12-01 04:24:41.558243","","","","","","",""
7.0,0.10059839487075806,0.0010560065786947796,"train",8140.0,"2021-12-01 04:24:45.237539","","","","","","",""
7.0,0.05210202559828758,0.0010597503293688013,"train",8160.0,"2021-12-01 04:24:48.909062","","","","","","",""
7.0,0.06271745264530182,0.001063493779576111,"train",8180.0,"2021-12-01 04:24:52.982077","","","","","","",""
7.0,0.05650416016578674,0.0010672368723666614,"train",8200.0,"2021-12-01 04:24:56.733692","","","","","","",""
7.0,0.0861898884177208,0.0010709795507958426,"train",8220.0,"2021-12-01 04:25:00.562076","","","","","","",""
7.0,0.06127823144197464,0.0010747217579253504,"train",8240.0,"2021-12-01 04:25:04.673326","","","","","","",""
7.0,0.0651862770318985,0.0010784634368240487,"train",8260.0,"2021-12-01 04:25:08.368086","","","","","","",""
7.0,0.08197333663702011,0.0010822045305688382,"train",8280.0,"2021-12-01 04:25:12.083423","","","","","","",""
7.0,0.09373264759778976,0.0010859449822455227,"train",8300.0,"2021-12-01 04:25:16.171654","","","","","","",""
7.0,0.06533734500408173,0.001089684734949672,"train",8320.0,"2021-12-01 04:25:19.869444","","","","","","",""
7.0,0.06795434653759003,0.00109342373178749,"train",8340.0,"2021-12-01 04:25:23.550968","","","","","","",""
7.0,0.08879214525222778,0.0010971619158766821,"train",8360.0,"2021-12-01 04:25:27.609122","","","","","","",""
7.0,0.05698787048459053,0.0011008992303473152,"train",8380.0,"2021-12-01 04:25:31.244884","","","","","","",""
7.0,0.0691748633980751,0.001104635618342687,"train",8400.0,"2021-12-01 04:25:34.994687","","","","","","",""
7.0,0.061364397406578064,0.001108371023020191,"train",8420.0,"2021-12-01 04:25:39.149846","","","","","","",""
7.0,0.06419626623392105,0.0011121053875521787,"train",8440.0,"2021-12-01 04:25:42.873998","","","","","","",""
7.0,0.09804722666740417,0.0011158386551268257,"train",8460.0,"2021-12-01 04:25:46.605425","","","","","","",""
7.0,0.07878600060939789,0.0011195707689489972,"train",8480.0,"2021-12-01 04:25:50.731591","","","","","","",""
7.0,0.08213347941637039,0.0011233016722411097,"train",8500.0,"2021-12-01 04:25:54.475275","","","","","","",""
7.0,0.060782864689826965,0.0011270313082439951,"train",8520.0,"2021-12-01 04:25:58.233513","","","","","","",""
7.0,0.07177150249481201,0.001130759620217767,"train",8540.0,"2021-12-01 04:26:02.400151","","","","","","",""
7.0,0.07271962612867355,0.0011344865514426794,"train",8560.0,"2021-12-01 04:26:06.147840","","","","","","",""
7.0,0.0735648050904274,0.0011382120452199938,"train",8580.0,"2021-12-01 04:26:09.890008","","","","","","",""
7.0,"","","train",8592.0,"2021-12-01 04:27:54.112178",0.6128647311358509,0.6337822632835646,0.9609578576667026,0.6400153955154135,0.5104161373377256,0.5268283629533953,0.35335768349976454
7.0,"","","val",8592.0,"2021-12-01 04:28:26.080924",0.5840194827786154,0.5776174245968568,0.9448095825839159,0.6033953350619836,0.47086410715324484,0.48602268586729636,0.3133599142972098
8.0,0.10520407557487488,0.001141936044872839,"train",8600.0,"2021-12-01 04:28:30.881605","","","","","","",""
8.0,0.0901843011379242,0.0011456584937470744,"train",8620.0,"2021-12-01 04:28:35.152096","","","","","","",""
8.0,0.09191404283046722,0.0011493793352121522,"train",8640.0,"2021-12-01 04:28:38.883726","","","","","","",""
8.0,0.0612466037273407,0.0011530985126619784,"train",8660.0,"2021-12-01 04:28:42.611605","","","","","","",""
8.0,0.07035095244646072,0.001156815969515773,"train",8680.0,"2021-12-01 04:28:46.755761","","","","","","",""
8.0,0.06385725736618042,0.001160531649218934,"train",8700.0,"2021-12-01 04:28:50.569097","","","","","","",""
8.0,0.05938415229320526,0.001164245495243894,"train",8720.0,"2021-12-01 04:28:54.264642","","","","","","",""
8.0,0.0575391948223114,0.0011679574510909817,"train",8740.0,"2021-12-01 04:28:58.332581","","","","","","",""
8.0,0.07910420745611191,0.0011716674602892828,"train",8760.0,"2021-12-01 04:29:02.031501","","","","","","",""
8.0,0.09361252188682556,0.0011753754663974968,"train",8780.0,"2021-12-01 04:29:05.738383","","","","","","",""
8.0,0.058760933578014374,0.0011790814130047968,"train",8800.0,"2021-12-01 04:29:09.894286","","","","","","",""
8.0,0.06860955059528351,0.001182785243731688,"train",8820.0,"2021-12-01 04:29:13.639349","","","","","","",""
8.0,0.05417599156498909,0.0011864869022308656,"train",8840.0,"2021-12-01 04:29:17.385004","","","","","","",""
8.0,0.06193961948156357,0.0011901863321880693,"train",8860.0,"2021-12-01 04:29:21.521215","","","","","","",""
8.0,0.06769473850727081,0.001193883477322945,"train",8880.0,"2021-12-01 04:29:25.208460","","","","","","",""
8.0,0.06066465005278587,0.0011975782813898961,"train",8900.0,"2021-12-01 04:29:28.918748","","","","","","",""
8.0,0.05859760940074921,0.0012012706881789417,"train",8920.0,"2021-12-01 04:29:33.063218","","","","","","",""
8.0,0.0646291971206665,0.001204960641516572,"train",8940.0,"2021-12-01 04:29:36.812853","","","","","","",""
8.0,0.045163869857788086,0.0012086480852666014,"train",8960.0,"2021-12-01 04:29:40.586128","","","","","","",""
8.0,0.06768292188644409,0.0012123329633310235,"train",8980.0,"2021-12-01 04:29:44.704389","","","","","","",""
8.0,0.0716686025261879,0.0012160152196508643,"train",9000.0,"2021-12-01 04:29:48.423916","","","","","","",""
8.0,0.05254985764622688,0.0012196947982070355,"train",9020.0,"2021-12-01 04:29:52.159141","","","","","","",""
8.0,0.06847641617059708,0.0012233716430211856,"train",9040.0,"2021-12-01 04:29:56.285248","","","","","","",""
8.0,0.0573846772313118,0.001227045698156553,"train",9060.0,"2021-12-01 04:30:00.049564","","","","","","",""
8.0,0.0812019631266594,0.0012307169077188148,"train",9080.0,"2021-12-01 04:30:03.807389","","","","","","",""
8.0,0.049469344317913055,0.0012343852158569401,"train",9100.0,"2021-12-01 04:30:07.918642","","","","","","",""
8.0,0.04637583717703819,0.0012380505667640377,"train",9120.0,"2021-12-01 04:30:11.648243","","","","","","",""
8.0,0.06448400020599365,0.0012417129046782046,"train",9140.0,"2021-12-01 04:30:15.351184","","","","","","",""
8.0,0.06505822390317917,0.0012453721738833758,"train",9160.0,"2021-12-01 04:30:19.442031","","","","","","",""
8.0,0.052465859800577164,0.001249028318710172,"train",9180.0,"2021-12-01 04:30:23.159252","","","","","","",""
8.0,0.06279479712247849,0.0012526812835367447,"train",9200.0,"2021-12-01 04:30:26.859357","","","","","","",""
8.0,0.05480591207742691,0.0012563310127896242,"train",9220.0,"2021-12-01 04:30:30.894207","","","","","","",""
8.0,0.05197245627641678,0.0012599774509445645,"train",9240.0,"2021-12-01 04:30:34.631684","","","","","","",""
8.0,0.04922903701663017,0.0012636205425273874,"train",9260.0,"2021-12-01 04:30:38.449885","","","","","","",""
8.0,0.08498728275299072,0.0012672602321148268,"train",9280.0,"2021-12-01 04:30:42.614083","","","","","","",""
8.0,0.0525522418320179,0.0012708964643353732,"train",9300.0,"2021-12-01 04:30:46.411489","","","","","","",""
8.0,0.07184310257434845,0.001274529183870114,"train",9320.0,"2021-12-01 04:30:50.241833","","","","","","",""
8.0,0.06356709450483322,0.0012781583354535748,"train",9340.0,"2021-12-01 04:30:53.990729","","","","","","",""
8.0,0.07394804805517197,0.0012817838638745646,"train",9360.0,"2021-12-01 04:30:58.095422","","","","","","",""
8.0,0.10227260738611221,0.001285405713977009,"train",9380.0,"2021-12-01 04:31:01.809469","","","","","","",""
8.0,0.0747583657503128,0.0012890238306607947,"train",9400.0,"2021-12-01 04:31:05.514635","","","","","","",""
8.0,0.10192981362342834,0.001292638158882606,"train",9420.0,"2021-12-01 04:31:09.580967","","","","","","",""
8.0,0.0606904961168766,0.0012962486436567603,"train",9440.0,"2021-12-01 04:31:13.363916","","","","","","",""
8.0,0.057761188596487045,0.0012998552300560484,"train",9460.0,"2021-12-01 04:31:17.137319","","","","","","",""
8.0,0.05564809963107109,0.0013034578632125668,"train",9480.0,"2021-12-01 04:31:21.308299","","","","","","",""
8.0,0.07820282131433487,0.0013070564883185534,"train",9500.0,"2021-12-01 04:31:25.131209","","","","","","",""
8.0,0.06336770206689835,0.001310651050627223,"train",9520.0,"2021-12-01 04:31:28.905616","","","","","","",""
8.0,0.06836235523223877,0.001314241495453598,"train",9540.0,"2021-12-01 04:31:33.067800","","","","","","",""
8.0,0.07777503877878189,0.00131782776817534,"train",9560.0,"2021-12-01 04:31:36.784827","","","","","","",""
8.0,0.04570537060499191,0.0013214098142335837,"train",9580.0,"2021-12-01 04:31:40.438603","","","","","","",""
8.0,0.06313576549291611,0.001324987579133764,"train",9600.0,"2021-12-01 04:31:44.481141","","","","","","",""
8.0,0.0466918870806694,0.0013285610084464463,"train",9620.0,"2021-12-01 04:31:48.137432","","","","","","",""
8.0,0.052657730877399445,0.001332130047808155,"train",9640.0,"2021-12-01 04:31:51.947576","","","","","","",""
8.0,0.0525713674724102,0.001335694642922199,"train",9660.0,"2021-12-01 04:31:56.116709","","","","","","",""
8.0,"","","train",9666.0,"2021-12-01 04:33:41.672037",0.6193989667467075,0.654546201012776,0.9657497331234043,0.6615854102230351,0.5349624470281188,0.5572699296119945,0.37059217973945935
8.0,"","","val",9666.0,"2021-12-01 04:34:10.000168",0.588194363910472,0.5941418831327612,0.9496907605003558,0.6224293775894927,0.49614840595771825,0.5141197287995362,0.33178680128751314
9.0,0.05223073065280914,0.0013392547395594985,"train",9680.0,"2021-12-01 04:34:19.146496","","","","","","",""
9.0,0.045184191316366196,0.001342810283559412,"train",9700.0,"2021-12-01 04:34:22.973269","","","","","","",""
9.0,0.09244928508996964,0.0013463612208305564,"train",9720.0,"2021-12-01 04:34:27.219774","","","","","","",""
9.0,0.049061354249715805,0.0013499074973516321,"train",9740.0,"2021-12-01 04:34:30.999849","","","","","","",""
9.0,0.06655500829219818,0.0013534490591722464,"train",9760.0,"2021-12-01 04:34:34.719825","","","","","","",""
9.0,0.05864524096250534,0.0013569858524137305,"train",9780.0,"2021-12-01 04:34:38.899120","","","","","","",""
9.0,0.05585078150033951,0.001360517823269962,"train",9800.0,"2021-12-01 04:34:42.647993","","","","","","",""
9.0,0.08539950102567673,0.0013640449180081834,"train",9820.0,"2021-12-01 04:34:46.389885","","","","","","",""
9.0,0.06545339524745941,0.0013675670829698173,"train",9840.0,"2021-12-01 04:34:50.516647","","","","","","",""
9.0,0.05170058459043503,0.0013710842645712853,"train",9860.0,"2021-12-01 04:34:54.280713","","","","","","",""
9.0,0.05810801684856415,0.0013745964093048219,"train",9880.0,"2021-12-01 04:34:58.064526","","","","","","",""
9.0,0.05810537934303284,0.0013781034637392886,"train",9900.0,"2021-12-01 04:35:02.256121","","","","","","",""
9.0,0.08908987045288086,0.0013816053745209864,"train",9920.0,"2021-12-01 04:35:06.063249","","","","","","",""
9.0,0.07538378238677979,0.0013851020883744697,"train",9940.0,"2021-12-01 04:35:09.927259","","","","","","",""
9.0,0.06893416494131088,0.001388593552103353,"train",9960.0,"2021-12-01 04:35:14.103988","","","","","","",""
9.0,0.10079250484704971,0.0013920797125911233,"train",9980.0,"2021-12-01 04:35:17.809829","","","","","","",""
9.0,0.09627661108970642,0.001395560516801947,"train",10000.0,"2021-12-01 04:35:21.512214","","","","","","",""
9.0,0.050003185868263245,0.0013990359117814774,"train",10020.0,"2021-12-01 04:35:25.254943","","","","","","",""
9.0,0.08023907244205475,0.0014025058446576583,"train",10040.0,"2021-12-01 04:35:29.356692","","","","","","",""
9.0,0.0731690302491188,0.0014059702626415317,"train",10060.0,"2021-12-01 04:35:33.088517","","","","","","",""
9.0,0.09179084748029709,0.0014094291130280377,"train",10080.0,"2021-12-01 04:35:36.780701","","","","","","",""
9.0,0.04983188584446907,0.0014128823431968183,"train",10100.0,"2021-12-01 04:35:40.834684","","","","","","",""
9.0,0.05998040363192558,0.001416329900613017,"train",10120.0,"2021-12-01 04:35:44.548499","","","","","","",""
9.0,0.06108405813574791,0.0014197717328280782,"train",10140.0,"2021-12-01 04:35:48.235019","","","","","","",""
9.0,0.05286913737654686,0.0014232077874805457,"train",10160.0,"2021-12-01 04:35:52.285856","","","","","","",""
9.0,0.06862826645374298,0.0014266380122968589,"train",10180.0,"2021-12-01 04:35:55.984769","","","","","","",""
9.0,0.08037948608398438,0.0014300623550921468,"train",10200.0,"2021-12-01 04:35:59.695185","","","","","","",""
9.0,0.05997767671942711,0.0014334807637710243,"train",10220.0,"2021-12-01 04:36:03.749669","","","","","","",""
9.0,0.061693400144577026,0.0014368931863283831,"train",10240.0,"2021-12-01 04:36:07.420241","","","","","","",""
9.0,0.049126531928777695,0.0014402995708501826,"train",10260.0,"2021-12-01 04:36:11.069893","","","","","","",""
9.0,0.07282300293445587,0.0014436998655142422,"train",10280.0,"2021-12-01 04:36:15.136393","","","","","","",""
9.0,0.08185841888189316,0.0014470940185910258,"train",10300.0,"2021-12-01 04:36:18.784834","","","","","","",""
9.0,0.10034564137458801,0.001450481978444431,"train",10320.0,"2021-12-01 04:36:22.477941","","","","","","",""
9.0,0.05180271342396736,0.0014538636935325763,"train",10340.0,"2021-12-01 04:36:26.574210","","","","","","",""
9.0,0.07121025025844574,0.0014572391124085817,"train",10360.0,"2021-12-01 04:36:30.280684","","","","","","",""
9.0,0.08458434045314789,0.0014606081837213525,"train",10380.0,"2021-12-01 04:36:33.993094","","","","","","",""
9.0,0.05442352592945099,0.0014639708562163639,"train",10400.0,"2021-12-01 04:36:38.036194","","","","","","",""
9.0,0.03783411905169487,0.001467327078736435,"train",10420.0,"2021-12-01 04:36:41.751509","","","","","","",""
9.0,0.08961504697799683,0.0014706768002225108,"train",10440.0,"2021-12-01 04:36:45.500939","","","","","","",""
9.0,0.053449634462594986,0.0014740199697144392,"train",10460.0,"2021-12-01 04:36:49.592541","","","","","","",""
9.0,0.0787874385714531,0.0014773565363517442,"train",10480.0,"2021-12-01 04:36:53.296445","","","","","","",""
9.0,0.0670165941119194,0.0014806864493744007,"train",10500.0,"2021-12-01 04:36:57.012748","","","","","","",""
9.0,0.04347124695777893,0.0014840096581236072,"train",10520.0,"2021-12-01 04:37:00.997409","","","","","","",""
9.0,0.06809113919734955,0.001487326112042556,"train",10540.0,"2021-12-01 04:37:04.619201","","","","","","",""
9.0,0.09039375185966492,0.0014906357606772013,"train",10560.0,"2021-12-01 04:37:08.246560","","","","","","",""
9.0,0.10257557034492493,0.0014939385536770291,"train",10580.0,"2021-12-01 04:37:11.888360","","","","","","",""
9.0,0.07733388990163803,0.0014972344407958218,"train",10600.0,"2021-12-01 04:37:15.872730","","","","","","",""
9.0,0.05997974053025246,0.0015005233718924213,"train",10620.0,"2021-12-01 04:37:19.440213","","","","","","",""
9.0,0.05275764688849449,0.0015038052969314946,"train",10640.0,"2021-12-01 04:37:23.026762","","","","","","",""
9.0,0.07254625856876373,0.0015070801659842939,"train",10660.0,"2021-12-01 04:37:27.024448","","","","","","",""
9.0,0.07282625138759613,0.001510347929229414,"train",10680.0,"2021-12-01 04:37:30.730021","","","","","","",""
9.0,0.04904172196984291,0.0015136085369535537,"train",10700.0,"2021-12-01 04:37:34.462269","","","","","","",""
9.0,0.06524529308080673,0.0015168619395522708,"train",10720.0,"2021-12-01 04:37:38.487691","","","","","","",""
9.0,0.06178174912929535,0.0015201080875307349,"train",10740.0,"2021-12-01 04:37:42.102571","","","","","","",""
9.0,"","","train",10740.0,"2021-12-01 04:39:24.125005",0.6307356472385942,0.6795342443412321,0.9693974157353856,0.6856703322955774,0.5640523019052579,0.5827043850111582,0.39085408256016146
9.0,"","","val",10740.0,"2021-12-01 04:39:51.627798",0.596428157253856,0.6118986927043031,0.9550460379193217,0.64355010951106,0.5195846755173804,0.5356517206395774,0.3470124947029571
10.0,0.09847599267959595,0.0015233469315044834,"train",10760.0,"2021-12-01 04:39:58.688753","","","","","","",""
10.0,0.09012171626091003,0.0015265784222001709,"train",10780.0,"2021-12-01 04:40:02.976391","","","","","","",""
10.0,0.05357903987169266,0.0015298025104563185,"train",10800.0,"2021-12-01 04:40:06.806084","","","","","","",""
10.0,0.06480810791254044,0.001533019147224064,"train",10820.0,"2021-12-01 04:40:10.570545","","","","","","",""
10.0,0.060616765171289444,0.0015362282835679054,"train",10840.0,"2021-12-01 04:40:14.771594","","","","","","",""
10.0,0.07856722176074982,0.0015394298706664469,"train",10860.0,"2021-12-01 04:40:18.641917","","","","","","",""
10.0,0.05861463397741318,0.001542623859813141,"train",10880.0,"2021-12-01 04:40:22.363486","","","","","","",""
10.0,0.04494868963956833,0.00154581020241703,"train",10900.0,"2021-12-01 04:40:26.465182","","","","","","",""
10.0,0.07463355362415314,0.0015489888500034858,"train",10920.0,"2021-12-01 04:40:30.204211","","","","","","",""
10.0,0.06047532707452774,0.0015521597542149444,"train",10940.0,"2021-12-01 04:40:33.931549","","","","","","",""
10.0,0.08198843896389008,0.0015553228668116455,"train",10960.0,"2021-12-01 04:40:38.147032","","","","","","",""
10.0,0.08255838602781296,0.0015584781396723642,"train",10980.0,"2021-12-01 04:40:41.898455","","","","","","",""
10.0,0.061654917895793915,0.0015616255247951432,"train",11000.0,"2021-12-01 04:40:45.595135","","","","","","",""
10.0,0.07545921951532364,0.0015647649742980233,"train",11020.0,"2021-12-01 04:40:49.706578","","","","","","",""
10.0,0.061179760843515396,0.0015678964404197727,"train",11040.0,"2021-12-01 04:40:53.360766","","","","","","",""
10.0,0.06922806799411774,0.0015710198755206112,"train",11060.0,"2021-12-01 04:40:57.030745","","","","","","",""
10.0,0.053700659424066544,0.0015741352320829379,"train",11080.0,"2021-12-01 04:41:01.111556","","","","","","",""
10.0,0.06922182440757751,0.0015772424627120527,"train",11100.0,"2021-12-01 04:41:04.755903","","","","","","",""
10.0,0.041435521095991135,0.0015803415201368761,"train",11120.0,"2021-12-01 04:41:08.416570","","","","","","",""
10.0,0.09655635803937912,0.001583432357210671,"train",11140.0,"2021-12-01 04:41:12.392135","","","","","","",""
10.0,0.07325722277164459,0.001586514926911758,"train",11160.0,"2021-12-01 04:41:16.031593","","","","","","",""
10.0,0.04549884423613548,0.0015895891823442313,"train",11180.0,"2021-12-01 04:41:19.684210","","","","","","",""
10.0,0.05964651331305504,0.0015926550767386717,"train",11200.0,"2021-12-01 04:41:23.374309","","","","","","",""
10.0,0.07530967146158218,0.0015957125634528599,"train",11220.0,"2021-12-01 04:41:27.548168","","","","","","",""
10.0,0.04809015616774559,0.0015987615959724836,"train",11240.0,"2021-12-01 04:41:31.172803","","","","","","",""
10.0,0.04686234891414642,0.0016018021279118457,"train",11260.0,"2021-12-01 04:41:34.795510","","","","","","",""
10.0,0.08178117126226425,0.0016048341130145728,"train",11280.0,"2021-12-01 04:41:38.751098","","","","","","",""
10.0,0.05545875430107117,0.0016078575051543145,"train",11300.0,"2021-12-01 04:41:42.496921","","","","","","",""
10.0,0.07365836948156357,0.0016108722583354478,"train",11320.0,"2021-12-01 04:41:46.128679","","","","","","",""
10.0,0.08404456079006195,0.0016138783266937777,"train",11340.0,"2021-12-01 04:41:50.100826","","","","","","",""
10.0,0.04134901985526085,0.0016168756644972322,"train",11360.0,"2021-12-01 04:41:53.721395","","","","","","",""
10.0,0.04901004582643509,0.0016198642261465587,"train",11380.0,"2021-12-01 04:41:57.337681","","","","","","",""
10.0,0.05655084550380707,0.0016228439661760208,"train",11400.0,"2021-12-01 04:42:01.316104","","","","","","",""
10.0,0.06909400224685669,0.001625814839254086,"train",11420.0,"2021-12-01 04:42:04.936694","","","","","","",""
10.0,0.03503018245100975,0.0016287768001841164,"train",11440.0,"2021-12-01 04:42:08.585145","","","","","","",""
10.0,0.08903657644987106,0.001631729803905059,"train",11460.0,"2021-12-01 04:42:12.632758","","","","","","",""
10.0,0.08363828808069229,0.0016346738054921273,"train",11480.0,"2021-12-01 04:42:16.281036","","","","","","",""
10.0,0.0834633931517601,0.001637608760157486,"train",11500.0,"2021-12-01 04:42:20.045818","","","","","","",""
10.0,0.0683741644024849,0.0016405346232509356,"train",11520.0,"2021-12-01 04:42:24.150081","","","","","","",""
10.0,0.04840242117643356,0.0016434513502605861,"train",11540.0,"2021-12-01 04:42:27.865544","","","","","","",""
10.0,0.050902146846055984,0.0016463588968135383,"train",11560.0,"2021-12-01 04:42:31.538317","","","","","","",""
10.0,0.07115748524665833,0.0016492572186765577,"train",11580.0,"2021-12-01 04:42:35.598126","","","","","","",""
10.0,0.06155097857117653,0.001652146271756747,"train",11600.0,"2021-12-01 04:42:39.244726","","","","","","",""
10.0,0.054392892867326736,0.0016550260121022172,"train",11620.0,"2021-12-01 04:42:42.884381","","","","","","",""
10.0,0.05203808471560478,0.0016578963959027562,"train",11640.0,"2021-12-01 04:42:46.949189","","","","","","",""
10.0,0.0896778330206871,0.001660757379490496,"train",11660.0,"2021-12-01 04:42:50.657609","","","","","","",""
10.0,0.08698562532663345,0.0016636089193405761,"train",11680.0,"2021-12-01 04:42:54.405786","","","","","","",""
10.0,0.07912235707044601,0.0016664509720718049,"train",11700.0,"2021-12-01 04:42:58.578985","","","","","","",""
10.0,0.06242816522717476,0.0016692834944473224,"train",11720.0,"2021-12-01 04:43:02.331133","","","","","","",""
10.0,0.0819101333618164,0.0016721064433752554,"train",11740.0,"2021-12-01 04:43:05.990033","","","","","","",""
10.0,0.04826948791742325,0.0016749197759093734,"train",11760.0,"2021-12-01 04:43:09.963714","","","","","","",""
10.0,0.06390420347452164,0.0016777234492497436,"train",11780.0,"2021-12-01 04:43:13.554849","","","","","","",""
10.0,0.04663535952568054,0.0016805174207433808,"train",11800.0,"2021-12-01 04:43:17.272296","","","","","","",""
10.0,"","","train",11814.0,"2021-12-01 04:45:00.911917",0.6331950811322128,0.6958954900660217,0.9723771582980997,0.6925342991812274,0.5691464717175726,0.5887899275597075,0.3986552805494435
10.0,"","","val",11814.0,"2021-12-01 04:45:28.546222",0.592311260582164,0.6208960394886313,0.9562800215157533,0.6439368966918457,0.5210762506683364,0.5352529063516097,0.35028961968404776
11.0,0.06465277075767517,0.0016833016478848956,"train",11820.0,"2021-12-01 04:45:33.036720","","","","","","",""
11.0,0.09472669661045074,0.0016860760883171426,"train",11840.0,"2021-12-01 04:45:37.313317","","","","","","",""
11.0,0.06055699288845062,0.001688840699831864,"train",11860.0,"2021-12-01 04:45:41.069752","","","","","","",""
11.0,0.05035896599292755,0.0016915954403703313,"train",11880.0,"2021-12-01 04:45:44.819955","","","","","","",""
11.0,0.06503723561763763,0.0016943402680239862,"train",11900.0,"2021-12-01 04:45:48.874740","","","","","","",""
11.0,0.05517784506082535,0.0016970751410350774,"train",11920.0,"2021-12-01 04:45:52.700545","","","","","","",""
11.0,0.045390963554382324,0.001699800017797296,"train",11940.0,"2021-12-01 04:45:56.492371","","","","","","",""
11.0,0.04156811535358429,0.0017025148568564086,"train",11960.0,"2021-12-01 04:46:00.699975","","","","","","",""
11.0,0.08825717121362686,0.001705219616910888,"train",11980.0,"2021-12-01 04:46:04.503978","","","","","","",""
11.0,0.0371958427131176,0.001707914256812541,"train",12000.0,"2021-12-01 04:46:08.356827","","","","","","",""
11.0,0.05263913422822952,0.0017105987355671352,"train",12020.0,"2021-12-01 04:46:12.497721","","","","","","",""
11.0,0.0904276967048645,0.0017132730123350227,"train",12040.0,"2021-12-01 04:46:16.295983","","","","","","",""
11.0,0.04605364054441452,0.00171593704643176,"train",12060.0,"2021-12-01 04:46:20.025412","","","","","","",""
11.0,0.0687796100974083,0.0017185907973287285,"train",12080.0,"2021-12-01 04:46:24.127043","","","","","","",""
11.0,0.06798101961612701,0.0017212342246537506,"train",12100.0,"2021-12-01 04:46:27.901165","","","","","","",""
11.0,0.052912767976522446,0.0017238672881917032,"train",12120.0,"2021-12-01 04:46:31.694471","","","","","","",""
11.0,0.06535941362380981,0.001726489947885131,"train",12140.0,"2021-12-01 04:46:35.819395","","","","","","",""
11.0,0.06989186257123947,0.0017291021638348543,"train",12160.0,"2021-12-01 04:46:39.646412","","","","","","",""
11.0,0.05957195907831192,0.0017317038963005765,"train",12180.0,"2021-12-01 04:46:43.454395","","","","","","",""
11.0,0.07631739228963852,0.00173429510570149,"train",12200.0,"2021-12-01 04:46:47.579257","","","","","","",""
11.0,0.07029175013303757,0.0017368757526168759,"train",12220.0,"2021-12-01 04:46:51.271383","","","","","","",""
11.0,0.07464026659727097,0.0017394457977867057,"train",12240.0,"2021-12-01 04:46:54.941437","","","","","","",""
11.0,0.05449836328625679,0.0017420052021122378,"train",12260.0,"2021-12-01 04:46:58.952795","","","","","","",""
11.0,0.053734589368104935,0.0017445539266566128,"train",12280.0,"2021-12-01 04:47:02.596822","","","","","","",""
11.0,0.046225447207689285,0.001747091932645445,"train",12300.0,"2021-12-01 04:47:06.326975","","","","","","",""
11.0,0.06193051114678383,0.0017496191814674125,"train",12320.0,"2021-12-01 04:47:10.445805","","","","","","",""
11.0,0.09999940544366837,0.001752135634674846,"train",12340.0,"2021-12-01 04:47:14.172188","","","","","","",""
11.0,0.07047585397958755,0.0017546412539843118,"train",12360.0,"2021-12-01 04:47:17.910992","","","","","","",""
11.0,0.05893617495894432,0.001757136001277194,"train",12380.0,"2021-12-01 04:47:21.982902","","","","","","",""
11.0,0.05634249374270439,0.001759619838600278,"train",12400.0,"2021-12-01 04:47:25.682312","","","","","","",""
11.0,0.09340114891529083,0.0017620927281663229,"train",12420.0,"2021-12-01 04:47:29.347493","","","","","","",""
11.0,0.04679160565137863,0.0017645546323546398,"train",12440.0,"2021-12-01 04:47:33.015257","","","","","","",""
11.0,0.06454532593488693,0.0017670055137116636,"train",12460.0,"2021-12-01 04:47:36.999409","","","","","","",""
11.0,0.07404908537864685,0.0017694453349515209,"train",12480.0,"2021-12-01 04:47:40.624832","","","","","","",""
11.0,0.05926596000790596,0.0017718740589566,"train",12500.0,"2021-12-01 04:47:44.336369","","","","","","",""
11.0,0.06636085361242294,0.0017742916487781134,"train",12520.0,"2021-12-01 04:47:48.387526","","","","","","",""
11.0,0.06444673985242844,0.0017766980676366608,"train",12540.0,"2021-12-01 04:47:52.080007","","","","","","",""
11.0,0.06177230924367905,0.001779093278922789,"train",12560.0,"2021-12-01 04:47:55.809423","","","","","","",""
11.0,0.055178526788949966,0.001781477246197548,"train",12580.0,"2021-12-01 04:47:59.863049","","","","","","",""
11.0,0.04781203716993332,0.0017838499331930462,"train",12600.0,"2021-12-01 04:48:03.625623","","","","","","",""
11.0,0.048853203654289246,0.001786211303813001,"train",12620.0,"2021-12-01 04:48:07.374612","","","","","","",""
11.0,0.0525173619389534,0.0017885613221332894,"train",12640.0,"2021-12-01 04:48:11.483834","","","","","","",""
11.0,0.07267987728118896,0.0017908999524024931,"train",12660.0,"2021-12-01 04:48:15.231121","","","","","","",""
11.0,0.05629969388246536,0.0017932271590424438,"train",12680.0,"2021-12-01 04:48:18.956091","","","","","","",""
11.0,0.052942171692848206,0.0017955429066487635,"train",12700.0,"2021-12-01 04:48:23.093018","","","","","","",""
11.0,0.08413615077733994,0.0017978471599914025,"train",12720.0,"2021-12-01 04:48:26.847107","","","","","","",""
11.0,0.07861174643039703,0.0018001398840151778,"train",12740.0,"2021-12-01 04:48:30.588262","","","","","","",""
11.0,0.08488255739212036,0.0018024210438403031,"train",12760.0,"2021-12-01 04:48:34.695858","","","","","","",""
11.0,0.0686248168349266,0.0018046906047629228,"train",12780.0,"2021-12-01 04:48:38.438917","","","","","","",""
11.0,0.044806648045778275,0.0018069485322556372,"train",12800.0,"2021-12-01 04:48:42.166867","","","","","","",""
11.0,0.048418302088975906,0.001809194791968029,"train",12820.0,"2021-12-01 04:48:46.242151","","","","","","",""
11.0,0.04960218816995621,0.0018114293497271863,"train",12840.0,"2021-12-01 04:48:49.960418","","","","","","",""
11.0,0.09831808507442474,0.0018136521715382218,"train",12860.0,"2021-12-01 04:48:53.584894","","","","","","",""
11.0,0.055505603551864624,0.0018158632235847892,"train",12880.0,"2021-12-01 04:48:57.591227","","","","","","",""
11.0,"","","train",12888.0,"2021-12-01 04:50:41.730634",0.6408789929418613,0.6997585947848616,0.9726725686522484,0.6949985427155246,0.5844476637753782,0.6040700931829716,0.40970316589607064
11.0,"","","val",12888.0,"2021-12-01 04:51:09.175961",0.6028064478719704,0.6150322400670531,0.9553289406692559,0.6471925371652059,0.5427352797907086,0.5545029864916694,0.36353979500524336
12.0,0.06684459745883942,0.0018180624722295999,"train",12900.0,"2021-12-01 04:51:14.842068","","","","","","",""
12.0,0.05352567881345749,0.001820249884014933,"train",12920.0,"2021-12-01 04:51:18.696027","","","","","","",""
12.0,0.04007707163691521,0.001822425425663144,"train",12940.0,"2021-12-01 04:51:22.980063","","","","","","",""
12.0,0.07644788175821304,0.0018245890640771725,"train",12960.0,"2021-12-01 04:51:26.771584","","","","","","",""
12.0,0.08191242814064026,0.0018267407663410452,"train",12980.0,"2021-12-01 04:51:30.543321","","","","","","",""
12.0,0.06482283771038055,0.0018288804997203755,"train",13000.0,"2021-12-01 04:51:34.726826","","","","","","",""
12.0,0.05394540727138519,0.0018310082316628634,"train",13020.0,"2021-12-01 04:51:38.454235","","","","","","",""
12.0,0.057056721299886703,0.0018331239297987893,"train",13040.0,"2021-12-01 04:51:42.146500","","","","","","",""
12.0,0.05445312708616257,0.0018352275619415066,"train",13060.0,"2021-12-01 04:51:45.810414","","","","","","",""
12.0,0.04184368997812271,0.0018373190960879326,"train",13080.0,"2021-12-01 04:51:49.830884","","","","","","",""
12.0,0.08584760129451752,0.0018393985004190336,"train",13100.0,"2021-12-01 04:51:53.479399","","","","","","",""
12.0,0.06594226509332657,0.00184146574330031,"train",13120.0,"2021-12-01 04:51:57.138589","","","","","","",""
12.0,0.06596557796001434,0.001843520793282278,"train",13140.0,"2021-12-01 04:52:01.167886","","","","","","",""
12.0,0.0582985058426857,0.0018455636191009464,"train",13160.0,"2021-12-01 04:52:04.933648","","","","","","",""
12.0,0.04502381011843681,0.001847594189678294,"train",13180.0,"2021-12-01 04:52:08.589841","","","","","","",""
12.0,0.07820677757263184,0.0018496124741227415,"train",13200.0,"2021-12-01 04:52:12.675840","","","","","","",""
12.0,0.0539606474339962,0.001851618441729622,"train",13220.0,"2021-12-01 04:52:16.346753","","","","","","",""
12.0,0.05312776938080788,0.0018536120619816467,"train",13240.0,"2021-12-01 04:52:19.988048","","","","","","",""
12.0,0.04543197154998779,0.0018555933045493712,"train",13260.0,"2021-12-01 04:52:24.055286","","","","","","",""
12.0,0.05643847957253456,0.0018575621392916554,"train",13280.0,"2021-12-01 04:52:27.707826","","","","","","",""
12.0,0.07175222784280777,0.0018595185362561225,"train",13300.0,"2021-12-01 04:52:31.411802","","","","","","",""
12.0,0.07249493896961212,0.0018614624656796155,"train",13320.0,"2021-12-01 04:52:35.394714","","","","","","",""
12.0,0.05820837616920471,0.0018633938979886484,"train",13340.0,"2021-12-01 04:52:39.020947","","","","","","",""
12.0,0.08606065809726715,0.0018653128037998568,"train",13360.0,"2021-12-01 04:52:42.795208","","","","","","",""
12.0,0.06404218822717667,0.0018672191539204459,"train",13380.0,"2021-12-01 04:52:46.901074","","","","","","",""
12.0,0.05348210781812668,0.0018691129193486335,"train",13400.0,"2021-12-01 04:52:50.610996","","","","","","",""
12.0,0.11776993423700333,0.0018709940712740908,"train",13420.0,"2021-12-01 04:52:54.318306","","","","","","",""
12.0,0.04954293370246887,0.0018728625810783823,"train",13440.0,"2021-12-01 04:52:58.731415","","","","","","",""
12.0,0.06877311319112778,0.0018747184203353996,"train",13460.0,"2021-12-01 04:53:02.441246","","","","","","",""
12.0,0.09423787891864777,0.0018765615608117947,"train",13480.0,"2021-12-01 04:53:06.201926","","","","","","",""
12.0,0.04318823292851448,0.0018783919744674096,"train",13500.0,"2021-12-01 04:53:10.388756","","","","","","",""
12.0,0.044005777686834335,0.0018802096334557027,"train",13520.0,"2021-12-01 04:53:14.130259","","","","","","",""
12.0,0.039623942226171494,0.0018820145101241712,"train",13540.0,"2021-12-01 04:53:17.764357","","","","","","",""
12.0,0.07109782844781876,0.0018838065770147745,"train",13560.0,"2021-12-01 04:53:21.856201","","","","","","",""
12.0,0.0803871750831604,0.0018855858068643496,"train",13580.0,"2021-12-01 04:53:25.590365","","","","","","",""
12.0,0.05472088232636452,0.001887352172605026,"train",13600.0,"2021-12-01 04:53:29.230600","","","","","","",""
12.0,0.05742213502526283,0.0018891056473646398,"train",13620.0,"2021-12-01 04:53:33.221747","","","","","","",""
12.0,0.040052641183137894,0.0018908462044671395,"train",13640.0,"2021-12-01 04:53:36.858069","","","","","","",""
12.0,0.07875552773475647,0.001892573817432993,"train",13660.0,"2021-12-01 04:53:40.508318","","","","","","",""
12.0,0.06030512973666191,0.0018942884599795914,"train",13680.0,"2021-12-01 04:53:44.141077","","","","","","",""
12.0,0.07296789437532425,0.001895990106021648,"train",13700.0,"2021-12-01 04:53:48.141186","","","","","","",""
12.0,0.05240950733423233,0.0018976787296715943,"train",13720.0,"2021-12-01 04:53:51.783325","","","","","","",""
12.0,0.06301622092723846,0.0018993543052399757,"train",13740.0,"2021-12-01 04:53:55.410420","","","","","","",""
12.0,0.09131251275539398,0.0019010168072358413,"train",13760.0,"2021-12-01 04:53:59.378908","","","","","","",""
12.0,0.10464439541101456,0.0019026662103671305,"train",13780.0,"2021-12-01 04:54:03.079050","","","","","","",""
12.0,0.08395928889513016,0.0019043024895410605,"train",13800.0,"2021-12-01 04:54:06.709544","","","","","","",""
12.0,0.046614088118076324,0.001905925619864506,"train",13820.0,"2021-12-01 04:54:10.747957","","","","","","",""
12.0,0.0723801776766777,0.001907535576644378,"train",13840.0,"2021-12-01 04:54:14.419946","","","","","","",""
12.0,0.0587497241795063,0.0019091323353880008,"train",13860.0,"2021-12-01 04:54:18.046275","","","","","","",""
12.0,0.04333040863275528,0.0019107158718034828,"train",13880.0,"2021-12-01 04:54:22.096300","","","","","","",""
12.0,0.05329433083534241,0.001912286161800088,"train",13900.0,"2021-12-01 04:54:25.756712","","","","","","",""
12.0,0.07852411270141602,0.0019138431814886008,"train",13920.0,"2021-12-01 04:54:29.416455","","","","","","",""
12.0,0.06722760200500488,0.0019153869071816896,"train",13940.0,"2021-12-01 04:54:33.417184","","","","","","",""
12.0,0.08115607500076294,0.0019169173153942693,"train",13960.0,"2021-12-01 04:54:36.997462","","","","","","",""
12.0,"","","train",13962.0,"2021-12-01 04:56:17.563430",0.6514152659535764,0.7181672548401306,0.974944992289966,0.7088692758610836,0.6032081913218185,0.6273185275504987,0.42399923495236364
12.0,"","","val",13962.0,"2021-12-01 04:56:45.019235",0.6146352777455641,0.6297407863101389,0.9562830886838282,0.6614351798456909,0.5535532943116344,0.5725086491882306,0.3695195904407104
13.0,0.06923825293779373,0.0019184343828438557,"train",13980.0,"2021-12-01 04:56:51.697222","","","","","","",""
13.0,0.06402077525854111,0.0019199380864509208,"train",14000.0,"2021-12-01 04:56:55.861399","","","","","","",""
13.0,0.06021244823932648,0.0019214284033392457,"train",14020.0,"2021-12-01 04:56:59.668491","","","","","","",""
13.0,0.04107623174786568,0.0019229053108362649,"train",14040.0,"2021-12-01 04:57:03.434376","","","","","","",""
13.0,0.07408493012189865,0.0019243687864734145,"train",14060.0,"2021-12-01 04:57:07.573252","","","","","","",""
13.0,0.07518889009952545,0.0019258188079864732,"train",14080.0,"2021-12-01 04:57:11.227925","","","","","","",""
13.0,0.05658638849854469,0.0019272553533158999,"train",14100.0,"2021-12-01 04:57:14.912176","","","","","","",""
13.0,0.0585370808839798,0.0019286784006071697,"train",14120.0,"2021-12-01 04:57:18.974427","","","","","","",""
13.0,0.05551059544086456,0.0019300879282111083,"train",14140.0,"2021-12-01 04:57:22.657301","","","","","","",""
13.0,0.07824883610010147,0.0019314839146842185,"train",14160.0,"2021-12-01 04:57:26.334529","","","","","","",""
13.0,0.04443258047103882,0.0019328663387890076,"train",14180.0,"2021-12-01 04:57:30.415176","","","","","","",""
13.0,0.06865870952606201,0.0019342351794943119,"train",14200.0,"2021-12-01 04:57:34.100659","","","","","","",""
13.0,0.04684292525053024,0.0019355904159756138,"train",14220.0,"2021-12-01 04:57:37.784519","","","","","","",""
13.0,0.048529911786317825,0.0019369320276153613,"train",14240.0,"2021-12-01 04:57:41.830858","","","","","","",""
13.0,0.0561419278383255,0.00193825999400328,"train",14260.0,"2021-12-01 04:57:45.525760","","","","","","",""
13.0,0.06628288328647614,0.0019395742949366843,"train",14280.0,"2021-12-01 04:57:49.268204","","","","","","",""
13.0,0.06843101978302002,0.0019408749104207845,"train",14300.0,"2021-12-01 04:57:52.918966","","","","","","",""
13.0,0.08611295372247696,0.0019421618206689913,"train",14320.0,"2021-12-01 04:57:56.930076","","","","","","",""
13.0,0.05100404843688011,0.0019434350061032163,"train",14340.0,"2021-12-01 04:58:00.567183","","","","","","",""
13.0,0.0770607739686966,0.0019446944473541703,"train",14360.0,"2021-12-01 04:58:04.189595","","","","","","",""
13.0,0.06614993512630463,0.0019459401252616573,"train",14380.0,"2021-12-01 04:58:08.192937","","","","","","",""
13.0,0.03895076736807823,0.001947172020874868,"train",14400.0,"2021-12-01 04:58:11.815916","","","","","","",""
13.0,0.052142418920993805,0.0019483901154526647,"train",14420.0,"2021-12-01 04:58:15.430619","","","","","","",""
13.0,0.04939649999141693,0.0019495943904638694,"train",14440.0,"2021-12-01 04:58:19.463687","","","","","","",""
13.0,0.08528031408786774,0.0019507848275875444,"train",14460.0,"2021-12-01 04:58:23.160697","","","","","","",""
13.0,0.061635807156562805,0.0019519614087132712,"train",14480.0,"2021-12-01 04:58:26.893556","","","","","","",""
13.0,0.07433394342660904,0.0019531241159414263,"train",14500.0,"2021-12-01 04:58:30.935204","","","","","","",""
13.0,0.060959719121456146,0.001954272931583453,"train",14520.0,"2021-12-01 04:58:34.565978","","","","","","",""
13.0,0.09557594358921051,0.0019554078381621306,"train",14540.0,"2021-12-01 04:58:38.196430","","","","","","",""
13.0,0.05720195919275284,0.0019565288184118417,"train",14560.0,"2021-12-01 04:58:42.237880","","","","","","",""
13.0,0.049073293805122375,0.0019576358552788314,"train",14580.0,"2021-12-01 04:58:45.913436","","","","","","",""
13.0,0.05964525789022446,0.0019587289319214713,"train",14600.0,"2021-12-01 04:58:49.554521","","","","","","",""
13.0,0.05881372466683388,0.0019598080317105113,"train",14620.0,"2021-12-01 04:58:53.569693","","","","","","",""
13.0,0.06256699562072754,0.001960873138229337,"train",14640.0,"2021-12-01 04:58:57.204862","","","","","","",""
13.0,0.08428715914487839,0.0019619242352742153,"train",14660.0,"2021-12-01 04:59:00.874985","","","","","","",""
13.0,0.05058247596025467,0.001962961306854543,"train",14680.0,"2021-12-01 04:59:04.955478","","","","","","",""
13.0,0.09692423790693283,0.0019639843371930905,"train",14700.0,"2021-12-01 04:59:08.705877","","","","","","",""
13.0,0.08455967903137207,0.001964993310726241,"train",14720.0,"2021-12-01 04:59:12.443710","","","","","","",""
13.0,0.05667780339717865,0.0019659882121042262,"train",14740.0,"2021-12-01 04:59:16.582239","","","","","","",""
13.0,0.054052695631980896,0.001966969026191363,"train",14760.0,"2021-12-01 04:59:20.376430","","","","","","",""
13.0,0.06636613607406616,0.0019679357380662805,"train",14780.0,"2021-12-01 04:59:24.175939","","","","","","",""
13.0,0.08125077933073044,0.001968888333022148,"train",14800.0,"2021-12-01 04:59:28.380184","","","","","","",""
13.0,0.04622094705700874,0.0019698267965669,"train",14820.0,"2021-12-01 04:59:32.244920","","","","","","",""
13.0,0.06322652101516724,0.0019707511144234557,"train",14840.0,"2021-12-01 04:59:36.048853","","","","","","",""
13.0,0.051538366824388504,0.001971661272529935,"train",14860.0,"2021-12-01 04:59:40.172974","","","","","","",""
13.0,0.04999934881925583,0.001972557257039875,"train",14880.0,"2021-12-01 04:59:43.941293","","","","","","",""
13.0,0.056464869529008865,0.0019734390543224385,"train",14900.0,"2021-12-01 04:59:47.694284","","","","","","",""
13.0,0.05297845974564552,0.001974306650962622,"train",14920.0,"2021-12-01 04:59:51.828654","","","","","","",""
13.0,0.06712214648723602,0.0019751600337614608,"train",14940.0,"2021-12-01 04:59:55.590171","","","","","","",""
13.0,0.06503807008266449,0.0019759991897362284,"train",14960.0,"2021-12-01 04:59:59.391260","","","","","","",""
13.0,0.042854443192481995,0.0019768241061206343,"train",14980.0,"2021-12-01 05:00:03.140387","","","","","","",""
13.0,0.054073113948106766,0.0019776347703650186,"train",15000.0,"2021-12-01 05:00:07.253172","","","","","","",""
13.0,0.04983173683285713,0.001978431170136543,"train",15020.0,"2021-12-01 05:00:11.008939","","","","","","",""
13.0,"","","train",15036.0,"2021-12-01 05:01:55.267881",0.658022265880812,0.7356461448151677,0.9783251938404753,0.7369275906078832,0.6445752785394466,0.6684121764732265,0.45357302049348236
13.0,"","","val",15036.0,"2021-12-01 05:02:27.013434",0.6028644323321349,0.6385151075166297,0.9593661634410771,0.6752783688236806,0.5696093339540527,0.5905393288435695,0.3760060865225168
14.0,0.08706072717905045,0.0019792132933193784,"train",15040.0,"2021-12-01 05:02:31.059494","","","","","","",""
14.0,0.08654164522886276,0.001979981128014888,"train",15060.0,"2021-12-01 05:02:35.374057","","","","","","",""
14.0,0.040120694786310196,0.001980734662541811,"train",15080.0,"2021-12-01 05:02:39.110594","","","","","","",""
14.0,0.04779170826077461,0.0019814738854364374,"train",15100.0,"2021-12-01 05:02:42.847749","","","","","","",""
14.0,0.09536535292863846,0.0019821987854527832,"train",15120.0,"2021-12-01 05:02:46.996568","","","","","","",""
14.0,0.08073249459266663,0.0019829093515627634,"train",15140.0,"2021-12-01 05:02:50.701587","","","","","","",""
14.0,0.06261709332466125,0.001983605572956358,"train",15160.0,"2021-12-01 05:02:54.354706","","","","","","",""
14.0,0.054753270000219345,0.001984287439041775,"train",15180.0,"2021-12-01 05:02:58.516011","","","","","","",""
14.0,0.07013602554798126,0.001984954939445616,"train",15200.0,"2021-12-01 05:03:02.301219","","","","","","",""
14.0,0.045788638293743134,0.0019856080640130295,"train",15220.0,"2021-12-01 05:03:06.114583","","","","","","",""
14.0,0.09332416951656342,0.0019862468028078676,"train",15240.0,"2021-12-01 05:03:10.315119","","","","","","",""
14.0,0.05979609861969948,0.001986871146112837,"train",15260.0,"2021-12-01 05:03:14.120616","","","","","","",""
14.0,0.07759013772010803,0.0019874810844296466,"train",15280.0,"2021-12-01 05:03:17.790642","","","","","","",""
14.0,0.053793247789144516,0.0019880766084791517,"train",15300.0,"2021-12-01 05:03:21.722234","","","","","","",""
14.0,0.05585416778922081,0.0019886577092014953,"train",15320.0,"2021-12-01 05:03:25.283031","","","","","","",""
14.0,0.05592980980873108,0.001989224377756247,"train",15340.0,"2021-12-01 05:03:28.875263","","","","","","",""
14.0,0.06080205366015434,0.0019897766055225353,"train",15360.0,"2021-12-01 05:03:32.763159","","","","","","",""
14.0,0.04034765064716339,0.0019903143840991813,"train",15380.0,"2021-12-01 05:03:36.532811","","","","","","",""
14.0,0.061523135751485825,0.0019908377053048246,"train",15400.0,"2021-12-01 05:03:40.295831","","","","","","",""
14.0,0.054067496210336685,0.001991346561178048,"train",15420.0,"2021-12-01 05:03:44.459365","","","","","","",""
14.0,0.046907830983400345,0.0019918409439775003,"train",15440.0,"2021-12-01 05:03:48.265155","","","","","","",""
14.0,0.06118788570165634,0.0019923208461820117,"train",15460.0,"2021-12-01 05:03:51.999928","","","","","","",""
14.0,0.06871230155229568,0.001992786260490709,"train",15480.0,"2021-12-01 05:03:56.146293","","","","","","",""
14.0,0.08094114065170288,0.0019932371798231287,"train",15500.0,"2021-12-01 05:03:59.913264","","","","","","",""
14.0,0.052781034260988235,0.0019936735973193212,"train",15520.0,"2021-12-01 05:04:03.663802","","","","","","",""
14.0,0.05811416730284691,0.001994095506339958,"train",15540.0,"2021-12-01 05:04:07.482336","","","","","","",""
14.0,0.07641678303480148,0.001994502900466431,"train",15560.0,"2021-12-01 05:04:11.670151","","","","","","",""
14.0,0.04170306399464607,0.0019948957735009517,"train",15580.0,"2021-12-01 05:04:15.403424","","","","","","",""
14.0,0.08535165339708328,0.0019952741194666436,"train",15600.0,"2021-12-01 05:04:19.108033","","","","","","",""
14.0,0.08874566853046417,0.0019956379326076354,"train",15620.0,"2021-12-01 05:04:23.194618","","","","","","",""
14.0,0.07307043671607971,0.001995987207389146,"train",15640.0,"2021-12-01 05:04:26.850467","","","","","","",""
14.0,0.06553272902965546,0.0019963219384975706,"train",15660.0,"2021-12-01 05:04:30.554341","","","","","","",""
14.0,0.05045798420906067,0.001996642120840561,"train",15680.0,"2021-12-01 05:04:34.663943","","","","","","",""
14.0,0.06256215274333954,0.001996947749547103,"train",15700.0,"2021-12-01 05:04:38.378489","","","","","","",""
14.0,0.04827818274497986,0.0019972388199675905,"train",15720.0,"2021-12-01 05:04:42.026294","","","","","","",""
14.0,0.07082980871200562,0.001997515327673896,"train",15740.0,"2021-12-01 05:04:46.023890","","","","","","",""
14.0,0.06434234976768494,0.0019977772684594388,"train",15760.0,"2021-12-01 05:04:49.765146","","","","","","",""
14.0,0.07081208378076553,0.0019980246383392475,"train",15780.0,"2021-12-01 05:04:53.620070","","","","","","",""
14.0,0.05674607306718826,0.0019982574335500225,"train",15800.0,"2021-12-01 05:04:57.724554","","","","","","",""
14.0,0.07420346885919571,0.001998475650550192,"train",15820.0,"2021-12-01 05:05:01.430229","","","","","","",""
14.0,0.05696497857570648,0.0019986792860199657,"train",15840.0,"2021-12-01 05:05:05.123660","","","","","","",""
14.0,0.06815353780984879,0.001998868336861386,"train",15860.0,"2021-12-01 05:05:09.222079","","","","","","",""
14.0,0.03957000747323036,0.001999042800198376,"train",15880.0,"2021-12-01 05:05:12.977566","","","","","","",""
14.0,0.0883878767490387,0.00199920267337678,"train",15900.0,"2021-12-01 05:05:16.755794","","","","","","",""
14.0,0.060859207063913345,0.0019993479539644077,"train",15920.0,"2021-12-01 05:05:20.952230","","","","","","",""
14.0,0.09576958417892456,0.0019994786397510697,"train",15940.0,"2021-12-01 05:05:24.660684","","","","","","",""
14.0,0.0632486566901207,0.0019995947287486096,"train",15960.0,"2021-12-01 05:05:28.372591","","","","","","",""
14.0,0.04371355473995209,0.0019996962191909367,"train",15980.0,"2021-12-01 05:05:32.480635","","","","","","",""
14.0,0.04354867711663246,0.0019997831095340513,"train",16000.0,"2021-12-01 05:05:36.163354","","","","","","",""
14.0,0.05523401126265526,0.001999855398456069,"train",16020.0,"2021-12-01 05:05:39.846645","","","","","","",""
14.0,0.03693048283457756,0.00199991308485724,"train",16040.0,"2021-12-01 05:05:43.887894","","","","","","",""
14.0,0.0449029877781868,0.001999956167859967,"train",16060.0,"2021-12-01 05:05:47.562557","","","","","","",""
14.0,0.05395056679844856,0.0019999846468088172,"train",16080.0,"2021-12-01 05:05:51.231134","","","","","","",""
14.0,0.034609969705343246,0.0019999985212705335,"train",16100.0,"2021-12-01 05:05:55.383870","","","","","","",""
14.0,"","","train",16110.0,"2021-12-01 05:07:39.632483",0.6626500764025322,0.7476133505475389,0.9793600062633462,0.7503212337967244,0.6520368045096345,0.6681824079699452,0.4640910273059821
14.0,"","","val",16110.0,"2021-12-01 05:08:12.862368",0.6004290850052186,0.6400449188211808,0.9604426027361678,0.6770747721036575,0.5748547018918652,0.5855359188689919,0.37906157464084944
15.0,0.08370549976825714,0.0019999995774202316,"train",16120.0,"2021-12-01 05:08:17.991965","","","","","","",""
15.0,0.05359937623143196,0.0019999966438102564,"train",16140.0,"2021-12-01 05:08:21.789869","","","","","","",""
15.0,0.07842125743627548,0.0019999909162942875,"train",16160.0,"2021-12-01 05:08:25.994659","","","","","","",""
15.0,0.04323306679725647,0.001999982394888327,"train",16180.0,"2021-12-01 05:08:29.812204","","","","","","",""
15.0,0.067603699862957,0.0019999710796161823,"train",16200.0,"2021-12-01 05:08:33.546545","","","","","","",""
15.0,0.06062457337975502,0.0019999569705094686,"train",16220.0,"2021-12-01 05:08:37.250350","","","","","","",""
15.0,0.047229666262865067,0.001999940067607605,"train",16240.0,"2021-12-01 05:08:41.286649","","","","","","",""
15.0,0.07129265367984772,0.001999920370957817,"train",16260.0,"2021-12-01 05:08:44.962815","","","","","","",""
15.0,0.04516112804412842,0.0019998978806151355,"train",16280.0,"2021-12-01 05:08:48.687049","","","","","","",""
15.0,0.04714410379528999,0.0019998725966423976,"train",16300.0,"2021-12-01 05:08:52.787308","","","","","","",""
15.0,0.0519070141017437,0.001999844519110244,"train",16320.0,"2021-12-01 05:08:56.444219","","","","","","",""
15.0,0.035416699945926666,0.001999813648097122,"train",16340.0,"2021-12-01 05:09:00.078516","","","","","","",""
15.0,0.06747068464756012,0.001999779983689282,"train",16360.0,"2021-12-01 05:09:04.165567","","","","","","",""
15.0,0.08387831598520279,0.0019997435259807806,"train",16380.0,"2021-12-01 05:09:07.866794","","","","","","",""
15.0,0.06342659145593643,0.001999704275073478,"train",16400.0,"2021-12-01 05:09:11.608303","","","","","","",""
15.0,0.05946636572480202,0.0019996622310770383,"train",16420.0,"2021-12-01 05:09:15.737810","","","","","","",""
15.0,0.05170225352048874,0.0019996173941089286,"train",16440.0,"2021-12-01 05:09:19.540737","","","","","","",""
15.0,0.09599369764328003,0.0019995697642944212,"train",16460.0,"2021-12-01 05:09:23.360742","","","","","","",""
15.0,0.08339625597000122,0.0019995193417665894,"train",16480.0,"2021-12-01 05:09:27.455364","","","","","","",""
15.0,0.10001718252897263,0.0019994661266663108,"train",16500.0,"2021-12-01 05:09:31.193211","","","","","","",""
15.0,0.06888707727193832,0.001999410119142264,"train",16520.0,"2021-12-01 05:09:34.915555","","","","","","",""
15.0,0.0459999218583107,0.0019993513193509297,"train",16540.0,"2021-12-01 05:09:39.064993","","","","","","",""
15.0,0.04884761571884155,0.0019992897274565906,"train",16560.0,"2021-12-01 05:09:42.796500","","","","","","",""
15.0,0.0392661951482296,0.0019992253436313303,"train",16580.0,"2021-12-01 05:09:46.521307","","","","","","",""
15.0,0.05086711049079895,0.0019991581680550313,"train",16600.0,"2021-12-01 05:09:50.646080","","","","","","",""
15.0,0.09339232742786407,0.0019990882009153785,"train",16620.0,"2021-12-01 05:09:54.363385","","","","","","",""
15.0,0.058198943734169006,0.001999015442407854,"train",16640.0,"2021-12-01 05:09:57.968299","","","","","","",""
15.0,0.06569632142782211,0.0019989398927357403,"train",16660.0,"2021-12-01 05:10:02.106413","","","","","","",""
15.0,0.05551358684897423,0.0019988615521101174,"train",16680.0,"2021-12-01 05:10:05.751721","","","","","","",""
15.0,0.04576270282268524,0.0019987804207498637,"train",16700.0,"2021-12-01 05:10:09.430454","","","","","","",""
15.0,0.0802985355257988,0.0019986964988816533,"train",16720.0,"2021-12-01 05:10:13.444969","","","","","","",""
15.0,0.04502187669277191,0.0019986097867399585,"train",16740.0,"2021-12-01 05:10:17.087024","","","","","","",""
15.0,0.07589460909366608,0.0019985202845670463,"train",16760.0,"2021-12-01 05:10:20.726635","","","","","","",""
15.0,0.09954065829515457,0.0019984279926129798,"train",16780.0,"2021-12-01 05:10:24.776678","","","","","","",""
15.0,0.0583178773522377,0.001998332911135615,"train",16800.0,"2021-12-01 05:10:28.501539","","","","","","",""
15.0,0.05149643495678902,0.0019982350404006036,"train",16820.0,"2021-12-01 05:10:32.186286","","","","","","",""
15.0,0.07289820909500122,0.0019981343806813883,"train",16840.0,"2021-12-01 05:10:35.794283","","","","","","",""
15.0,0.03467567265033722,0.001998030932259205,"train",16860.0,"2021-12-01 05:10:39.899782","","","","","","",""
15.0,0.0452393963932991,0.0019979246954230823,"train",16880.0,"2021-12-01 05:10:43.610081","","","","","","",""
15.0,0.05045357346534729,0.0019978156704698363,"train",16900.0,"2021-12-01 05:10:47.339455","","","","","","",""
15.0,0.04108044132590294,0.001997703857704076,"train",16920.0,"2021-12-01 05:10:51.403669","","","","","","",""
15.0,0.05036434903740883,0.0019975892574381976,"train",16940.0,"2021-12-01 05:10:55.083165","","","","","","",""
15.0,0.04999088868498802,0.001997471869992386,"train",16960.0,"2021-12-01 05:10:58.737980","","","","","","",""
15.0,0.04569027200341225,0.0019973516956946127,"train",16980.0,"2021-12-01 05:11:02.764121","","","","","","",""
15.0,0.0446191281080246,0.0019972287348806366,"train",17000.0,"2021-12-01 05:11:06.419691","","","","","","",""
15.0,0.10054691135883331,0.0019971029878940003,"train",17020.0,"2021-12-01 05:11:10.072460","","","","","","",""
15.0,0.07978960126638412,0.0019969744550860317,"train",17040.0,"2021-12-01 05:11:14.182877","","","","","","",""
15.0,0.07061827182769775,0.0019968431368158433,"train",17060.0,"2021-12-01 05:11:17.852943","","","","","","",""
15.0,0.08048974722623825,0.001996709033450327,"train",17080.0,"2021-12-01 05:11:21.599400","","","","","","",""
15.0,0.08094992488622665,0.0019965721453641585,"train",17100.0,"2021-12-01 05:11:25.685755","","","","","","",""
15.0,0.05631094053387642,0.0019964324729397935,"train",17120.0,"2021-12-01 05:11:29.327019","","","","","","",""
15.0,0.03935534507036209,0.0019962900165674657,"train",17140.0,"2021-12-01 05:11:33.078100","","","","","","",""
15.0,0.06103471666574478,0.0019961447766451887,"train",17160.0,"2021-12-01 05:11:37.208261","","","","","","",""
15.0,0.05721796303987503,0.001995996753578751,"train",17180.0,"2021-12-01 05:11:40.965279","","","","","","",""
15.0,"","","train",17184.0,"2021-12-01 05:13:21.692055",0.6724878119770065,0.7561261193452106,0.9802106981746059,0.7434685648202854,0.6360529618813193,0.6587225083735743,0.4585930236479528
15.0,"","","val",17184.0,"2021-12-01 05:13:49.448559",0.6144033399049055,0.6422457739027482,0.9576681410934307,0.6756064407795644,0.5651316419212308,0.5789186675366206,0.3816313938984341
16.0,0.04732419177889824,0.001995845947781719,"train",17200.0,"2021-12-01 05:13:55.722567","","","","","","",""
16.0,0.06061848998069763,0.001995692359675433,"train",17220.0,"2021-12-01 05:13:59.961199","","","","","","",""
16.0,0.050744518637657166,0.0019955359896890066,"train",17240.0,"2021-12-01 05:14:03.715845","","","","","","",""
16.0,0.07475487887859344,0.0019953768382593258,"train",17260.0,"2021-12-01 05:14:07.369437","","","","","","",""
16.0,0.07544323801994324,0.0019952149058310486,"train",17280.0,"2021-12-01 05:14:11.369025","","","","","","",""
16.0,0.06946669518947601,0.001995050192856602,"train",17300.0,"2021-12-01 05:14:15.109745","","","","","","",""
16.0,0.07313954085111618,0.001994882699796182,"train",17320.0,"2021-12-01 05:14:18.819601","","","","","","",""
16.0,0.04937852546572685,0.001994712427117752,"train",17340.0,"2021-12-01 05:14:22.876848","","","","","","",""
16.0,0.055183202028274536,0.0019945393752970413,"train",17360.0,"2021-12-01 05:14:26.657496","","","","","","",""
16.0,0.04166697710752487,0.001994363544817544,"train",17380.0,"2021-12-01 05:14:30.331289","","","","","","",""
16.0,0.045440491288900375,0.001994184936170517,"train",17400.0,"2021-12-01 05:14:34.500360","","","","","","",""
16.0,0.04553544148802757,0.0019940035498549804,"train",17420.0,"2021-12-01 05:14:38.274808","","","","","","",""
16.0,0.04290648177266121,0.0019938193863777145,"train",17440.0,"2021-12-01 05:14:41.997957","","","","","","",""
16.0,0.044179175049066544,0.001993632446253258,"train",17460.0,"2021-12-01 05:14:46.084179","","","","","","",""
16.0,0.04449881240725517,0.0019934427300039074,"train",17480.0,"2021-12-01 05:14:49.821939","","","","","","",""
16.0,0.09344056248664856,0.001993250238159717,"train",17500.0,"2021-12-01 05:14:53.574018","","","","","","",""
16.0,0.05344214662909508,0.0019930549712584944,"train",17520.0,"2021-12-01 05:14:57.342806","","","","","","",""
16.0,0.03801102936267853,0.001992856929845801,"train",17540.0,"2021-12-01 05:15:01.406195","","","","","","",""
16.0,0.06405684351921082,0.0019926561144749497,"train",17560.0,"2021-12-01 05:15:05.199354","","","","","","",""
16.0,0.05665663257241249,0.001992452525707004,"train",17580.0,"2021-12-01 05:15:08.987121","","","","","","",""
16.0,0.06910383701324463,0.0019922461641107767,"train",17600.0,"2021-12-01 05:15:13.175423","","","","","","",""
16.0,0.058027878403663635,0.001992037030262826,"train",17620.0,"2021-12-01 05:15:16.918377","","","","","","",""
16.0,0.053934529423713684,0.0019918251247474567,"train",17640.0,"2021-12-01 05:15:20.634815","","","","","","",""
16.0,0.0382537841796875,0.001991610448156718,"train",17660.0,"2021-12-01 05:15:24.691181","","","","","","",""
16.0,0.07256937772035599,0.0019913930010903996,"train",17680.0,"2021-12-01 05:15:28.369692","","","","","","",""
16.0,0.05986199155449867,0.001991172784156033,"train",17700.0,"2021-12-01 05:15:32.033600","","","","","","",""
16.0,0.04087325558066368,0.0019909497979688877,"train",17720.0,"2021-12-01 05:15:36.080983","","","","","","",""
16.0,0.08994556963443756,0.0019907240431519713,"train",17740.0,"2021-12-01 05:15:39.747917","","","","","","",""
16.0,0.06486748158931732,0.001990495520336026,"train",17760.0,"2021-12-01 05:15:43.414557","","","","","","",""
16.0,0.045535240322351456,0.0019902642301595284,"train",17780.0,"2021-12-01 05:15:47.528312","","","","","","",""
16.0,0.06226351484656334,0.001990030173268685,"train",17800.0,"2021-12-01 05:15:51.244065","","","","","","",""
16.0,0.04544704034924507,0.0019897933503174345,"train",17820.0,"2021-12-01 05:15:55.016194","","","","","","",""
16.0,0.04523208737373352,0.0019895537619674425,"train",17840.0,"2021-12-01 05:15:59.209217","","","","","","",""
16.0,0.07421164214611053,0.001989311408888101,"train",17860.0,"2021-12-01 05:16:03.029642","","","","","","",""
16.0,0.04848703369498253,0.001989066291756527,"train",17880.0,"2021-12-01 05:16:06.636863","","","","","","",""
16.0,0.03460609167814255,0.00198881841125756,"train",17900.0,"2021-12-01 05:16:10.630693","","","","","","",""
16.0,0.04142933711409569,0.0019885677680837595,"train",17920.0,"2021-12-01 05:16:14.256182","","","","","","",""
16.0,0.046494849026203156,0.001988314362935404,"train",17940.0,"2021-12-01 05:16:17.875120","","","","","","",""
16.0,0.06838297843933105,0.0019880581965204896,"train",17960.0,"2021-12-01 05:16:21.877488","","","","","","",""
16.0,0.07062172144651413,0.0019877992695547255,"train",17980.0,"2021-12-01 05:16:25.476153","","","","","","",""
16.0,0.03359784558415413,0.0019875375827615354,"train",18000.0,"2021-12-01 05:16:29.203799","","","","","","",""
16.0,0.043202877044677734,0.0019872731368720527,"train",18020.0,"2021-12-01 05:16:33.298559","","","","","","",""
16.0,0.04109298810362816,0.00198700593262512,"train",18040.0,"2021-12-01 05:16:36.973527","","","","","","",""
16.0,0.048562560230493546,0.001986735970767286,"train",18060.0,"2021-12-01 05:16:40.659014","","","","","","",""
16.0,0.057123299688100815,0.001986463252052804,"train",18080.0,"2021-12-01 05:16:44.341385","","","","","","",""
16.0,0.0385066457092762,0.0019861877772436305,"train",18100.0,"2021-12-01 05:16:48.401552","","","","","","",""
16.0,0.04080936685204506,0.001985909547109422,"train",18120.0,"2021-12-01 05:16:52.083637","","","","","","",""
16.0,0.04709578678011894,0.001985628562427533,"train",18140.0,"2021-12-01 05:16:55.764548","","","","","","",""
16.0,0.08297661691904068,0.001985344823983014,"train",18160.0,"2021-12-01 05:16:59.737597","","","","","","",""
16.0,0.06521210819482803,0.001985058332568609,"train",18180.0,"2021-12-01 05:17:03.252909","","","","","","",""
16.0,0.03436349332332611,0.001984769088984755,"train",18200.0,"2021-12-01 05:17:06.772121","","","","","","",""
16.0,0.04436543211340904,0.001984477094039576,"train",18220.0,"2021-12-01 05:17:10.826854","","","","","","",""
16.0,0.07471007108688354,0.001984182348548885,"train",18240.0,"2021-12-01 05:17:14.581096","","","","","","",""
16.0,"","","train",18258.0,"2021-12-01 05:18:58.427628",0.6862111620461325,0.7728648700753473,0.9829159781824076,0.7593681281992092,0.6684561443160768,0.6912188465639502,0.4846624745495839
16.0,"","","val",18258.0,"2021-12-01 05:19:25.902192",0.6184042676562681,0.6498489579802647,0.9601279353011809,0.684004620410479,0.5840082013096018,0.6000004569983071,0.3937170180861662
17.0,0.06969217211008072,0.00198388485333618,"train",18260.0,"2021-12-01 05:19:29.476814","","","","","","",""
17.0,0.04544445872306824,0.0019835846092326396,"train",18280.0,"2021-12-01 05:19:33.791913","","","","","","",""
17.0,0.041792526841163635,0.0019832816170771246,"train",18300.0,"2021-12-01 05:19:37.430309","","","","","","",""
17.0,0.08655328303575516,0.001982975877716172,"train",18320.0,"2021-12-01 05:19:41.127040","","","","","","",""
17.0,0.06434395909309387,0.0019826673920039957,"train",18340.0,"2021-12-01 05:19:45.176499","","","","","","",""
17.0,0.03713057562708855,0.0019823561608024822,"train",18360.0,"2021-12-01 05:19:48.860813","","","","","","",""
17.0,0.07083963602781296,0.0019820421849811886,"train",18380.0,"2021-12-01 05:19:52.686739","","","","","","",""
17.0,0.06344670057296753,0.0019817254654173402,"train",18400.0,"2021-12-01 05:19:56.893743","","","","","","",""
17.0,0.05204707756638527,0.0019814060029958278,"train",18420.0,"2021-12-01 05:20:00.576614","","","","","","",""
17.0,0.04213956370949745,0.001981083798609206,"train",18440.0,"2021-12-01 05:20:04.213279","","","","","","",""
17.0,0.0863577276468277,0.0019807588531576908,"train",18460.0,"2021-12-01 05:20:08.480131","","","","","","",""
17.0,0.04330424219369888,0.0019804311675491555,"train",18480.0,"2021-12-01 05:20:12.275529","","","","","","",""
17.0,0.03694072365760803,0.00198010074269913,"train",18500.0,"2021-12-01 05:20:16.123982","","","","","","",""
17.0,0.08062731474637985,0.0019797675795307965,"train",18520.0,"2021-12-01 05:20:20.502996","","","","","","",""
17.0,0.04834069311618805,0.0019794316789749885,"train",18540.0,"2021-12-01 05:20:24.178548","","","","","","",""
17.0,0.064629927277565,0.0019790930419701877,"train",18560.0,"2021-12-01 05:20:27.833494","","","","","","",""
17.0,0.09039552509784698,0.0019787516694625214,"train",18580.0,"2021-12-01 05:20:31.963465","","","","","","",""
17.0,0.04033757001161575,0.0019784075624057584,"train",18600.0,"2021-12-01 05:20:35.626352","","","","","","",""
17.0,0.08750492334365845,0.0019780607217613094,"train",18620.0,"2021-12-01 05:20:39.199856","","","","","","",""
17.0,0.0540512315928936,0.001977711148498221,"train",18640.0,"2021-12-01 05:20:43.150853","","","","","","",""
17.0,0.0407421700656414,0.0019773588435931756,"train",18660.0,"2021-12-01 05:20:46.695947","","","","","","",""
17.0,0.05182980000972748,0.0019770038080304873,"train",18680.0,"2021-12-01 05:20:50.214757","","","","","","",""
17.0,0.09213291853666306,0.001976646042802099,"train",18700.0,"2021-12-01 05:20:53.765620","","","","","","",""
17.0,0.04552628472447395,0.0019762855489075808,"train",18720.0,"2021-12-01 05:20:57.763587","","","","","","",""
17.0,0.056270256638526917,0.001975922327354126,"train",18740.0,"2021-12-01 05:21:01.482060","","","","","","",""
17.0,0.07354038208723068,0.001975556379156549,"train",18760.0,"2021-12-01 05:21:05.268280","","","","","","",""
17.0,0.07657435536384583,0.0019751877053372823,"train",18780.0,"2021-12-01 05:21:09.277350","","","","","","",""
17.0,0.09186340868473053,0.001974816306926373,"train",18800.0,"2021-12-01 05:21:12.920926","","","","","","",""
17.0,0.0798712745308876,0.001974442184961482,"train",18820.0,"2021-12-01 05:21:16.596017","","","","","","",""
17.0,0.04224187880754471,0.0019740653404878776,"train",18840.0,"2021-12-01 05:21:20.636968","","","","","","",""
17.0,0.057557832449674606,0.0019736857745584362,"train",18860.0,"2021-12-01 05:21:24.326071","","","","","","",""
17.0,0.04241235554218292,0.0019733034882336367,"train",18880.0,"2021-12-01 05:21:27.983402","","","","","","",""
17.0,0.03771429508924484,0.0019729184825815586,"train",18900.0,"2021-12-01 05:21:32.054652","","","","","","",""
17.0,0.08453848212957382,0.0019725307586778806,"train",18920.0,"2021-12-01 05:21:35.707338","","","","","","",""
17.0,0.07166220992803574,0.001972140317605874,"train",18940.0,"2021-12-01 05:21:39.332875","","","","","","",""
17.0,0.05126207694411278,0.0019717471604564028,"train",18960.0,"2021-12-01 05:21:43.328108","","","","","","",""
17.0,0.08833544701337814,0.0019713512883279185,"train",18980.0,"2021-12-01 05:21:46.946854","","","","","","",""
17.0,0.05417556315660477,0.00197095270232646,"train",19000.0,"2021-12-01 05:21:50.636242","","","","","","",""
17.0,0.06437039375305176,0.001970551403565646,"train",19020.0,"2021-12-01 05:21:54.811773","","","","","","",""
17.0,0.04401259869337082,0.0019701473931666765,"train",19040.0,"2021-12-01 05:21:58.575886","","","","","","",""
17.0,0.0693376287817955,0.001969740672258327,"train",19060.0,"2021-12-01 05:22:02.295850","","","","","","",""
17.0,0.04420526325702667,0.0019693312419769454,"train",19080.0,"2021-12-01 05:22:06.385390","","","","","","",""
17.0,0.07827820628881454,0.0019689191034664498,"train",19100.0,"2021-12-01 05:22:10.143299","","","","","","",""
17.0,0.05384112522006035,0.0019685042578783257,"train",19120.0,"2021-12-01 05:22:13.831245","","","","","","",""
17.0,0.059472888708114624,0.00196808670637162,"train",19140.0,"2021-12-01 05:22:17.896916","","","","","","",""
17.0,0.05422962084412575,0.001967666450112942,"train",19160.0,"2021-12-01 05:22:21.625127","","","","","","",""
17.0,0.04170848801732063,0.001967243490276456,"train",19180.0,"2021-12-01 05:22:25.335763","","","","","","",""
17.0,0.0789472907781601,0.0019668178280438818,"train",19200.0,"2021-12-01 05:22:29.613435","","","","","","",""
17.0,0.08593117445707321,0.0019663894646044875,"train",19220.0,"2021-12-01 05:22:33.359377","","","","","","",""
17.0,0.056131429970264435,0.001965958401155089,"train",19240.0,"2021-12-01 05:22:37.091152","","","","","","",""
17.0,0.08037176728248596,0.0019655246389000463,"train",19260.0,"2021-12-01 05:22:41.206347","","","","","","",""
17.0,0.0465596579015255,0.0019650881790512597,"train",19280.0,"2021-12-01 05:22:44.938510","","","","","","",""
17.0,0.050822291523218155,0.001964649022828165,"train",19300.0,"2021-12-01 05:22:48.617326","","","","","","",""
17.0,0.06844865530729294,0.0019642071714577325,"train",19320.0,"2021-12-01 05:22:52.419260","","","","","","",""
17.0,"","","train",19332.0,"2021-12-01 05:24:37.722969",0.6986684130102597,0.7853582129355766,0.9848037480438305,0.7733061228603373,0.6935581191246694,0.7149352270208863,0.5060978831892469
17.0,"","","val",19332.0,"2021-12-01 05:25:05.195251",0.6213614751246666,0.6526092079266431,0.9612918051022371,0.6883981585907956,0.5965355146700533,0.6114713288699625,0.3977367260217057
18.0,0.08317351341247559,0.0019637626261744634,"train",19340.0,"2021-12-01 05:25:10.012628","","","","","","",""
18.0,0.07686051726341248,0.001963315388220384,"train",19360.0,"2021-12-01 05:25:13.735192","","","","","","",""
18.0,0.07008387893438339,0.0019628654588450443,"train",19380.0,"2021-12-01 05:25:17.407840","","","","","","",""
18.0,0.08019112795591354,0.001962412839305514,"train",19400.0,"2021-12-01 05:25:21.631019","","","","","","",""
18.0,0.038522958755493164,0.0019619575308663785,"train",19420.0,"2021-12-01 05:25:25.434861","","","","","","",""
18.0,0.05696353688836098,0.001961499534799737,"train",19440.0,"2021-12-01 05:25:29.216801","","","","","","",""
18.0,0.04946818947792053,0.001961038852385196,"train",19460.0,"2021-12-01 05:25:33.385742","","","","","","",""
18.0,0.02942451648414135,0.0019605754849098683,"train",19480.0,"2021-12-01 05:25:37.182348","","","","","","",""
18.0,0.08496078848838806,0.0019601094336683693,"train",19500.0,"2021-12-01 05:25:40.940492","","","","","","",""
18.0,0.04528694972395897,0.0019596406999628116,"train",19520.0,"2021-12-01 05:25:45.136330","","","","","","",""
18.0,0.049020715057849884,0.0019591692851028022,"train",19540.0,"2021-12-01 05:25:48.982247","","","","","","",""
18.0,0.046156395226716995,0.001958695190405441,"train",19560.0,"2021-12-01 05:25:52.827741","","","","","","",""
18.0,0.07052916288375854,0.001958218417195312,"train",19580.0,"2021-12-01 05:25:56.972405","","","","","","",""
18.0,0.03523614630103111,0.001957738966804486,"train",19600.0,"2021-12-01 05:26:00.716150","","","","","","",""
18.0,0.0391153022646904,0.001957256840572511,"train",19620.0,"2021-12-01 05:26:04.423126","","","","","","",""
18.0,0.04762224107980728,0.0019567720398464133,"train",19640.0,"2021-12-01 05:26:08.500824","","","","","","",""
18.0,0.07075905054807663,0.00195628456598069,"train",19660.0,"2021-12-01 05:26:12.326985","","","","","","",""
18.0,0.0256617683917284,0.001955794420337307,"train",19680.0,"2021-12-01 05:26:16.097208","","","","","","",""
18.0,0.04989496245980263,0.0019553016042856957,"train",19700.0,"2021-12-01 05:26:20.219617","","","","","","",""
18.0,0.03656981140375137,0.001954806119202748,"train",19720.0,"2021-12-01 05:26:23.951801","","","","","","",""
18.0,0.042206499725580215,0.001954307966472812,"train",19740.0,"2021-12-01 05:26:27.657786","","","","","","",""
18.0,0.04040372371673584,0.0019538071474876914,"train",19760.0,"2021-12-01 05:26:31.767098","","","","","","",""
18.0,0.044662103056907654,0.001953303663646636,"train",19780.0,"2021-12-01 05:26:35.517821","","","","","","",""
18.0,0.0518779419362545,0.0019527975163563436,"train",19800.0,"2021-12-01 05:26:39.284348","","","","","","",""
18.0,0.06368132680654526,0.0019522887070309524,"train",19820.0,"2021-12-01 05:26:43.416247","","","","","","",""
18.0,0.07493323087692261,0.0019517772370920379,"train",19840.0,"2021-12-01 05:26:47.176721","","","","","","",""
18.0,0.03737948462367058,0.0019512631079686104,"train",19860.0,"2021-12-01 05:26:50.957321","","","","","","",""
18.0,0.055004242807626724,0.001950746321097108,"train",19880.0,"2021-12-01 05:26:55.180359","","","","","","",""
18.0,0.09200654178857803,0.0019502268779213957,"train",19900.0,"2021-12-01 05:26:59.000062","","","","","","",""
18.0,0.044093579053878784,0.0019497047798927598,"train",19920.0,"2021-12-01 05:27:02.844858","","","","","","",""
18.0,0.057062748819589615,0.001949180028469903,"train",19940.0,"2021-12-01 05:27:06.930180","","","","","","",""
18.0,0.0536489337682724,0.0019486526251189435,"train",19960.0,"2021-12-01 05:27:10.667232","","","","","","",""
18.0,0.05992007628083229,0.0019481225713134064,"train",19980.0,"2021-12-01 05:27:14.390618","","","","","","",""
18.0,0.038046564906835556,0.0019475898685342235,"train",20000.0,"2021-12-01 05:27:18.479139","","","","","","",""
18.0,0.0471394807100296,0.0019470545182697272,"train",20020.0,"2021-12-01 05:27:22.252480","","","","","","",""
18.0,0.05324605107307434,0.001946516522015647,"train",20040.0,"2021-12-01 05:27:25.924257","","","","","","",""
18.0,0.042138367891311646,0.0019459758812751047,"train",20060.0,"2021-12-01 05:27:29.604858","","","","","","",""
18.0,0.08954264968633652,0.0019454325975586106,"train",20080.0,"2021-12-01 05:27:33.686278","","","","","","",""
18.0,0.045077867805957794,0.0019448866723840602,"train",20100.0,"2021-12-01 05:27:37.361103","","","","","","",""
18.0,0.07092417776584625,0.001944338107276728,"train",20120.0,"2021-12-01 05:27:41.045830","","","","","","",""
18.0,0.05431869626045227,0.0019437869037692644,"train",20140.0,"2021-12-01 05:27:45.118255","","","","","","",""
18.0,0.07261877506971359,0.0019432330634016912,"train",20160.0,"2021-12-01 05:27:48.826544","","","","","","",""
18.0,0.04145481064915657,0.0019426765877213986,"train",20180.0,"2021-12-01 05:27:52.523821","","","","","","",""
18.0,0.09419149905443192,0.0019421174782831383,"train",20200.0,"2021-12-01 05:27:56.565883","","","","","","",""
18.0,0.053585484623909,0.0019415557366490208,"train",20220.0,"2021-12-01 05:28:00.307132","","","","","","",""
