"epoch","loss","lr","part","step","time","accuracy","auprc","auroc","challenge_metric","f_beta_measure","f_measure","g_beta_measure"
0.0,0.44667312502861023,8.000730236035311e-05,"train",20.0,"2021-11-29 21:54:22.337033","","","","","","",""
0.0,0.22915397584438324,8.002920933031948e-05,"train",40.0,"2021-11-29 21:54:26.821735","","","","","","",""
0.0,0.14566980302333832,8.006572057662293e-05,"train",60.0,"2021-11-29 21:54:30.862778","","","","","","",""
0.0,0.144049271941185,8.011683554380914e-05,"train",80.0,"2021-11-29 21:54:35.341589","","","","","","",""
0.0,0.14252138137817383,8.018255345425274e-05,"train",100.0,"2021-11-29 21:54:39.421812","","","","","","",""
0.0,0.13354702293872833,8.026287330817079e-05,"train",120.0,"2021-11-29 21:54:43.787264","","","","","","",""
0.0,0.13298916816711426,8.03577938836373e-05,"train",140.0,"2021-11-29 21:54:47.868367","","","","","","",""
0.0,0.14307235181331635,8.04673137366021e-05,"train",160.0,"2021-11-29 21:54:52.298138","","","","","","",""
0.0,0.15139009058475494,8.059143120091187e-05,"train",180.0,"2021-11-29 21:54:56.360059","","","","","","",""
0.0,0.14610829949378967,8.073014438833613e-05,"train",200.0,"2021-11-29 21:55:00.884410","","","","","","",""
0.0,0.15614506602287292,8.088345118859724e-05,"train",220.0,"2021-11-29 21:55:05.098843","","","","","","",""
0.0,0.1422296166419983,8.10513492693996e-05,"train",240.0,"2021-11-29 21:55:09.547475","","","","","","",""
0.0,0.14650993049144745,8.123383607646804e-05,"train",260.0,"2021-11-29 21:55:13.680505","","","","","","",""
0.0,0.16576004028320312,8.143090883358495e-05,"train",280.0,"2021-11-29 21:55:18.253753","","","","","","",""
0.0,0.14019247889518738,8.164256454263295e-05,"train",300.0,"2021-11-29 21:55:22.352504","","","","","","",""
0.0,0.1475701630115509,8.186879998364088e-05,"train",320.0,"2021-11-29 21:55:26.894369","","","","","","",""
0.0,0.13352656364440918,8.210961171483213e-05,"train",340.0,"2021-11-29 21:55:31.090089","","","","","","",""
0.0,0.14006197452545166,8.236499607267717e-05,"train",360.0,"2021-11-29 21:55:35.507992","","","","","","",""
0.0,0.12959563732147217,8.26349491719505e-05,"train",380.0,"2021-11-29 21:55:39.478189","","","","","","",""
0.0,0.13815848529338837,8.291946690578713e-05,"train",400.0,"2021-11-29 21:55:43.809183","","","","","","",""
0.0,0.1398417204618454,8.321854494574774e-05,"train",420.0,"2021-11-29 21:55:47.776338","","","","","","",""
0.0,0.12430145591497421,8.353217874188293e-05,"train",440.0,"2021-11-29 21:55:52.103576","","","","","","",""
0.0,0.1432269662618637,8.38603635228035e-05,"train",460.0,"2021-11-29 21:55:56.151838","","","","","","",""
0.0,0.15529897809028625,8.420309429575212e-05,"train",480.0,"2021-11-29 21:56:00.665425","","","","","","",""
0.0,0.13380329310894012,8.456036584667914e-05,"train",500.0,"2021-11-29 21:56:04.696753","","","","","","",""
0.0,0.12948456406593323,8.493217274032315e-05,"train",520.0,"2021-11-29 21:56:09.066643","","","","","","",""
0.0,0.14287953078746796,8.531850932029235e-05,"train",540.0,"2021-11-29 21:56:13.136302","","","","","","",""
0.0,0.14621412754058838,8.571936970915212e-05,"train",560.0,"2021-11-29 21:56:17.508953","","","","","","",""
0.0,0.12466063350439072,8.613474780851246e-05,"train",580.0,"2021-11-29 21:56:21.529228","","","","","","",""
0.0,0.1306045949459076,8.656463729912224e-05,"train",600.0,"2021-11-29 21:56:25.908356","","","","","","",""
0.0,0.13260099291801453,8.700903164096468e-05,"train",620.0,"2021-11-29 21:56:30.011080","","","","","","",""
0.0,0.1213446632027626,8.746792407335769e-05,"train",640.0,"2021-11-29 21:56:34.520596","","","","","","",""
0.0,0.11083565652370453,8.794130761505497e-05,"train",660.0,"2021-11-29 21:56:38.650510","","","","","","",""
0.0,0.15660624206066132,8.842917506435462e-05,"train",680.0,"2021-11-29 21:56:43.008229","","","","","","",""
0.0,0.11603386700153351,8.893151899920645e-05,"train",700.0,"2021-11-29 21:56:46.982971","","","","","","",""
0.0,0.1413140892982483,8.944833177732632e-05,"train",720.0,"2021-11-29 21:56:51.287362","","","","","","",""
0.0,0.12045197188854218,8.997960553631186e-05,"train",740.0,"2021-11-29 21:56:55.253138","","","","","","",""
0.0,0.12461207807064056,9.052533219376224e-05,"train",760.0,"2021-11-29 21:56:59.525643","","","","","","",""
0.0,0.11582022160291672,9.108550344740104e-05,"train",780.0,"2021-11-29 21:57:03.500354","","","","","","",""
0.0,0.10408022254705429,9.166011077520208e-05,"train",800.0,"2021-11-29 21:57:07.761508","","","","","","",""
0.0,0.11157511174678802,9.224914543552059e-05,"train",820.0,"2021-11-29 21:57:11.727755","","","","","","",""
0.0,0.13367977738380432,9.285259846722417e-05,"train",840.0,"2021-11-29 21:57:16.109120","","","","","","",""
0.0,0.10770288109779358,9.34704606898307e-05,"train",860.0,"2021-11-29 21:57:20.206592","","","","","","",""
0.0,0.11249088495969772,9.410272270364735e-05,"train",880.0,"2021-11-29 21:57:24.536356","","","","","","",""
0.0,0.1211637407541275,9.474937488991348e-05,"train",900.0,"2021-11-29 21:57:28.491634","","","","","","",""
0.0,0.0945911630988121,9.541040741094719e-05,"train",920.0,"2021-11-29 21:57:32.878591","","","","","","",""
0.0,0.11546485871076584,9.608581021029522e-05,"train",940.0,"2021-11-29 21:57:36.853405","","","","","","",""
0.0,0.12503722310066223,9.677557301288509e-05,"train",960.0,"2021-11-29 21:57:41.179157","","","","","","",""
0.0,0.12372351437807083,9.747968532518238e-05,"train",980.0,"2021-11-29 21:57:45.118225","","","","","","",""
0.0,0.10605709999799728,9.819813643535029e-05,"train",1000.0,"2021-11-29 21:57:49.426886","","","","","","",""
0.0,0.12209656089544296,9.893091541341185e-05,"train",1020.0,"2021-11-29 21:57:53.410176","","","","","","",""
0.0,0.11232270300388336,9.967801111141644e-05,"train",1040.0,"2021-11-29 21:57:57.880862","","","","","","",""
0.0,0.11222480237483978,0.00010043941216361023,"train",1060.0,"2021-11-29 21:58:01.991279","","","","","","",""
0.0,"","","train",1074.0,"2021-11-29 21:59:53.069575",0.37135996507312813,0.2113552010682992,0.7799133128617429,0.32590223997974904,0.1631220990210123,0.1462096033101106,0.10199602701855527
0.0,"","","val",1074.0,"2021-11-29 22:00:21.657606",0.369766902470138,0.21137685756812352,0.782826273271833,0.3278669084656398,0.1634737571534205,0.14689591576168526,0.10160032071593408
1.0,0.1196899488568306,0.00010121510698660771,"train",1080.0,"2021-11-29 22:00:26.528777","","","","","","",""
1.0,0.1058255136013031,0.00010200508377956928,"train",1100.0,"2021-11-29 22:00:30.433128","","","","","","",""
1.0,0.09758012741804123,0.00010280933052437993,"train",1120.0,"2021-11-29 22:00:34.838198","","","","","","",""
1.0,0.10150808095932007,0.00010362783498583223,"train",1140.0,"2021-11-29 22:00:39.018483","","","","","","",""
1.0,0.10845408588647842,0.0001044605847118124,"train",1160.0,"2021-11-29 22:00:43.505287","","","","","","",""
1.0,0.09969975054264069,0.0001053075670334907,"train",1180.0,"2021-11-29 22:00:47.634556","","","","","","",""
1.0,0.09592854231595993,0.00010616876906551181,"train",1200.0,"2021-11-29 22:00:52.222244","","","","","","",""
1.0,0.11564609408378601,0.0001070441777061941,"train",1220.0,"2021-11-29 22:00:56.751139","","","","","","",""
1.0,0.11451499909162521,0.00010793377963772563,"train",1240.0,"2021-11-29 22:01:00.880351","","","","","","",""
1.0,0.10519321262836456,0.0001088375613263698,"train",1260.0,"2021-11-29 22:01:05.354324","","","","","","",""
1.0,0.1162751317024231,0.00010975550902266908,"train",1280.0,"2021-11-29 22:01:09.494736","","","","","","",""
1.0,0.11793635785579681,0.00011068760876165474,"train",1300.0,"2021-11-29 22:01:13.952071","","","","","","",""
1.0,0.09341322630643845,0.0001116338463630598,"train",1320.0,"2021-11-29 22:01:17.952829","","","","","","",""
1.0,0.10080189257860184,0.00011259420743153455,"train",1340.0,"2021-11-29 22:01:22.283380","","","","","","",""
1.0,0.10342513769865036,0.00011356867735686535,"train",1360.0,"2021-11-29 22:01:26.648046","","","","","","",""
1.0,0.11480636149644852,0.00011455724131419621,"train",1380.0,"2021-11-29 22:01:30.733120","","","","","","",""
1.0,0.1217530220746994,0.00011555988426425654,"train",1400.0,"2021-11-29 22:01:35.158402","","","","","","",""
1.0,0.10401696711778641,0.00011657659095358746,"train",1420.0,"2021-11-29 22:01:39.183874","","","","","","",""
1.0,0.09206182509660721,0.00011760734591477516,"train",1440.0,"2021-11-29 22:01:43.659618","","","","","","",""
1.0,0.10324764996767044,0.00011865213346668618,"train",1460.0,"2021-11-29 22:01:47.615217","","","","","","",""
1.0,0.10336173325777054,0.00011971093771470502,"train",1480.0,"2021-11-29 22:01:51.904077","","","","","","",""
1.0,0.10290399193763733,0.0001207837425509777,"train",1500.0,"2021-11-29 22:01:56.197915","","","","","","",""
1.0,0.10138867050409317,0.00012187053165465503,"train",1520.0,"2021-11-29 22:02:00.180905","","","","","","",""
1.0,0.09788310527801514,0.000122971288492142,"train",1540.0,"2021-11-29 22:02:04.536021","","","","","","",""
1.0,0.09459809213876724,0.00012408599631734863,"train",1560.0,"2021-11-29 22:02:08.563944","","","","","","",""
1.0,0.09975960105657578,0.00012521463817194542,"train",1580.0,"2021-11-29 22:02:12.950169","","","","","","",""
1.0,0.10248413681983948,0.00012635719688562077,"train",1600.0,"2021-11-29 22:02:17.115568","","","","","","",""
1.0,0.09139527380466461,0.00012751365507634267,"train",1620.0,"2021-11-29 22:02:21.650051","","","","","","",""
1.0,0.1052340418100357,0.0001286839951506226,"train",1640.0,"2021-11-29 22:02:26.228233","","","","","","",""
1.0,0.09713365882635117,0.00012986819930378333,"train",1660.0,"2021-11-29 22:02:30.447607","","","","","","",""
1.0,0.08451953530311584,0.00013106624952023064,"train",1680.0,"2021-11-29 22:02:34.834600","","","","","","",""
1.0,0.09120556712150574,0.00013227812757372545,"train",1700.0,"2021-11-29 22:02:38.880853","","","","","","",""
1.0,0.09115788340568542,0.00013350381502766394,"train",1720.0,"2021-11-29 22:02:43.281353","","","","","","",""
1.0,0.0908033549785614,0.00013474329323535494,"train",1740.0,"2021-11-29 22:02:47.299748","","","","","","",""
1.0,0.08908607810735703,0.0001359965433403059,"train",1760.0,"2021-11-29 22:02:51.651240","","","","","","",""
1.0,0.0983813926577568,0.00013726354627650872,"train",1780.0,"2021-11-29 22:02:56.000832","","","","","","",""
1.0,0.08385133743286133,0.00013854428276873052,"train",1800.0,"2021-11-29 22:03:00.016016","","","","","","",""
1.0,0.10470427572727203,0.00013983873333280506,"train",1820.0,"2021-11-29 22:03:04.442504","","","","","","",""
1.0,0.09058335423469543,0.00014114687827593156,"train",1840.0,"2021-11-29 22:03:08.501077","","","","","","",""
1.0,0.12270193547010422,0.00014246869769697352,"train",1860.0,"2021-11-29 22:03:12.859218","","","","","","",""
1.0,0.10411296039819717,0.00014380417148676054,"train",1880.0,"2021-11-29 22:03:16.988754","","","","","","",""
1.0,0.13075987994670868,0.00014515327932839404,"train",1900.0,"2021-11-29 22:03:21.496977","","","","","","",""
1.0,0.14148473739624023,0.0001465160006975598,"train",1920.0,"2021-11-29 22:03:25.954175","","","","","","",""
1.0,0.09371402859687805,0.00014789231486283454,"train",1940.0,"2021-11-29 22:03:30.025831","","","","","","",""
1.0,0.09571631252765656,0.00014928220088600633,"train",1960.0,"2021-11-29 22:03:34.407337","","","","","","",""
1.0,0.0949031412601471,0.00015068563762239045,"train",1980.0,"2021-11-29 22:03:38.446195","","","","","","",""
1.0,0.08649729192256927,0.00015210260372115238,"train",2000.0,"2021-11-29 22:03:42.769595","","","","","","",""
1.0,0.1034725084900856,0.00015353307762563115,"train",2020.0,"2021-11-29 22:03:46.781107","","","","","","",""
1.0,0.09674351662397385,0.00015497703757366872,"train",2040.0,"2021-11-29 22:03:51.157212","","","","","","",""
1.0,0.09574222564697266,0.00015643446159794,"train",2060.0,"2021-11-29 22:03:55.527277","","","","","","",""
1.0,0.07848741859197617,0.0001579053275262887,"train",2080.0,"2021-11-29 22:03:59.673399","","","","","","",""
1.0,0.10272279381752014,0.00015938961298206183,"train",2100.0,"2021-11-29 22:04:04.235104","","","","","","",""
1.0,0.11729642748832703,0.00016088729538445297,"train",2120.0,"2021-11-29 22:04:08.415472","","","","","","",""
1.0,0.11285660415887833,0.000162398351948844,"train",2140.0,"2021-11-29 22:04:12.808717","","","","","","",""
1.0,"","","train",2148.0,"2021-11-29 22:05:58.320767",0.43533435203376264,0.2911550173854829,0.8406631989081862,0.3830832650610815,0.19106680004837934,0.18192303726507827,0.13245559625765285
1.0,"","","val",2148.0,"2021-11-29 22:06:26.228088",0.4320422126869999,0.28481584034047164,0.8375665119802904,0.37814436213635577,0.1894663675088439,0.18156769341997367,0.1297573677171027
2.0,0.11064054071903229,0.00016392275968715297,"train",2160.0,"2021-11-29 22:06:32.340095","","","","","","",""
2.0,0.0946270152926445,0.00016546049540818223,"train",2180.0,"2021-11-29 22:06:36.382951","","","","","","",""
2.0,0.09965933859348297,0.00016701153571797313,"train",2200.0,"2021-11-29 22:06:40.852325","","","","","","",""
2.0,0.11330343782901764,0.00016857585702016015,"train",2220.0,"2021-11-29 22:06:45.298256","","","","","","",""
2.0,0.09179311990737915,0.00017015343551633126,"train",2240.0,"2021-11-29 22:06:49.368198","","","","","","",""
2.0,0.10645129531621933,0.0001717442472063892,"train",2260.0,"2021-11-29 22:06:53.854060","","","","","","",""
2.0,0.09687123447656631,0.00017334826788891681,"train",2280.0,"2021-11-29 22:06:58.334269","","","","","","",""
2.0,0.10592185705900192,0.00017496547316154555,"train",2300.0,"2021-11-29 22:07:02.831419","","","","","","",""
2.0,0.09750828891992569,0.00017659583842132573,"train",2320.0,"2021-11-29 22:07:06.883840","","","","","","",""
2.0,0.0924670547246933,0.00017823933886510217,"train",2340.0,"2021-11-29 22:07:11.480626","","","","","","",""
2.0,0.08709856867790222,0.00017989594948989015,"train",2360.0,"2021-11-29 22:07:16.167890","","","","","","",""
2.0,0.11576944589614868,0.00018156564509325753,"train",2380.0,"2021-11-29 22:07:20.356729","","","","","","",""
2.0,0.08392224460840225,0.0001832484002737059,"train",2400.0,"2021-11-29 22:07:24.904414","","","","","","",""
2.0,0.11670491099357605,0.00018494418943105877,"train",2420.0,"2021-11-29 22:07:29.409502","","","","","","",""
2.0,0.1004994660615921,0.00018665298676685078,"train",2440.0,"2021-11-29 22:07:33.708321","","","","","","",""
2.0,0.13170692324638367,0.0001883747662847191,"train",2460.0,"2021-11-29 22:07:37.674768","","","","","","",""
2.0,0.08697696030139923,0.00019010950179080112,"train",2480.0,"2021-11-29 22:07:42.045164","","","","","","",""
2.0,0.09071704745292664,0.00019185716689412995,"train",2500.0,"2021-11-29 22:07:46.423444","","","","","","",""
2.0,0.0764065831899643,0.00019361773500703797,"train",2520.0,"2021-11-29 22:07:50.479504","","","","","","",""
2.0,0.1073683574795723,0.00019539117934556168,"train",2540.0,"2021-11-29 22:07:54.898935","","","","","","",""
2.0,0.08742901682853699,0.00019717747292984696,"train",2560.0,"2021-11-29 22:07:59.377972","","","","","","",""
2.0,0.0928228497505188,0.0001989765885845624,"train",2580.0,"2021-11-29 22:08:03.738586","","","","","","",""
2.0,0.09364083409309387,0.00020078849893931014,"train",2600.0,"2021-11-29 22:08:07.732874","","","","","","",""
2.0,0.08525297045707703,0.0002026131764290434,"train",2620.0,"2021-11-29 22:08:12.210606","","","","","","",""
2.0,0.079513780772686,0.00020445059329448614,"train",2640.0,"2021-11-29 22:08:16.679807","","","","","","",""
2.0,0.07599921524524689,0.00020630072158255497,"train",2660.0,"2021-11-29 22:08:20.828720","","","","","","",""
2.0,0.08149953931570053,0.00020816353314678467,"train",2680.0,"2021-11-29 22:08:25.163728","","","","","","",""
2.0,0.11026085913181305,0.00021003899964775505,"train",2700.0,"2021-11-29 22:08:29.521905","","","","","","",""
2.0,0.08256382495164871,0.00021192709255352473,"train",2720.0,"2021-11-29 22:08:33.844914","","","","","","",""
2.0,0.09473943710327148,0.00021382778314006255,"train",2740.0,"2021-11-29 22:08:37.800000","","","","","","",""
2.0,0.09745998680591583,0.00021574104249168615,"train",2760.0,"2021-11-29 22:08:42.121749","","","","","","",""
2.0,0.09429700672626495,0.00021766684150150133,"train",2780.0,"2021-11-29 22:08:46.483938","","","","","","",""
2.0,0.1037767305970192,0.00021960515087184485,"train",2800.0,"2021-11-29 22:08:50.516809","","","","","","",""
2.0,0.08959183096885681,0.00022155594111472978,"train",2820.0,"2021-11-29 22:08:54.895147","","","","","","",""
2.0,0.08865335583686829,0.0002235191825522959,"train",2840.0,"2021-11-29 22:08:59.324088","","","","","","",""
2.0,0.08668158203363419,0.00022549484531725838,"train",2860.0,"2021-11-29 22:09:03.838971","","","","","","",""
2.0,0.11198670417070389,0.00022748289935336434,"train",2880.0,"2021-11-29 22:09:07.996085","","","","","","",""
2.0,0.08499272167682648,0.00022948331441584964,"train",2900.0,"2021-11-29 22:09:12.524672","","","","","","",""
2.0,0.09183704107999802,0.00023149606007189785,"train",2920.0,"2021-11-29 22:09:17.050683","","","","","","",""
2.0,0.11588713526725769,0.00023352110570110476,"train",2940.0,"2021-11-29 22:09:21.242173","","","","","","",""
2.0,0.10748247057199478,0.00023555842049594305,"train",2960.0,"2021-11-29 22:09:25.771631","","","","","","",""
2.0,0.09276533126831055,0.00023760797346223305,"train",2980.0,"2021-11-29 22:09:30.308890","","","","","","",""
2.0,0.09658116102218628,0.00023966973341961028,"train",3000.0,"2021-11-29 22:09:34.866700","","","","","","",""
2.0,0.10378064960241318,0.0002417436690020044,"train",3020.0,"2021-11-29 22:09:39.022360","","","","","","",""
2.0,0.0879262164235115,0.00024382974865811325,"train",3040.0,"2021-11-29 22:09:43.516976","","","","","","",""
2.0,0.07397928088903427,0.000245927940651884,"train",3060.0,"2021-11-29 22:09:48.026402","","","","","","",""
2.0,0.09435751289129257,0.0002480382130629953,"train",3080.0,"2021-11-29 22:09:52.075708","","","","","","",""
2.0,0.09466063231229782,0.0002501605337873443,"train",3100.0,"2021-11-29 22:09:56.404871","","","","","","",""
2.0,0.09695329517126083,0.0002522948705375337,"train",3120.0,"2021-11-29 22:10:00.756542","","","","","","",""
2.0,0.08378615975379944,0.00025444119084336303,"train",3140.0,"2021-11-29 22:10:05.113736","","","","","","",""
2.0,0.08525977283716202,0.00025659946205232364,"train",3160.0,"2021-11-29 22:10:09.157070","","","","","","",""
2.0,0.08934727311134338,0.0002587696513300941,"train",3180.0,"2021-11-29 22:10:13.524248","","","","","","",""
2.0,0.06781338155269623,0.0002609517256610412,"train",3200.0,"2021-11-29 22:10:17.904406","","","","","","",""
2.0,0.06535709649324417,0.00026314565184872084,"train",3220.0,"2021-11-29 22:10:21.857444","","","","","","",""
2.0,"","","train",3222.0,"2021-11-29 22:12:05.968077",0.4689223604744233,0.3500121793415527,0.8677037013476829,0.4333778519176725,0.24675442760307068,0.2495185850029376,0.16447015143731372
2.0,"","","val",3222.0,"2021-11-29 22:12:34.101792",0.46694885770613476,0.34147545286363595,0.8634235687568795,0.43035800817165176,0.24468945177971274,0.24616298344156584,0.16104129587802435
3.0,0.08702480047941208,0.0002653513965163838,"train",3240.0,"2021-11-29 22:12:41.059076","","","","","","",""
3.0,0.10694068670272827,0.0002675689261074836,"train",3260.0,"2021-11-29 22:12:45.618989","","","","","","",""
3.0,0.09690509736537933,0.00026979820688618605,"train",3280.0,"2021-11-29 22:12:50.109345","","","","","","",""
3.0,0.1084633469581604,0.00027203920493788433,"train",3300.0,"2021-11-29 22:12:54.458314","","","","","","",""
3.0,0.08712980896234512,0.00027429188616971277,"train",3320.0,"2021-11-29 22:12:58.429194","","","","","","",""
3.0,0.05896478146314621,0.0002765562163110668,"train",3340.0,"2021-11-29 22:13:02.790533","","","","","","",""
3.0,0.09615280479192734,0.00027883216091412503,"train",3360.0,"2021-11-29 22:13:07.148687","","","","","","",""
3.0,0.11098001897335052,0.0002811196853543707,"train",3380.0,"2021-11-29 22:13:11.638016","","","","","","",""
3.0,0.08353501558303833,0.00028341875483112134,"train",3400.0,"2021-11-29 22:13:16.124112","","","","","","",""
3.0,0.0757719874382019,0.00028572933436805644,"train",3420.0,"2021-11-29 22:13:20.162636","","","","","","",""
3.0,0.08482316136360168,0.0002880513888137504,"train",3440.0,"2021-11-29 22:13:24.472394","","","","","","",""
3.0,0.12010248005390167,0.0002903848828422063,"train",3460.0,"2021-11-29 22:13:28.839663","","","","","","",""
3.0,0.09284660220146179,0.00029272978095339465,"train",3480.0,"2021-11-29 22:13:33.201659","","","","","","",""
3.0,0.07592864334583282,0.00029508604747379243,"train",3500.0,"2021-11-29 22:13:37.599222","","","","","","",""
3.0,0.1003446951508522,0.00029745364655692653,"train",3520.0,"2021-11-29 22:13:41.615690","","","","","","",""
3.0,0.10423961281776428,0.0002998325421839181,"train",3540.0,"2021-11-29 22:13:46.082121","","","","","","",""
3.0,0.08281844109296799,0.0003022226981640318,"train",3560.0,"2021-11-29 22:13:50.498369","","","","","","",""
3.0,0.06900368630886078,0.00030462407813522494,"train",3580.0,"2021-11-29 22:13:54.877158","","","","","","",""
3.0,0.0954555869102478,0.0003070366455647027,"train",3600.0,"2021-11-29 22:13:59.261738","","","","","","",""
3.0,0.11122176051139832,0.000309460363749471,"train",3620.0,"2021-11-29 22:14:03.266645","","","","","","",""
3.0,0.06966598331928253,0.0003118951958168978,"train",3640.0,"2021-11-29 22:14:07.610377","","","","","","",""
3.0,0.09934590756893158,0.0003143411047252722,"train",3660.0,"2021-11-29 22:14:11.983986","","","","","","",""
3.0,0.08978603035211563,0.0003167980532643691,"train",3680.0,"2021-11-29 22:14:16.431156","","","","","","",""
3.0,0.09129974246025085,0.0003192660040560141,"train",3700.0,"2021-11-29 22:14:20.806907","","","","","","",""
3.0,0.08978215605020523,0.0003217449195546528,"train",3720.0,"2021-11-29 22:14:24.790866","","","","","","",""
3.0,0.07858467102050781,0.00032423476204792244,"train",3740.0,"2021-11-29 22:14:29.235345","","","","","","",""
3.0,0.0602116696536541,0.0003267354936572248,"train",3760.0,"2021-11-29 22:14:33.755076","","","","","","",""
3.0,0.09046036005020142,0.0003292470763383026,"train",3780.0,"2021-11-29 22:14:38.202262","","","","","","",""
3.0,0.07847678661346436,0.0003317694718818192,"train",3800.0,"2021-11-29 22:14:42.722774","","","","","","",""
3.0,0.06763013452291489,0.00033430264191393853,"train",3820.0,"2021-11-29 22:14:46.929476","","","","","","",""
3.0,0.09631949663162231,0.0003368465478969097,"train",3840.0,"2021-11-29 22:14:51.477815","","","","","","",""
3.0,0.08185805380344391,0.0003394011511296533,"train",3860.0,"2021-11-29 22:14:56.069464","","","","","","",""
3.0,0.1072550043463707,0.0003419664127483496,"train",3880.0,"2021-11-29 22:15:00.656724","","","","","","",""
3.0,0.0662410706281662,0.00034454229372703074,"train",3900.0,"2021-11-29 22:15:05.104937","","","","","","",""
3.0,0.10110313445329666,0.00034712875487817314,"train",3920.0,"2021-11-29 22:15:09.251219","","","","","","",""
3.0,0.07081674784421921,0.00034972575685329526,"train",3940.0,"2021-11-29 22:15:13.791373","","","","","","",""
3.0,0.10623501986265182,0.0003523332601435541,"train",3960.0,"2021-11-29 22:15:18.300839","","","","","","",""
3.0,0.09264009445905685,0.00035495122508034916,"train",3980.0,"2021-11-29 22:15:22.849051","","","","","","",""
3.0,0.08514966815710068,0.0003575796118359231,"train",4000.0,"2021-11-29 22:15:27.363646","","","","","","",""
3.0,0.0929570198059082,0.00036021838042396906,"train",4020.0,"2021-11-29 22:15:31.527765","","","","","","",""
3.0,0.07898081839084625,0.0003628674907002389,"train",4040.0,"2021-11-29 22:15:36.000967","","","","","","",""
3.0,0.08163557201623917,0.00036552690236315395,"train",4060.0,"2021-11-29 22:15:40.398608","","","","","","",""
3.0,0.08831533789634705,0.00036819657495441773,"train",4080.0,"2021-11-29 22:15:44.744599","","","","","","",""
3.0,0.07215188443660736,0.0003708764678596317,"train",4100.0,"2021-11-29 22:15:49.087595","","","","","","",""
3.0,0.07914146035909653,0.00037356654030891293,"train",4120.0,"2021-11-29 22:15:53.189256","","","","","","",""
3.0,0.08860549330711365,0.0003762667513775148,"train",4140.0,"2021-11-29 22:15:57.673059","","","","","","",""
3.0,0.08616762608289719,0.0003789770599864498,"train",4160.0,"2021-11-29 22:16:02.009810","","","","","","",""
3.0,0.07708344608545303,0.000381697424903113,"train",4180.0,"2021-11-29 22:16:06.317056","","","","","","",""
3.0,0.07839933037757874,0.0003844278047419108,"train",4200.0,"2021-11-29 22:16:10.657599","","","","","","",""
3.0,0.07419899106025696,0.0003871681579648903,"train",4220.0,"2021-11-29 22:16:14.792148","","","","","","",""
3.0,0.0856902003288269,0.0003899184428823709,"train",4240.0,"2021-11-29 22:16:19.264279","","","","","","",""
3.0,0.09138675034046173,0.0003926786176535783,"train",4260.0,"2021-11-29 22:16:23.759497","","","","","","",""
3.0,0.06942285597324371,0.0003954486402872818,"train",4280.0,"2021-11-29 22:16:28.260299","","","","","","",""
3.0,"","","train",4296.0,"2021-11-29 22:18:15.040943",0.499803536345776,0.4273744287198026,0.8999942650788133,0.5204649864727326,0.3429244159595718,0.3412529024718154,0.231559513165114
3.0,"","","val",4296.0,"2021-11-29 22:18:43.327525",0.4928099269395802,0.4169457004696744,0.8953682062721607,0.507660128744499,0.33450595246609127,0.3311217385091743,0.22269979451729047
4.0,0.08546886593103409,0.0003982284686424324,"train",4300.0,"2021-11-29 22:18:47.482367","","","","","","",""
4.0,0.08045315742492676,0.0004010180604288045,"train",4320.0,"2021-11-29 22:18:51.979057","","","","","","",""
4.0,0.062412768602371216,0.00040381737320763873,"train",4340.0,"2021-11-29 22:18:56.025573","","","","","","",""
4.0,0.09334346652030945,0.0004066263643922878,"train",4360.0,"2021-11-29 22:19:00.115543","","","","","","",""
4.0,0.08350934088230133,0.0004094449912488646,"train",4380.0,"2021-11-29 22:19:04.183338","","","","","","",""
4.0,0.10286594927310944,0.0004122732108968923,"train",4400.0,"2021-11-29 22:19:08.387779","","","","","","",""
4.0,0.09546845406293869,0.0004151109803099558,"train",4420.0,"2021-11-29 22:19:12.455322","","","","","","",""
4.0,0.09475252777338028,0.00041795825631635764,"train",4440.0,"2021-11-29 22:19:16.488436","","","","","","",""
4.0,0.07396320253610611,0.0004208149955997739,"train",4460.0,"2021-11-29 22:19:20.541957","","","","","","",""
4.0,0.06571070849895477,0.0004236811546999141,"train",4480.0,"2021-11-29 22:19:24.699664","","","","","","",""
4.0,0.11775396764278412,0.0004265566900131805,"train",4500.0,"2021-11-29 22:19:28.785923","","","","","","",""
4.0,0.06316505372524261,0.0004294415577933337,"train",4520.0,"2021-11-29 22:19:32.904144","","","","","","",""
4.0,0.11026709526777267,0.00043233571415215717,"train",4540.0,"2021-11-29 22:19:37.089111","","","","","","",""
4.0,0.07089588791131973,0.0004352391150601242,"train",4560.0,"2021-11-29 22:19:41.610343","","","","","","",""
4.0,0.08405395597219467,0.0004381517163470684,"train",4580.0,"2021-11-29 22:19:45.658239","","","","","","",""
4.0,0.1109866052865982,0.00044107347370285683,"train",4600.0,"2021-11-29 22:19:49.633241","","","","","","",""
4.0,0.07726837694644928,0.00044400434267806194,"train",4620.0,"2021-11-29 22:19:53.622696","","","","","","",""
4.0,0.08468369394540787,0.00044694427868463907,"train",4640.0,"2021-11-29 22:19:57.848629","","","","","","",""
4.0,0.0600234754383564,0.00044989323699660467,"train",4660.0,"2021-11-29 22:20:01.996893","","","","","","",""
4.0,0.07168308645486832,0.0004528511727507165,"train",4680.0,"2021-11-29 22:20:06.154838","","","","","","",""
4.0,0.06524431705474854,0.00045581804094715645,"train",4700.0,"2021-11-29 22:20:10.327660","","","","","","",""
4.0,0.07796032726764679,0.00045879379645021425,"train",4720.0,"2021-11-29 22:20:14.475280","","","","","","",""
4.0,0.06574784964323044,0.0004617783939889759,"train",4740.0,"2021-11-29 22:20:18.557112","","","","","","",""
4.0,0.08474846184253693,0.0004647717881580103,"train",4760.0,"2021-11-29 22:20:22.582003","","","","","","",""
4.0,0.09149531275033951,0.0004677739334180617,"train",4780.0,"2021-11-29 22:20:26.670386","","","","","","",""
4.0,0.0717247799038887,0.00047078478409674144,"train",4800.0,"2021-11-29 22:20:30.729979","","","","","","",""
4.0,0.08582673966884613,0.00047380429438922305,"train",4820.0,"2021-11-29 22:20:35.169158","","","","","","",""
4.0,0.08060196787118912,0.00047683241835893946,"train",4840.0,"2021-11-29 22:20:39.164301","","","","","","",""
4.0,0.05318984389305115,0.0004798691099382815,"train",4860.0,"2021-11-29 22:20:43.166805","","","","","","",""
4.0,0.06365750730037689,0.0004829143229292986,"train",4880.0,"2021-11-29 22:20:47.156576","","","","","","",""
4.0,0.11235593259334564,0.0004859680110044023,"train",4900.0,"2021-11-29 22:20:51.319396","","","","","","",""
4.0,0.05281932279467583,0.0004890301277070699,"train",4920.0,"2021-11-29 22:20:55.501786","","","","","","",""
4.0,0.06339641660451889,0.0004921006264525525,"train",4940.0,"2021-11-29 22:20:59.658081","","","","","","",""
4.0,0.08676110953092575,0.0004951794605285824,"train",4960.0,"2021-11-29 22:21:03.816119","","","","","","",""
4.0,0.09458627551794052,0.0004982665830960853,"train",4980.0,"2021-11-29 22:21:07.980775","","","","","","",""
4.0,0.08532992005348206,0.0005013619471898913,"train",5000.0,"2021-11-29 22:21:12.119567","","","","","","",""
4.0,0.08492916077375412,0.0005044655057194504,"train",5020.0,"2021-11-29 22:21:16.335088","","","","","","",""
4.0,0.09787748754024506,0.0005075772114695486,"train",5040.0,"2021-11-29 22:21:20.472571","","","","","","",""
4.0,0.07695712149143219,0.0005106970171010257,"train",5060.0,"2021-11-29 22:21:24.629566","","","","","","",""
4.0,0.07214609533548355,0.0005138248751514966,"train",5080.0,"2021-11-29 22:21:29.027047","","","","","","",""
4.0,0.06621772050857544,0.0005169607380360731,"train",5100.0,"2021-11-29 22:21:33.144538","","","","","","",""
4.0,0.0838339701294899,0.000520104558048086,"train",5120.0,"2021-11-29 22:21:37.273215","","","","","","",""
4.0,0.05825572833418846,0.0005232562873598136,"train",5140.0,"2021-11-29 22:21:41.431132","","","","","","",""
4.0,0.08711396902799606,0.0005264158780232072,"train",5160.0,"2021-11-29 22:21:45.691795","","","","","","",""
4.0,0.07260199636220932,0.0005295832819706228,"train",5180.0,"2021-11-29 22:21:49.777022","","","","","","",""
4.0,0.08934785425662994,0.0005327584510155488,"train",5200.0,"2021-11-29 22:21:53.866260","","","","","","",""
4.0,0.09273597598075867,0.000535941336853343,"train",5220.0,"2021-11-29 22:21:58.029702","","","","","","",""
4.0,0.06388010829687119,0.0005391318910619655,"train",5240.0,"2021-11-29 22:22:02.217400","","","","","","",""
4.0,0.07494951784610748,0.0005423300651027144,"train",5260.0,"2021-11-29 22:22:06.365024","","","","","","",""
4.0,0.07731927931308746,0.0005455358103209663,"train",5280.0,"2021-11-29 22:22:10.524697","","","","","","",""
4.0,0.07379403710365295,0.0005487490779469157,"train",5300.0,"2021-11-29 22:22:14.642819","","","","","","",""
4.0,0.110131174325943,0.000551969819096316,"train",5320.0,"2021-11-29 22:22:19.160461","","","","","","",""
4.0,0.0861470103263855,0.0005551979847712252,"train",5340.0,"2021-11-29 22:22:23.182293","","","","","","",""
4.0,0.08175887167453766,0.0005584335258607489,"train",5360.0,"2021-11-29 22:22:27.186616","","","","","","",""
4.0,"","","train",5370.0,"2021-11-29 22:24:11.279759",0.5365204103907444,0.47105414432711856,0.9124651124923144,0.5483707362020595,0.37900031407582685,0.3817896840860942,0.2569779046833004
4.0,"","","val",5370.0,"2021-11-29 22:24:39.451878",0.5287602922416792,0.4602740018100535,0.9062987041354169,0.5323342900866772,0.36551411590967586,0.3668241540229071,0.2420515643034795
5.0,0.0813729390501976,0.0005616763931417894,"train",5380.0,"2021-11-29 22:24:44.670721","","","","","","",""
5.0,0.07668332010507584,0.0005649265372797939,"train",5400.0,"2021-11-29 22:24:48.723845","","","","","","",""
5.0,0.07503039389848709,0.0005681839088295046,"train",5420.0,"2021-11-29 22:24:52.758936","","","","","","",""
5.0,0.07538606971502304,0.0005714484582357109,"train",5440.0,"2021-11-29 22:24:56.711834","","","","","","",""
5.0,0.061941538006067276,0.0005747201358340048,"train",5460.0,"2021-11-29 22:25:01.108708","","","","","","",""
5.0,0.07470185309648514,0.0005779988918515344,"train",5480.0,"2021-11-29 22:25:05.068620","","","","","","",""
5.0,0.07055258750915527,0.0005812846764077623,"train",5500.0,"2021-11-29 22:25:09.242276","","","","","","",""
5.0,0.07497910410165787,0.0005845774395152243,"train",5520.0,"2021-11-29 22:25:13.372854","","","","","","",""
5.0,0.08865489065647125,0.0005878771310802895,"train",5540.0,"2021-11-29 22:25:17.860098","","","","","","",""
5.0,0.06624655425548553,0.0005911837009039229,"train",5560.0,"2021-11-29 22:25:21.908208","","","","","","",""
5.0,0.10381586104631424,0.0005944970986824485,"train",5580.0,"2021-11-29 22:25:26.010509","","","","","","",""
5.0,0.06961452960968018,0.000597817274008315,"train",5600.0,"2021-11-29 22:25:30.096530","","","","","","",""
5.0,0.07117567211389542,0.0006011441763708635,"train",5620.0,"2021-11-29 22:25:34.010154","","","","","","",""
5.0,0.06282426416873932,0.0006044777551570929,"train",5640.0,"2021-11-29 22:25:38.457761","","","","","","",""
5.0,0.06355512142181396,0.000607817959652434,"train",5660.0,"2021-11-29 22:25:42.427525","","","","","","",""
5.0,0.06342289596796036,0.0006111647390415189,"train",5680.0,"2021-11-29 22:25:46.463028","","","","","","",""
5.0,0.07167529314756393,0.0006145180424089525,"train",5700.0,"2021-11-29 22:25:50.471675","","","","","","",""
5.0,0.06215311214327812,0.0006178778187400902,"train",5720.0,"2021-11-29 22:25:54.998550","","","","","","",""
5.0,0.07043825834989548,0.0006212440169218129,"train",5740.0,"2021-11-29 22:25:59.168940","","","","","","",""
5.0,0.08869709074497223,0.0006246165857433027,"train",5760.0,"2021-11-29 22:26:03.306560","","","","","","",""
5.0,0.0751480907201767,0.0006279954738968251,"train",5780.0,"2021-11-29 22:26:07.422851","","","","","","",""
5.0,0.08589225262403488,0.0006313806299785075,"train",5800.0,"2021-11-29 22:26:11.440754","","","","","","",""
5.0,0.07675044983625412,0.0006347720024891209,"train",5820.0,"2021-11-29 22:26:15.784650","","","","","","",""
5.0,0.08677564561367035,0.0006381695398348657,"train",5840.0,"2021-11-29 22:26:19.731062","","","","","","",""
5.0,0.08692064881324768,0.0006415731903281542,"train",5860.0,"2021-11-29 22:26:23.684728","","","","","","",""
5.0,0.08002164959907532,0.0006449829021883979,"train",5880.0,"2021-11-29 22:26:27.662250","","","","","","",""
5.0,0.08188221603631973,0.0006483986235427956,"train",5900.0,"2021-11-29 22:26:32.004580","","","","","","",""
5.0,0.07093914598226547,0.0006518203024271213,"train",5920.0,"2021-11-29 22:26:36.031535","","","","","","",""
5.0,0.11819306015968323,0.0006552478867865169,"train",5940.0,"2021-11-29 22:26:40.051746","","","","","","",""
5.0,0.09358327835798264,0.0006586813244762815,"train",5960.0,"2021-11-29 22:26:44.031396","","","","","","",""
5.0,0.07170642912387848,0.0006621205632626672,"train",5980.0,"2021-11-29 22:26:48.002867","","","","","","",""
5.0,0.07971540093421936,0.0006655655508236717,"train",6000.0,"2021-11-29 22:26:52.327069","","","","","","",""
5.0,0.07683122158050537,0.0006690162347498356,"train",6020.0,"2021-11-29 22:26:56.408632","","","","","","",""
5.0,0.0835457593202591,0.0006724725625450389,"train",6040.0,"2021-11-29 22:27:00.517551","","","","","","",""
5.0,0.10287963598966599,0.0006759344816273003,"train",6060.0,"2021-11-29 22:27:04.611672","","","","","","",""
5.0,0.10212236642837524,0.0006794019393295771,"train",6080.0,"2021-11-29 22:27:08.971748","","","","","","",""
5.0,0.06373526901006699,0.0006828748829005654,"train",6100.0,"2021-11-29 22:27:12.979154","","","","","","",""
5.0,0.06509235501289368,0.0006863532595055041,"train",6120.0,"2021-11-29 22:27:16.985416","","","","","","",""
5.0,0.07899140566587448,0.0006898370162269777,"train",6140.0,"2021-11-29 22:27:21.002127","","","","","","",""
5.0,0.10446634888648987,0.0006933261000657217,"train",6160.0,"2021-11-29 22:27:25.050125","","","","","","",""
5.0,0.06702233850955963,0.000696820457941429,"train",6180.0,"2021-11-29 22:27:29.476677","","","","","","",""
5.0,0.06930392980575562,0.000700320036693557,"train",6200.0,"2021-11-29 22:27:33.575531","","","","","","",""
5.0,0.05726996064186096,0.0007038247830821358,"train",6220.0,"2021-11-29 22:27:37.631808","","","","","","",""
5.0,0.08730923384428024,0.0007073346437885815,"train",6240.0,"2021-11-29 22:27:41.637588","","","","","","",""
5.0,0.05929350480437279,0.000710849565416502,"train",6260.0,"2021-11-29 22:27:45.960250","","","","","","",""
5.0,0.09464865177869797,0.0007143694944925134,"train",6280.0,"2021-11-29 22:27:49.998293","","","","","","",""
5.0,0.06366289407014847,0.0007178943774670524,"train",6300.0,"2021-11-29 22:27:54.128699","","","","","","",""
5.0,0.09326332807540894,0.0007214241607151901,"train",6320.0,"2021-11-29 22:27:58.295743","","","","","","",""
5.0,0.06561803072690964,0.000724958790537449,"train",6340.0,"2021-11-29 22:28:02.431879","","","","","","",""
5.0,0.0674201026558876,0.0007284982131606195,"train",6360.0,"2021-11-29 22:28:06.912964","","","","","","",""
5.0,0.07009982317686081,0.0007320423747385781,"train",6380.0,"2021-11-29 22:28:11.034812","","","","","","",""
5.0,0.0796172097325325,0.0007355912213531054,"train",6400.0,"2021-11-29 22:28:15.077546","","","","","","",""
5.0,0.10353169590234756,0.000739144699014708,"train",6420.0,"2021-11-29 22:28:19.168586","","","","","","",""
5.0,0.0874018594622612,0.0007427027536634401,"train",6440.0,"2021-11-29 22:28:23.603194","","","","","","",""
5.0,"","","train",6444.0,"2021-11-29 22:30:08.618689",0.5535327075602124,0.49976995339139363,0.9216893465801506,0.5639450504120482,0.3928619132099654,0.398339107832926,0.2693172624847527
5.0,"","","val",6444.0,"2021-11-29 22:30:36.628654",0.5429664849820248,0.48050010845904806,0.9143072780778715,0.5484592901074407,0.3774297177488969,0.37998099682279185,0.2522162131382318
6.0,0.08241111040115356,0.0007462653311697235,"train",6460.0,"2021-11-29 22:30:43.299615","","","","","","",""
6.0,0.05336974561214447,0.0007498323773351733,"train",6480.0,"2021-11-29 22:30:47.463186","","","","","","",""
6.0,0.07342203706502914,0.0007534038378934223,"train",6500.0,"2021-11-29 22:30:52.034984","","","","","","",""
6.0,0.07264520972967148,0.0007569796585109453,"train",6520.0,"2021-11-29 22:30:56.138117","","","","","","",""
6.0,0.11122427135705948,0.0007605597847878862,"train",6540.0,"2021-11-29 22:31:00.264518","","","","","","",""
6.0,0.06415665149688721,0.0007641441622588871,"train",6560.0,"2021-11-29 22:31:04.782739","","","","","","",""
6.0,0.060048434883356094,0.0007677327363939143,"train",6580.0,"2021-11-29 22:31:08.906485","","","","","","",""
6.0,0.09066833555698395,0.0007713254525990895,"train",6600.0,"2021-11-29 22:31:13.284524","","","","","","",""
6.0,0.10275337100028992,0.0007749222562175211,"train",6620.0,"2021-11-29 22:31:17.290951","","","","","","",""
6.0,0.07283221930265427,0.000778523092530133,"train",6640.0,"2021-11-29 22:31:21.298446","","","","","","",""
6.0,0.05854875594377518,0.0007821279067564996,"train",6660.0,"2021-11-29 22:31:25.656701","","","","","","",""
6.0,0.08510585129261017,0.0007857366440556786,"train",6680.0,"2021-11-29 22:31:29.658187","","","","","","",""
6.0,0.06343380361795425,0.0007893492495270442,"train",6700.0,"2021-11-29 22:31:33.658988","","","","","","",""
6.0,0.07703929394483566,0.0007929656682111239,"train",6720.0,"2021-11-29 22:31:37.997351","","","","","","",""
6.0,0.06409364938735962,0.0007965858450904332,"train",6740.0,"2021-11-29 22:31:41.994028","","","","","","",""
6.0,0.09261614084243774,0.000800209725090314,"train",6760.0,"2021-11-29 22:31:46.099350","","","","","","",""
6.0,0.08678625524044037,0.0008038372530797706,"train",6780.0,"2021-11-29 22:31:50.567380","","","","","","",""
6.0,0.07573388516902924,0.0008074683738723109,"train",6800.0,"2021-11-29 22:31:54.708292","","","","","","",""
6.0,0.09510517120361328,0.0008111030322267832,"train",6820.0,"2021-11-29 22:31:59.215568","","","","","","",""
6.0,0.05934567004442215,0.0008147411728482187,"train",6840.0,"2021-11-29 22:32:03.322338","","","","","","",""
6.0,0.08567563444375992,0.0008183827403886721,"train",6860.0,"2021-11-29 22:32:07.388090","","","","","","",""
6.0,0.06245437636971474,0.0008220276794480633,"train",6880.0,"2021-11-29 22:32:11.972126","","","","","","",""
6.0,0.08512627333402634,0.0008256759345750203,"train",6900.0,"2021-11-29 22:32:16.024058","","","","","","",""
6.0,0.05232590064406395,0.0008293274502677234,"train",6920.0,"2021-11-29 22:32:20.076216","","","","","","",""
6.0,0.060291580855846405,0.0008329821709747486,"train",6940.0,"2021-11-29 22:32:24.544184","","","","","","",""
6.0,0.08084247261285782,0.0008366400410959136,"train",6960.0,"2021-11-29 22:32:28.637007","","","","","","",""
6.0,0.056625138968229294,0.000840301004983123,"train",6980.0,"2021-11-29 22:32:32.782234","","","","","","",""
6.0,0.060115136206150055,0.0008439650069412147,"train",7000.0,"2021-11-29 22:32:37.197599","","","","","","",""
6.0,0.06910351663827896,0.0008476319912288095,"train",7020.0,"2021-11-29 22:32:41.186530","","","","","","",""
6.0,0.07394247502088547,0.0008513019020591544,"train",7040.0,"2021-11-29 22:32:45.612925","","","","","","",""
6.0,0.06247737258672714,0.0008549746836009771,"train",7060.0,"2021-11-29 22:32:49.784870","","","","","","",""
6.0,0.11217159777879715,0.0008586502799793306,"train",7080.0,"2021-11-29 22:32:53.947174","","","","","","",""
6.0,0.055406149476766586,0.0008623286352764453,"train",7100.0,"2021-11-29 22:32:58.449711","","","","","","",""
6.0,0.07800555229187012,0.0008660096935325802,"train",7120.0,"2021-11-29 22:33:02.608018","","","","","","",""
6.0,0.08073966950178146,0.0008696933987468731,"train",7140.0,"2021-11-29 22:33:06.683686","","","","","","",""
6.0,0.06050281971693039,0.0008733796948781924,"train",7160.0,"2021-11-29 22:33:11.221165","","","","","","",""
6.0,0.07280943542718887,0.0008770685258459915,"train",7180.0,"2021-11-29 22:33:15.204021","","","","","","",""
6.0,0.08254896104335785,0.0008807598355311595,"train",7200.0,"2021-11-29 22:33:19.224097","","","","","","",""
6.0,0.07516151666641235,0.0008844535677768764,"train",7220.0,"2021-11-29 22:33:23.588149","","","","","","",""
6.0,0.055912844836711884,0.0008881496663894681,"train",7240.0,"2021-11-29 22:33:27.546866","","","","","","",""
6.0,0.08174170553684235,0.0008918480751392592,"train",7260.0,"2021-11-29 22:33:31.834806","","","","","","",""
6.0,0.06381149590015411,0.00089554873776143,"train",7280.0,"2021-11-29 22:33:35.825338","","","","","","",""
6.0,0.05470549315214157,0.0008992515979568724,"train",7300.0,"2021-11-29 22:33:39.829822","","","","","","",""
6.0,0.08433695882558823,0.0009029565993930457,"train",7320.0,"2021-11-29 22:33:44.217745","","","","","","",""
6.0,0.06571009755134583,0.0009066636857048339,"train",7340.0,"2021-11-29 22:33:48.244998","","","","","","",""
6.0,0.05697030574083328,0.0009103728004954039,"train",7360.0,"2021-11-29 22:33:52.272485","","","","","","",""
6.0,0.08858032524585724,0.0009140838873370617,"train",7380.0,"2021-11-29 22:33:56.651702","","","","","","",""
6.0,0.09163179248571396,0.0009177968897721136,"train",7400.0,"2021-11-29 22:34:00.693370","","","","","","",""
6.0,0.09501573443412781,0.0009215117513137218,"train",7420.0,"2021-11-29 22:34:04.755106","","","","","","",""
6.0,0.09427659958600998,0.0009252284154467663,"train",7440.0,"2021-11-29 22:34:09.210794","","","","","","",""
6.0,0.07479169219732285,0.0009289468256287042,"train",7460.0,"2021-11-29 22:34:13.219453","","","","","","",""
6.0,0.09113548696041107,0.0009326669252904287,"train",7480.0,"2021-11-29 22:34:17.538329","","","","","","",""
6.0,0.061751339584589005,0.0009363886578371307,"train",7500.0,"2021-11-29 22:34:21.523503","","","","","","",""
6.0,"","","train",7518.0,"2021-11-29 22:36:09.381323",0.5717237866550243,0.5118180996101417,0.9258751227154883,0.5730809392267238,0.4171291775241025,0.4282998859035035,0.28853121892280653
6.0,"","","val",7518.0,"2021-11-29 22:36:37.726794",0.5601298851907689,0.4881348738189161,0.9165803923421472,0.5560015495126004,0.4008667658264521,0.4098153033325375,0.2704772744439822
7.0,0.06396160274744034,0.0009401119666491604,"train",7520.0,"2021-11-29 22:36:41.494403","","","","","","",""
7.0,0.05627225339412689,0.0009438367950828869,"train",7540.0,"2021-11-29 22:36:45.969572","","","","","","",""
7.0,0.07346737384796143,0.000947563086471561,"train",7560.0,"2021-11-29 22:36:49.870939","","","","","","",""
7.0,0.07901763170957565,0.0009512907841261783,"train",7580.0,"2021-11-29 22:36:54.278751","","","","","","",""
7.0,0.05582387372851372,0.0009550198313363391,"train",7600.0,"2021-11-29 22:36:58.372539","","","","","","",""
7.0,0.06602498143911362,0.0009587501713711128,"train",7620.0,"2021-11-29 22:37:02.780744","","","","","","",""
7.0,0.060688551515340805,0.0009624817474799023,"train",7640.0,"2021-11-29 22:37:06.813285","","","","","","",""
7.0,0.08711877465248108,0.0009662145028933038,"train",7660.0,"2021-11-29 22:37:11.221784","","","","","","",""
7.0,0.0582851804792881,0.0009699483808239733,"train",7680.0,"2021-11-29 22:37:15.427366","","","","","","",""
7.0,0.07918908447027206,0.0009736833244674895,"train",7700.0,"2021-11-29 22:37:19.937465","","","","","","",""
7.0,0.06713388115167618,0.0009774192770032192,"train",7720.0,"2021-11-29 22:37:24.089475","","","","","","",""
7.0,0.10783500224351883,0.0009811561815951785,"train",7740.0,"2021-11-29 22:37:28.489642","","","","","","",""
7.0,0.08605144172906876,0.0009848939813929015,"train",7760.0,"2021-11-29 22:37:32.566537","","","","","","",""
7.0,0.10389706492424011,0.0009886326195323026,"train",7780.0,"2021-11-29 22:37:36.954407","","","","","","",""
7.0,0.07421894371509552,0.0009923720391365428,"train",7800.0,"2021-11-29 22:37:41.015569","","","","","","",""
7.0,0.05587344989180565,0.000996112183316893,"train",7820.0,"2021-11-29 22:37:45.451062","","","","","","",""
7.0,0.07431651651859283,0.0009998529951736029,"train",7840.0,"2021-11-29 22:37:49.543511","","","","","","",""
7.0,0.08060435205698013,0.0010035944177967638,"train",7860.0,"2021-11-29 22:37:54.215344","","","","","","",""
7.0,0.09744927287101746,0.0010073363942671744,"train",7880.0,"2021-11-29 22:37:58.258558","","","","","","",""
7.0,0.10271842777729034,0.0010110788676572094,"train",7900.0,"2021-11-29 22:38:02.601671","","","","","","",""
7.0,0.07279542833566666,0.0010148217810316822,"train",7920.0,"2021-11-29 22:38:06.684798","","","","","","",""
7.0,0.06506846845149994,0.0010185650774487127,"train",7940.0,"2021-11-29 22:38:10.950674","","","","","","",""
7.0,0.0670614019036293,0.0010223086999605951,"train",7960.0,"2021-11-29 22:38:15.022736","","","","","","",""
7.0,0.1152418777346611,0.0010260525916146609,"train",7980.0,"2021-11-29 22:38:19.483962","","","","","","",""
7.0,0.09928140789270401,0.0010297966954541469,"train",8000.0,"2021-11-29 22:38:23.457743","","","","","","",""
7.0,0.10291200876235962,0.001033540954519064,"train",8020.0,"2021-11-29 22:38:27.975389","","","","","","",""
7.0,0.07806378602981567,0.0010372853118470592,"train",8040.0,"2021-11-29 22:38:32.111938","","","","","","",""
7.0,0.09895914047956467,0.0010410297104742857,"train",8060.0,"2021-11-29 22:38:36.616760","","","","","","",""
7.0,0.08371108025312424,0.0010447740934362692,"train",8080.0,"2021-11-29 22:38:40.807648","","","","","","",""
7.0,0.1141527071595192,0.0010485184037687715,"train",8100.0,"2021-11-29 22:38:45.426908","","","","","","",""
7.0,0.06527304649353027,0.0010522625845086615,"train",8120.0,"2021-11-29 22:38:49.712256","","","","","","",""
7.0,0.06758085638284683,0.0010560065786947796,"train",8140.0,"2021-11-29 22:38:54.182433","","","","","","",""
7.0,0.06837258487939835,0.0010597503293688013,"train",8160.0,"2021-11-29 22:38:58.360218","","","","","","",""
7.0,0.08375058323144913,0.001063493779576111,"train",8180.0,"2021-11-29 22:39:02.890325","","","","","","",""
7.0,0.05371023342013359,0.0010672368723666614,"train",8200.0,"2021-11-29 22:39:07.086432","","","","","","",""
7.0,0.06948329508304596,0.0010709795507958426,"train",8220.0,"2021-11-29 22:39:11.626549","","","","","","",""
7.0,0.07874766737222672,0.0010747217579253504,"train",8240.0,"2021-11-29 22:39:15.835173","","","","","","",""
7.0,0.06716114282608032,0.0010784634368240487,"train",8260.0,"2021-11-29 22:39:20.424056","","","","","","",""
7.0,0.05475320294499397,0.0010822045305688382,"train",8280.0,"2021-11-29 22:39:24.517368","","","","","","",""
7.0,0.057286616414785385,0.0010859449822455227,"train",8300.0,"2021-11-29 22:39:28.874107","","","","","","",""
7.0,0.11010050028562546,0.001089684734949672,"train",8320.0,"2021-11-29 22:39:32.872577","","","","","","",""
7.0,0.07852198928594589,0.00109342373178749,"train",8340.0,"2021-11-29 22:39:37.304232","","","","","","",""
7.0,0.08006098121404648,0.0010971619158766821,"train",8360.0,"2021-11-29 22:39:41.520180","","","","","","",""
7.0,0.06527088582515717,0.0011008992303473152,"train",8380.0,"2021-11-29 22:39:46.093213","","","","","","",""
7.0,0.10336849093437195,0.001104635618342687,"train",8400.0,"2021-11-29 22:39:50.171916","","","","","","",""
7.0,0.0706426203250885,0.001108371023020191,"train",8420.0,"2021-11-29 22:39:54.619580","","","","","","",""
7.0,0.06565061211585999,0.0011121053875521787,"train",8440.0,"2021-11-29 22:39:58.797551","","","","","","",""
7.0,0.09894955158233643,0.0011158386551268257,"train",8460.0,"2021-11-29 22:40:03.253383","","","","","","",""
7.0,0.08735695481300354,0.0011195707689489972,"train",8480.0,"2021-11-29 22:40:07.244015","","","","","","",""
7.0,0.11238210648298264,0.0011233016722411097,"train",8500.0,"2021-11-29 22:40:11.725922","","","","","","",""
7.0,0.06096091866493225,0.0011270313082439951,"train",8520.0,"2021-11-29 22:40:15.859836","","","","","","",""
7.0,0.05464261397719383,0.001130759620217767,"train",8540.0,"2021-11-29 22:40:20.287447","","","","","","",""
7.0,0.06993887573480606,0.0011344865514426794,"train",8560.0,"2021-11-29 22:40:24.402981","","","","","","",""
7.0,0.0653889924287796,0.0011382120452199938,"train",8580.0,"2021-11-29 22:40:28.744539","","","","","","",""
7.0,"","","train",8592.0,"2021-11-29 22:42:14.149581",0.5829585971039802,0.5396773168602784,0.9308834612017569,0.5857610088277814,0.4337652417562381,0.4418225987855439,0.29879291082881687
7.0,"","","val",8592.0,"2021-11-29 22:42:42.607022",0.5664501913487185,0.5131991584696093,0.9230890421706311,0.5646360089593273,0.4135812772295885,0.4198346875956587,0.2785374667318132
8.0,0.06831899285316467,0.001141936044872839,"train",8600.0,"2021-11-29 22:42:47.532177","","","","","","",""
8.0,0.09581243246793747,0.0011456584937470744,"train",8620.0,"2021-11-29 22:42:52.025816","","","","","","",""
8.0,0.052773211151361465,0.0011493793352121522,"train",8640.0,"2021-11-29 22:42:56.408637","","","","","","",""
8.0,0.10320419818162918,0.0011530985126619784,"train",8660.0,"2021-11-29 22:43:00.560612","","","","","","",""
8.0,0.06164702773094177,0.001156815969515773,"train",8680.0,"2021-11-29 22:43:05.117759","","","","","","",""
8.0,0.09053364396095276,0.001160531649218934,"train",8700.0,"2021-11-29 22:43:09.667799","","","","","","",""
8.0,0.07265417277812958,0.001164245495243894,"train",8720.0,"2021-11-29 22:43:13.869942","","","","","","",""
8.0,0.07938919216394424,0.0011679574510909817,"train",8740.0,"2021-11-29 22:43:18.329019","","","","","","",""
8.0,0.06010026857256889,0.0011716674602892828,"train",8760.0,"2021-11-29 22:43:22.344695","","","","","","",""
8.0,0.06321755796670914,0.0011753754663974968,"train",8780.0,"2021-11-29 22:43:26.779594","","","","","","",""
8.0,0.06337606906890869,0.0011790814130047968,"train",8800.0,"2021-11-29 22:43:31.104188","","","","","","",""
8.0,0.05899650603532791,0.001182785243731688,"train",8820.0,"2021-11-29 22:43:35.147667","","","","","","",""
8.0,0.06854581832885742,0.0011864869022308656,"train",8840.0,"2021-11-29 22:43:39.534903","","","","","","",""
8.0,0.06393616646528244,0.0011901863321880693,"train",8860.0,"2021-11-29 22:43:43.875408","","","","","","",""
8.0,0.05912110581994057,0.001193883477322945,"train",8880.0,"2021-11-29 22:43:47.858550","","","","","","",""
8.0,0.08444960415363312,0.0011975782813898961,"train",8900.0,"2021-11-29 22:43:52.328718","","","","","","",""
8.0,0.09117025882005692,0.0012012706881789417,"train",8920.0,"2021-11-29 22:43:56.805136","","","","","","",""
8.0,0.08091098070144653,0.001204960641516572,"train",8940.0,"2021-11-29 22:44:00.963661","","","","","","",""
8.0,0.06750428676605225,0.0012086480852666014,"train",8960.0,"2021-11-29 22:44:05.462788","","","","","","",""
8.0,0.07915506511926651,0.0012123329633310235,"train",8980.0,"2021-11-29 22:44:09.932540","","","","","","",""
8.0,0.06547050178050995,0.0012160152196508643,"train",9000.0,"2021-11-29 22:44:14.098995","","","","","","",""
8.0,0.05531824007630348,0.0012196947982070355,"train",9020.0,"2021-11-29 22:44:18.536902","","","","","","",""
8.0,0.06730639934539795,0.0012233716430211856,"train",9040.0,"2021-11-29 22:44:22.935600","","","","","","",""
8.0,0.08009713888168335,0.001227045698156553,"train",9060.0,"2021-11-29 22:44:27.181068","","","","","","",""
8.0,0.06733186542987823,0.0012307169077188148,"train",9080.0,"2021-11-29 22:44:31.722997","","","","","","",""
8.0,0.0669342577457428,0.0012343852158569401,"train",9100.0,"2021-11-29 22:44:35.930179","","","","","","",""
8.0,0.08711264282464981,0.0012380505667640377,"train",9120.0,"2021-11-29 22:44:40.306600","","","","","","",""
8.0,0.05518653988838196,0.0012417129046782046,"train",9140.0,"2021-11-29 22:44:44.651889","","","","","","",""
8.0,0.06870737671852112,0.0012453721738833758,"train",9160.0,"2021-11-29 22:44:48.733017","","","","","","",""
8.0,0.0526510588824749,0.001249028318710172,"train",9180.0,"2021-11-29 22:44:53.104696","","","","","","",""
8.0,0.07412184774875641,0.0012526812835367447,"train",9200.0,"2021-11-29 22:44:57.472086","","","","","","",""
8.0,0.0825379490852356,0.0012563310127896242,"train",9220.0,"2021-11-29 22:45:01.482880","","","","","","",""
8.0,0.07490437477827072,0.0012599774509445645,"train",9240.0,"2021-11-29 22:45:05.828451","","","","","","",""
8.0,0.08099204301834106,0.0012636205425273874,"train",9260.0,"2021-11-29 22:45:10.205662","","","","","","",""
8.0,0.06324450671672821,0.0012672602321148268,"train",9280.0,"2021-11-29 22:45:14.240254","","","","","","",""
8.0,0.10177014768123627,0.0012708964643353732,"train",9300.0,"2021-11-29 22:45:18.679238","","","","","","",""
8.0,0.0895795151591301,0.001274529183870114,"train",9320.0,"2021-11-29 22:45:23.152280","","","","","","",""
8.0,0.07499603182077408,0.0012781583354535748,"train",9340.0,"2021-11-29 22:45:27.175746","","","","","","",""
8.0,0.0840248391032219,0.0012817838638745646,"train",9360.0,"2021-11-29 22:45:31.506928","","","","","","",""
8.0,0.10064418613910675,0.001285405713977009,"train",9380.0,"2021-11-29 22:45:35.500583","","","","","","",""
8.0,0.08644402027130127,0.0012890238306607947,"train",9400.0,"2021-11-29 22:45:39.909073","","","","","","",""
8.0,0.06429452449083328,0.001292638158882606,"train",9420.0,"2021-11-29 22:45:44.322603","","","","","","",""
8.0,0.07012045383453369,0.0012962486436567603,"train",9440.0,"2021-11-29 22:45:48.458357","","","","","","",""
8.0,0.07697142660617828,0.0012998552300560484,"train",9460.0,"2021-11-29 22:45:52.919015","","","","","","",""
8.0,0.05219363421201706,0.0013034578632125668,"train",9480.0,"2021-11-29 22:45:57.351369","","","","","","",""
8.0,0.056799426674842834,0.0013070564883185534,"train",9500.0,"2021-11-29 22:46:01.410502","","","","","","",""
8.0,0.05924351513385773,0.001310651050627223,"train",9520.0,"2021-11-29 22:46:05.813928","","","","","","",""
8.0,0.0657784640789032,0.001314241495453598,"train",9540.0,"2021-11-29 22:46:10.188103","","","","","","",""
8.0,0.05146763473749161,0.00131782776817534,"train",9560.0,"2021-11-29 22:46:14.104962","","","","","","",""
8.0,0.08961685001850128,0.0013214098142335837,"train",9580.0,"2021-11-29 22:46:18.480796","","","","","","",""
8.0,0.050236091017723083,0.001324987579133764,"train",9600.0,"2021-11-29 22:46:22.743302","","","","","","",""
8.0,0.07025837898254395,0.0013285610084464463,"train",9620.0,"2021-11-29 22:46:26.794163","","","","","","",""
8.0,0.062342870980501175,0.001332130047808155,"train",9640.0,"2021-11-29 22:46:31.162707","","","","","","",""
8.0,0.07116486132144928,0.001335694642922199,"train",9660.0,"2021-11-29 22:46:35.500024","","","","","","",""
8.0,"","","train",9666.0,"2021-11-29 22:48:19.809386",0.5849959979625992,0.5548622068521657,0.930975072665875,0.6019052469882679,0.47672912045289617,0.48213957996996537,0.3232083723623521
8.0,"","","val",9666.0,"2021-11-29 22:48:47.712987",0.5663922068885539,0.5259088194945687,0.919789584856113,0.5778769495863415,0.4548225654907049,0.45983347167922956,0.3009988721224058
9.0,0.06673936545848846,0.0013392547395594985,"train",9680.0,"2021-11-29 22:48:53.855052","","","","","","",""
9.0,0.09701497107744217,0.001342810283559412,"train",9700.0,"2021-11-29 22:48:58.407382","","","","","","",""
9.0,0.056398291140794754,0.0013463612208305564,"train",9720.0,"2021-11-29 22:49:03.001169","","","","","","",""
9.0,0.06102237105369568,0.0013499074973516321,"train",9740.0,"2021-11-29 22:49:07.193912","","","","","","",""
9.0,0.10392934083938599,0.0013534490591722464,"train",9760.0,"2021-11-29 22:49:11.756954","","","","","","",""
9.0,0.05894121155142784,0.0013569858524137305,"train",9780.0,"2021-11-29 22:49:16.311521","","","","","","",""
9.0,0.07034308463335037,0.001360517823269962,"train",9800.0,"2021-11-29 22:49:20.524964","","","","","","",""
9.0,0.0947481095790863,0.0013640449180081834,"train",9820.0,"2021-11-29 22:49:25.160798","","","","","","",""
9.0,0.06258736550807953,0.0013675670829698173,"train",9840.0,"2021-11-29 22:49:29.704187","","","","","","",""
9.0,0.06696874648332596,0.0013710842645712853,"train",9860.0,"2021-11-29 22:49:34.324770","","","","","","",""
9.0,0.09481388330459595,0.0013745964093048219,"train",9880.0,"2021-11-29 22:49:38.623159","","","","","","",""
9.0,0.09422662109136581,0.0013781034637392886,"train",9900.0,"2021-11-29 22:49:43.208558","","","","","","",""
9.0,0.10720675438642502,0.0013816053745209864,"train",9920.0,"2021-11-29 22:49:47.740889","","","","","","",""
9.0,0.08386329561471939,0.0013851020883744697,"train",9940.0,"2021-11-29 22:49:51.764683","","","","","","",""
9.0,0.0773668885231018,0.001388593552103353,"train",9960.0,"2021-11-29 22:49:56.198363","","","","","","",""
9.0,0.05228172242641449,0.0013920797125911233,"train",9980.0,"2021-11-29 22:50:00.783338","","","","","","",""
9.0,0.05554734915494919,0.001395560516801947,"train",10000.0,"2021-11-29 22:50:05.217309","","","","","","",""
9.0,0.07171650230884552,0.0013990359117814774,"train",10020.0,"2021-11-29 22:50:09.250444","","","","","","",""
9.0,0.05636079981923103,0.0014025058446576583,"train",10040.0,"2021-11-29 22:50:13.706927","","","","","","",""
9.0,0.06973385065793991,0.0014059702626415317,"train",10060.0,"2021-11-29 22:50:18.061086","","","","","","",""
9.0,0.06826870143413544,0.0014094291130280377,"train",10080.0,"2021-11-29 22:50:22.075387","","","","","","",""
9.0,0.0920453816652298,0.0014128823431968183,"train",10100.0,"2021-11-29 22:50:26.439962","","","","","","",""
9.0,0.094267338514328,0.001416329900613017,"train",10120.0,"2021-11-29 22:50:30.837581","","","","","","",""
9.0,0.06108370050787926,0.0014197717328280782,"train",10140.0,"2021-11-29 22:50:35.325815","","","","","","",""
9.0,0.07809410989284515,0.0014232077874805457,"train",10160.0,"2021-11-29 22:50:39.521699","","","","","","",""
9.0,0.054720330983400345,0.0014266380122968589,"train",10180.0,"2021-11-29 22:50:44.056001","","","","","","",""
9.0,0.06173572316765785,0.0014300623550921468,"train",10200.0,"2021-11-29 22:50:48.667331","","","","","","",""
9.0,0.09114515036344528,0.0014334807637710243,"train",10220.0,"2021-11-29 22:50:52.921076","","","","","","",""
9.0,0.06440826505422592,0.0014368931863283831,"train",10240.0,"2021-11-29 22:50:57.481054","","","","","","",""
9.0,0.05998292192816734,0.0014402995708501826,"train",10260.0,"2021-11-29 22:51:02.050843","","","","","","",""
9.0,0.07136531174182892,0.0014436998655142422,"train",10280.0,"2021-11-29 22:51:06.542361","","","","","","",""
9.0,0.04935706779360771,0.0014470940185910258,"train",10300.0,"2021-11-29 22:51:10.619298","","","","","","",""
9.0,0.07547405362129211,0.001450481978444431,"train",10320.0,"2021-11-29 22:51:15.037501","","","","","","",""
9.0,0.07147298008203506,0.0014538636935325763,"train",10340.0,"2021-11-29 22:51:19.452659","","","","","","",""
9.0,0.08158079534769058,0.0014572391124085817,"train",10360.0,"2021-11-29 22:51:23.458358","","","","","","",""
9.0,0.050468310713768005,0.0014606081837213525,"train",10380.0,"2021-11-29 22:51:27.819419","","","","","","",""
9.0,0.08741111308336258,0.0014639708562163639,"train",10400.0,"2021-11-29 22:51:32.167956","","","","","","",""
9.0,0.11006970703601837,0.001467327078736435,"train",10420.0,"2021-11-29 22:51:36.495375","","","","","","",""
9.0,0.10335486382246017,0.0014706768002225108,"train",10440.0,"2021-11-29 22:51:40.425603","","","","","","",""
9.0,0.09616126865148544,0.0014740199697144392,"train",10460.0,"2021-11-29 22:51:44.814080","","","","","","",""
9.0,0.06033759191632271,0.0014773565363517442,"train",10480.0,"2021-11-29 22:51:49.243765","","","","","","",""
9.0,0.05643798038363457,0.0014806864493744007,"train",10500.0,"2021-11-29 22:51:53.330147","","","","","","",""
9.0,0.07550006359815598,0.0014840096581236072,"train",10520.0,"2021-11-29 22:51:57.709917","","","","","","",""
9.0,0.06011565029621124,0.001487326112042556,"train",10540.0,"2021-11-29 22:52:02.013180","","","","","","",""
9.0,0.09481915831565857,0.0014906357606772013,"train",10560.0,"2021-11-29 22:52:06.495179","","","","","","",""
9.0,0.0720265731215477,0.0014939385536770291,"train",10580.0,"2021-11-29 22:52:10.601931","","","","","","",""
9.0,0.08216897398233414,0.0014972344407958218,"train",10600.0,"2021-11-29 22:52:15.046954","","","","","","",""
9.0,0.06453070789575577,0.0015005233718924213,"train",10620.0,"2021-11-29 22:52:19.551843","","","","","","",""
9.0,0.07587788254022598,0.0015038052969314946,"train",10640.0,"2021-11-29 22:52:23.650577","","","","","","",""
9.0,0.06221412494778633,0.0015070801659842939,"train",10660.0,"2021-11-29 22:52:28.166329","","","","","","",""
9.0,0.08803633600473404,0.001510347929229414,"train",10680.0,"2021-11-29 22:52:32.710316","","","","","","",""
9.0,0.06392236799001694,0.0015136085369535537,"train",10700.0,"2021-11-29 22:52:37.251293","","","","","","",""
9.0,0.05323489010334015,0.0015168619395522708,"train",10720.0,"2021-11-29 22:52:41.342442","","","","","","",""
9.0,0.04890508949756622,0.0015201080875307349,"train",10740.0,"2021-11-29 22:52:45.661389","","","","","","",""
9.0,"","","train",10740.0,"2021-11-29 22:54:29.697305",0.5892308811758713,0.5731302503561904,0.9386610286545781,0.6249880331854905,0.4795472248570735,0.4893358673819271,0.3282051310492433
9.0,"","","val",10740.0,"2021-11-29 22:54:57.381605",0.5714948393830453,0.5464555535107464,0.9314824270842746,0.6016868108287754,0.45801243902117517,0.4681734652405645,0.3038978696658861
10.0,0.08707006275653839,0.0015233469315044834,"train",10760.0,"2021-11-29 22:55:04.597755","","","","","","",""
10.0,0.07027776539325714,0.0015265784222001709,"train",10780.0,"2021-11-29 22:55:08.554222","","","","","","",""
10.0,0.09634283930063248,0.0015298025104563185,"train",10800.0,"2021-11-29 22:55:12.494711","","","","","","",""
10.0,0.08036497235298157,0.001533019147224064,"train",10820.0,"2021-11-29 22:55:16.416606","","","","","","",""
10.0,0.07766427099704742,0.0015362282835679054,"train",10840.0,"2021-11-29 22:55:20.360125","","","","","","",""
10.0,0.06341852992773056,0.0015394298706664469,"train",10860.0,"2021-11-29 22:55:24.744933","","","","","","",""
10.0,0.07686085253953934,0.001542623859813141,"train",10880.0,"2021-11-29 22:55:28.821471","","","","","","",""
10.0,0.0678788423538208,0.00154581020241703,"train",10900.0,"2021-11-29 22:55:32.786732","","","","","","",""
10.0,0.06698845326900482,0.0015489888500034858,"train",10920.0,"2021-11-29 22:55:36.796310","","","","","","",""
10.0,0.07467436045408249,0.0015521597542149444,"train",10940.0,"2021-11-29 22:55:40.948826","","","","","","",""
10.0,0.0890386626124382,0.0015553228668116455,"train",10960.0,"2021-11-29 22:55:45.106087","","","","","","",""
10.0,0.06059246510267258,0.0015584781396723642,"train",10980.0,"2021-11-29 22:55:49.283278","","","","","","",""
10.0,0.08481724560260773,0.0015616255247951432,"train",11000.0,"2021-11-29 22:55:53.444694","","","","","","",""
10.0,0.09180869162082672,0.0015647649742980233,"train",11020.0,"2021-11-29 22:55:57.544549","","","","","","",""
10.0,0.08084460347890854,0.0015678964404197727,"train",11040.0,"2021-11-29 22:56:01.697668","","","","","","",""
10.0,0.0457928329706192,0.0015710198755206112,"train",11060.0,"2021-11-29 22:56:05.840484","","","","","","",""
10.0,0.08684032410383224,0.0015741352320829379,"train",11080.0,"2021-11-29 22:56:10.002106","","","","","","",""
10.0,0.10738173127174377,0.0015772424627120527,"train",11100.0,"2021-11-29 22:56:14.060346","","","","","","",""
10.0,0.04717223718762398,0.0015803415201368761,"train",11120.0,"2021-11-29 22:56:18.547088","","","","","","",""
10.0,0.09887835383415222,0.001583432357210671,"train",11140.0,"2021-11-29 22:56:22.703345","","","","","","",""
10.0,0.06137949973344803,0.001586514926911758,"train",11160.0,"2021-11-29 22:56:26.851555","","","","","","",""
10.0,0.07938940823078156,0.0015895891823442313,"train",11180.0,"2021-11-29 22:56:31.061760","","","","","","",""
10.0,0.04480820149183273,0.0015926550767386717,"train",11200.0,"2021-11-29 22:56:35.275990","","","","","","",""
10.0,0.08009689301252365,0.0015957125634528599,"train",11220.0,"2021-11-29 22:56:39.432540","","","","","","",""
10.0,0.0998573899269104,0.0015987615959724836,"train",11240.0,"2021-11-29 22:56:43.588658","","","","","","",""
10.0,0.09275629371404648,0.0016018021279118457,"train",11260.0,"2021-11-29 22:56:47.772646","","","","","","",""
10.0,0.0965285673737526,0.0016048341130145728,"train",11280.0,"2021-11-29 22:56:51.789780","","","","","","",""
10.0,0.06110631674528122,0.0016078575051543145,"train",11300.0,"2021-11-29 22:56:55.773449","","","","","","",""
10.0,0.0567176453769207,0.0016108722583354478,"train",11320.0,"2021-11-29 22:56:59.786001","","","","","","",""
10.0,0.07698288559913635,0.0016138783266937777,"train",11340.0,"2021-11-29 22:57:03.779447","","","","","","",""
10.0,0.08469605445861816,0.0016168756644972322,"train",11360.0,"2021-11-29 22:57:07.787150","","","","","","",""
10.0,0.07909518480300903,0.0016198642261465587,"train",11380.0,"2021-11-29 22:57:12.211245","","","","","","",""
10.0,0.06403423845767975,0.0016228439661760208,"train",11400.0,"2021-11-29 22:57:16.297439","","","","","","",""
10.0,0.05924973636865616,0.001625814839254086,"train",11420.0,"2021-11-29 22:57:20.309991","","","","","","",""
10.0,0.06558295339345932,0.0016287768001841164,"train",11440.0,"2021-11-29 22:57:24.259202","","","","","","",""
10.0,0.05891963467001915,0.001631729803905059,"train",11460.0,"2021-11-29 22:57:28.134281","","","","","","",""
10.0,0.07220027595758438,0.0016346738054921273,"train",11480.0,"2021-11-29 22:57:32.022609","","","","","","",""
10.0,0.06451704353094101,0.001637608760157486,"train",11500.0,"2021-11-29 22:57:35.881633","","","","","","",""
10.0,0.09768956154584885,0.0016405346232509356,"train",11520.0,"2021-11-29 22:57:39.735350","","","","","","",""
10.0,0.05520156770944595,0.0016434513502605861,"train",11540.0,"2021-11-29 22:57:43.618671","","","","","","",""
10.0,0.10344120860099792,0.0016463588968135383,"train",11560.0,"2021-11-29 22:57:47.710234","","","","","","",""
10.0,0.08766106516122818,0.0016492572186765577,"train",11580.0,"2021-11-29 22:57:51.720409","","","","","","",""
10.0,0.06984282284975052,0.001652146271756747,"train",11600.0,"2021-11-29 22:57:55.733115","","","","","","",""
10.0,0.062262095510959625,0.0016550260121022172,"train",11620.0,"2021-11-29 22:57:59.761353","","","","","","",""
10.0,0.04997262731194496,0.0016578963959027562,"train",11640.0,"2021-11-29 22:58:04.094411","","","","","","",""
10.0,0.09539126604795456,0.001660757379490496,"train",11660.0,"2021-11-29 22:58:08.094946","","","","","","",""
10.0,0.05289160832762718,0.0016636089193405761,"train",11680.0,"2021-11-29 22:58:12.079790","","","","","","",""
10.0,0.05397545546293259,0.0016664509720718049,"train",11700.0,"2021-11-29 22:58:16.158286","","","","","","",""
10.0,0.08323563635349274,0.0016692834944473224,"train",11720.0,"2021-11-29 22:58:20.336726","","","","","","",""
10.0,0.06916322559118271,0.0016721064433752554,"train",11740.0,"2021-11-29 22:58:24.513655","","","","","","",""
10.0,0.10002098232507706,0.0016749197759093734,"train",11760.0,"2021-11-29 22:58:28.620092","","","","","","",""
10.0,0.058901991695165634,0.0016777234492497436,"train",11780.0,"2021-11-29 22:58:32.613960","","","","","","",""
10.0,0.057603489607572556,0.0016805174207433808,"train",11800.0,"2021-11-29 22:58:36.636161","","","","","","",""
10.0,"","","train",11814.0,"2021-11-29 23:00:22.697207",0.5961725969584516,0.5800859816967239,0.9374942588770168,0.615651343789648,0.48900211982065134,0.5007470548663417,0.33325431852145615
10.0,"","","val",11814.0,"2021-11-29 23:00:50.894830",0.5764815029572075,0.5464595909426438,0.9267189844651459,0.5902606477821268,0.47168993466735454,0.47883214956098313,0.315253634641461
11.0,0.06702105700969696,0.0016833016478848956,"train",11820.0,"2021-11-29 23:00:55.406349","","","","","","",""
11.0,0.061117228120565414,0.0016860760883171426,"train",11840.0,"2021-11-29 23:00:59.482195","","","","","","",""
11.0,0.05875478684902191,0.001688840699831864,"train",11860.0,"2021-11-29 23:01:03.966961","","","","","","",""
11.0,0.08834527432918549,0.0016915954403703313,"train",11880.0,"2021-11-29 23:01:07.970128","","","","","","",""
11.0,0.05386846140027046,0.0016943402680239862,"train",11900.0,"2021-11-29 23:01:11.984183","","","","","","",""
11.0,0.062440067529678345,0.0016970751410350774,"train",11920.0,"2021-11-29 23:01:15.975290","","","","","","",""
11.0,0.09287551790475845,0.001699800017797296,"train",11940.0,"2021-11-29 23:01:19.985002","","","","","","",""
11.0,0.04208438843488693,0.0017025148568564086,"train",11960.0,"2021-11-29 23:01:24.056901","","","","","","",""
11.0,0.09309244155883789,0.001705219616910888,"train",11980.0,"2021-11-29 23:01:28.116435","","","","","","",""
11.0,0.07092107832431793,0.001707914256812541,"train",12000.0,"2021-11-29 23:01:32.547157","","","","","","",""
11.0,0.06228715553879738,0.0017105987355671352,"train",12020.0,"2021-11-29 23:01:36.624464","","","","","","",""
11.0,0.043102093040943146,0.0017132730123350227,"train",12040.0,"2021-11-29 23:01:40.707272","","","","","","",""
11.0,0.08050554245710373,0.00171593704643176,"train",12060.0,"2021-11-29 23:01:44.844147","","","","","","",""
11.0,0.06954419612884521,0.0017185907973287285,"train",12080.0,"2021-11-29 23:01:49.031182","","","","","","",""
11.0,0.058168962597846985,0.0017212342246537506,"train",12100.0,"2021-11-29 23:01:53.197505","","","","","","",""
11.0,0.06381339579820633,0.0017238672881917032,"train",12120.0,"2021-11-29 23:01:57.739484","","","","","","",""
11.0,0.0470711849629879,0.001726489947885131,"train",12140.0,"2021-11-29 23:02:01.904941","","","","","","",""
11.0,0.08752724528312683,0.0017291021638348543,"train",12160.0,"2021-11-29 23:02:05.947163","","","","","","",""
11.0,0.05356448516249657,0.0017317038963005765,"train",12180.0,"2021-11-29 23:02:10.035452","","","","","","",""
11.0,0.07987737655639648,0.00173429510570149,"train",12200.0,"2021-11-29 23:02:14.038265","","","","","","",""
11.0,0.06368936598300934,0.0017368757526168759,"train",12220.0,"2021-11-29 23:02:17.982386","","","","","","",""
11.0,0.09478822350502014,0.0017394457977867057,"train",12240.0,"2021-11-29 23:02:21.917503","","","","","","",""
11.0,0.10186108946800232,0.0017420052021122378,"train",12260.0,"2021-11-29 23:02:26.340830","","","","","","",""
11.0,0.06317134946584702,0.0017445539266566128,"train",12280.0,"2021-11-29 23:02:30.265058","","","","","","",""
11.0,0.06025777757167816,0.001747091932645445,"train",12300.0,"2021-11-29 23:02:34.307233","","","","","","",""
11.0,0.0764794647693634,0.0017496191814674125,"train",12320.0,"2021-11-29 23:02:38.355583","","","","","","",""
11.0,0.07079969346523285,0.001752135634674846,"train",12340.0,"2021-11-29 23:02:42.329177","","","","","","",""
11.0,0.0629763975739479,0.0017546412539843118,"train",12360.0,"2021-11-29 23:02:46.362978","","","","","","",""
11.0,0.09947718679904938,0.001757136001277194,"train",12380.0,"2021-11-29 23:02:50.900857","","","","","","",""
11.0,0.04283260554075241,0.001759619838600278,"train",12400.0,"2021-11-29 23:02:55.047731","","","","","","",""
11.0,0.042284876108169556,0.0017620927281663229,"train",12420.0,"2021-11-29 23:02:58.998982","","","","","","",""
11.0,0.08080921322107315,0.0017645546323546398,"train",12440.0,"2021-11-29 23:03:02.940001","","","","","","",""
11.0,0.060936301946640015,0.0017670055137116636,"train",12460.0,"2021-11-29 23:03:06.817104","","","","","","",""
11.0,0.049264583736658096,0.0017694453349515209,"train",12480.0,"2021-11-29 23:03:10.689161","","","","","","",""
11.0,0.12173361331224442,0.0017718740589566,"train",12500.0,"2021-11-29 23:03:14.623472","","","","","","",""
11.0,0.05822676047682762,0.0017742916487781134,"train",12520.0,"2021-11-29 23:03:18.951409","","","","","","",""
11.0,0.05738509073853493,0.0017766980676366608,"train",12540.0,"2021-11-29 23:03:22.961595","","","","","","",""
11.0,0.06627833098173141,0.001779093278922789,"train",12560.0,"2021-11-29 23:03:26.986094","","","","","","",""
11.0,0.08915907889604568,0.001781477246197548,"train",12580.0,"2021-11-29 23:03:31.069260","","","","","","",""
11.0,0.09183529764413834,0.0017838499331930462,"train",12600.0,"2021-11-29 23:03:35.068468","","","","","","",""
11.0,0.08576175570487976,0.001786211303813001,"train",12620.0,"2021-11-29 23:03:39.050994","","","","","","",""
11.0,0.06000487878918648,0.0017885613221332894,"train",12640.0,"2021-11-29 23:03:43.584870","","","","","","",""
11.0,0.05773930624127388,0.0017908999524024931,"train",12660.0,"2021-11-29 23:03:47.737074","","","","","","",""
11.0,0.0664953663945198,0.0017932271590424438,"train",12680.0,"2021-11-29 23:03:51.819437","","","","","","",""
11.0,0.056411292403936386,0.0017955429066487635,"train",12700.0,"2021-11-29 23:03:55.954888","","","","","","",""
11.0,0.08608388900756836,0.0017978471599914025,"train",12720.0,"2021-11-29 23:04:00.102147","","","","","","",""
11.0,0.04956866428256035,0.0018001398840151778,"train",12740.0,"2021-11-29 23:04:04.227390","","","","","","",""
11.0,0.07801850885152817,0.0018024210438403031,"train",12760.0,"2021-11-29 23:04:08.384256","","","","","","",""
11.0,0.05952432006597519,0.0018046906047629228,"train",12780.0,"2021-11-29 23:04:12.919583","","","","","","",""
11.0,0.056345175951719284,0.0018069485322556372,"train",12800.0,"2021-11-29 23:04:17.108648","","","","","","",""
11.0,0.09124118089675903,0.001809194791968029,"train",12820.0,"2021-11-29 23:04:21.090270","","","","","","",""
11.0,0.0622829906642437,0.0018114293497271863,"train",12840.0,"2021-11-29 23:04:25.134826","","","","","","",""
11.0,0.05790713429450989,0.0018136521715382218,"train",12860.0,"2021-11-29 23:04:29.164764","","","","","","",""
11.0,0.08121989667415619,0.0018158632235847892,"train",12880.0,"2021-11-29 23:04:33.168875","","","","","","",""
11.0,"","","train",12888.0,"2021-11-29 23:06:16.773695",0.6086152950593029,0.6038447978293113,0.9453016422023583,0.6547935537176308,0.5066338733842115,0.5263228373282804,0.3513363556439667
11.0,"","","val",12888.0,"2021-11-29 23:06:44.557665",0.585874985503885,0.56981372030053,0.9374615393137191,0.6260351880513381,0.4800568396293813,0.49511962236237245,0.32358673521375036
12.0,0.05839373171329498,0.0018180624722295999,"train",12900.0,"2021-11-29 23:06:50.649224","","","","","","",""
12.0,0.08005506545305252,0.001820249884014933,"train",12920.0,"2021-11-29 23:06:54.687279","","","","","","",""
12.0,0.07454150170087814,0.001822425425663144,"train",12940.0,"2021-11-29 23:06:58.693272","","","","","","",""
12.0,0.06009939685463905,0.0018245890640771725,"train",12960.0,"2021-11-29 23:07:02.678015","","","","","","",""
12.0,0.07792084664106369,0.0018267407663410452,"train",12980.0,"2021-11-29 23:07:07.048282","","","","","","",""
12.0,0.056970302015542984,0.0018288804997203755,"train",13000.0,"2021-11-29 23:07:11.091338","","","","","","",""
12.0,0.06287926435470581,0.0018310082316628634,"train",13020.0,"2021-11-29 23:07:15.245916","","","","","","",""
12.0,0.08541395515203476,0.0018331239297987893,"train",13040.0,"2021-11-29 23:07:19.735779","","","","","","",""
12.0,0.08345583081245422,0.0018352275619415066,"train",13060.0,"2021-11-29 23:07:23.902401","","","","","","",""
12.0,0.0969831794500351,0.0018373190960879326,"train",13080.0,"2021-11-29 23:07:27.997622","","","","","","",""
12.0,0.08646675944328308,0.0018393985004190336,"train",13100.0,"2021-11-29 23:07:32.537580","","","","","","",""
12.0,0.05294399335980415,0.00184146574330031,"train",13120.0,"2021-11-29 23:07:36.775986","","","","","","",""
12.0,0.05561326816678047,0.001843520793282278,"train",13140.0,"2021-11-29 23:07:40.913221","","","","","","",""
12.0,0.06035279482603073,0.0018455636191009464,"train",13160.0,"2021-11-29 23:07:45.130983","","","","","","",""
12.0,0.03603079542517662,0.001847594189678294,"train",13180.0,"2021-11-29 23:07:49.749894","","","","","","",""
12.0,0.057483818382024765,0.0018496124741227415,"train",13200.0,"2021-11-29 23:07:53.967511","","","","","","",""
12.0,0.10406654328107834,0.001851618441729622,"train",13220.0,"2021-11-29 23:07:58.146422","","","","","","",""
12.0,0.048353537917137146,0.0018536120619816467,"train",13240.0,"2021-11-29 23:08:02.650175","","","","","","",""
12.0,0.05610184371471405,0.0018555933045493712,"train",13260.0,"2021-11-29 23:08:06.821453","","","","","","",""
12.0,0.05714640021324158,0.0018575621392916554,"train",13280.0,"2021-11-29 23:08:10.938573","","","","","","",""
12.0,0.05574963986873627,0.0018595185362561225,"train",13300.0,"2021-11-29 23:08:15.013893","","","","","","",""
12.0,0.07951722294092178,0.0018614624656796155,"train",13320.0,"2021-11-29 23:08:19.515241","","","","","","",""
12.0,0.09148867428302765,0.0018633938979886484,"train",13340.0,"2021-11-29 23:08:23.714175","","","","","","",""
12.0,0.06098620593547821,0.0018653128037998568,"train",13360.0,"2021-11-29 23:08:27.785339","","","","","","",""
12.0,0.04948127269744873,0.0018672191539204459,"train",13380.0,"2021-11-29 23:08:32.228051","","","","","","",""
12.0,0.06707991659641266,0.0018691129193486335,"train",13400.0,"2021-11-29 23:08:36.321698","","","","","","",""
12.0,0.09455890953540802,0.0018709940712740908,"train",13420.0,"2021-11-29 23:08:40.357957","","","","","","",""
12.0,0.08268403261899948,0.0018728625810783823,"train",13440.0,"2021-11-29 23:08:44.976637","","","","","","",""
12.0,0.06821519881486893,0.0018747184203353996,"train",13460.0,"2021-11-29 23:08:49.126513","","","","","","",""
12.0,0.041076164692640305,0.0018765615608117947,"train",13480.0,"2021-11-29 23:08:53.243969","","","","","","",""
12.0,0.07657291740179062,0.0018783919744674096,"train",13500.0,"2021-11-29 23:08:57.235740","","","","","","",""
12.0,0.05023345351219177,0.0018802096334557027,"train",13520.0,"2021-11-29 23:09:01.584296","","","","","","",""
12.0,0.06393495947122574,0.0018820145101241712,"train",13540.0,"2021-11-29 23:09:05.560501","","","","","","",""
12.0,0.067610003054142,0.0018838065770147745,"train",13560.0,"2021-11-29 23:09:09.535234","","","","","","",""
12.0,0.05927956849336624,0.0018855858068643496,"train",13580.0,"2021-11-29 23:09:13.872343","","","","","","",""
12.0,0.06689336895942688,0.001887352172605026,"train",13600.0,"2021-11-29 23:09:17.922871","","","","","","",""
12.0,0.061630841344594955,0.0018891056473646398,"train",13620.0,"2021-11-29 23:09:21.900207","","","","","","",""
12.0,0.07667537033557892,0.0018908462044671395,"train",13640.0,"2021-11-29 23:09:25.883118","","","","","","",""
12.0,0.05766390264034271,0.001892573817432993,"train",13660.0,"2021-11-29 23:09:30.205281","","","","","","",""
12.0,0.07523979246616364,0.0018942884599795914,"train",13680.0,"2021-11-29 23:09:34.181283","","","","","","",""
12.0,0.05292132869362831,0.001895990106021648,"train",13700.0,"2021-11-29 23:09:38.165874","","","","","","",""
12.0,0.06186676397919655,0.0018976787296715943,"train",13720.0,"2021-11-29 23:09:42.629645","","","","","","",""
12.0,0.05450485646724701,0.0018993543052399757,"train",13740.0,"2021-11-29 23:09:46.770942","","","","","","",""
12.0,0.06284391134977341,0.0019010168072358413,"train",13760.0,"2021-11-29 23:09:50.929934","","","","","","",""
12.0,0.06232735142111778,0.0019026662103671305,"train",13780.0,"2021-11-29 23:09:55.316209","","","","","","",""
12.0,0.09462593495845795,0.0019043024895410605,"train",13800.0,"2021-11-29 23:09:59.335286","","","","","","",""
12.0,0.051485899835824966,0.001905925619864506,"train",13820.0,"2021-11-29 23:10:03.364671","","","","","","",""
12.0,0.06143150106072426,0.001907535576644378,"train",13840.0,"2021-11-29 23:10:07.395761","","","","","","",""
12.0,0.059126947075128555,0.0019091323353880008,"train",13860.0,"2021-11-29 23:10:11.792569","","","","","","",""
12.0,0.0777234360575676,0.0019107158718034828,"train",13880.0,"2021-11-29 23:10:15.939159","","","","","","",""
12.0,0.08047083765268326,0.001912286161800088,"train",13900.0,"2021-11-29 23:10:20.057630","","","","","","",""
12.0,0.05272411182522774,0.0019138431814886008,"train",13920.0,"2021-11-29 23:10:24.442809","","","","","","",""
12.0,0.05648038163781166,0.0019153869071816896,"train",13940.0,"2021-11-29 23:10:28.470939","","","","","","",""
12.0,0.08834961801767349,0.0019169173153942693,"train",13960.0,"2021-11-29 23:10:32.453999","","","","","","",""
12.0,"","","train",13962.0,"2021-11-29 23:12:14.790119",0.6146401804555046,0.6149437751339419,0.948439677214438,0.6458042557184956,0.5135640265492893,0.5358546626676173,0.3532846642257681
12.0,"","","val",13962.0,"2021-11-29 23:12:42.526543",0.5914994781398585,0.5741039424469803,0.9376099957287553,0.6182444636475548,0.4852311453753029,0.5048709602421205,0.3254762313344868
13.0,0.049799416214227676,0.0019184343828438557,"train",13980.0,"2021-11-29 23:12:49.884805","","","","","","",""
13.0,0.06097230315208435,0.0019199380864509208,"train",14000.0,"2021-11-29 23:12:53.876930","","","","","","",""
13.0,0.09163766354322433,0.0019214284033392457,"train",14020.0,"2021-11-29 23:12:57.872727","","","","","","",""
13.0,0.07981214672327042,0.0019229053108362649,"train",14040.0,"2021-11-29 23:13:02.329789","","","","","","",""
13.0,0.05745427682995796,0.0019243687864734145,"train",14060.0,"2021-11-29 23:13:06.440612","","","","","","",""
13.0,0.05652279406785965,0.0019258188079864732,"train",14080.0,"2021-11-29 23:13:10.846242","","","","","","",""
13.0,0.07375847548246384,0.0019272553533158999,"train",14100.0,"2021-11-29 23:13:14.925150","","","","","","",""
13.0,0.05651484429836273,0.0019286784006071697,"train",14120.0,"2021-11-29 23:13:19.478113","","","","","","",""
13.0,0.09123831987380981,0.0019300879282111083,"train",14140.0,"2021-11-29 23:13:23.725581","","","","","","",""
13.0,0.049711234867572784,0.0019314839146842185,"train",14160.0,"2021-11-29 23:13:28.325033","","","","","","",""
13.0,0.08226389437913895,0.0019328663387890076,"train",14180.0,"2021-11-29 23:13:32.575338","","","","","","",""
13.0,0.058962319046258926,0.0019342351794943119,"train",14200.0,"2021-11-29 23:13:36.625497","","","","","","",""
13.0,0.04818126931786537,0.0019355904159756138,"train",14220.0,"2021-11-29 23:13:40.982401","","","","","","",""
13.0,0.08812933415174484,0.0019369320276153613,"train",14240.0,"2021-11-29 23:13:45.028668","","","","","","",""
13.0,0.056106243282556534,0.00193825999400328,"train",14260.0,"2021-11-29 23:13:49.424324","","","","","","",""
13.0,0.07608313858509064,0.0019395742949366843,"train",14280.0,"2021-11-29 23:13:53.630758","","","","","","",""
13.0,0.07817322015762329,0.0019408749104207845,"train",14300.0,"2021-11-29 23:13:58.200956","","","","","","",""
13.0,0.08608066290616989,0.0019421618206689913,"train",14320.0,"2021-11-29 23:14:02.217323","","","","","","",""
13.0,0.050443120300769806,0.0019434350061032163,"train",14340.0,"2021-11-29 23:14:06.317821","","","","","","",""
13.0,0.052258558571338654,0.0019446944473541703,"train",14360.0,"2021-11-29 23:14:10.708057","","","","","","",""
13.0,0.08458396047353745,0.0019459401252616573,"train",14380.0,"2021-11-29 23:14:14.785942","","","","","","",""
13.0,0.06604944169521332,0.001947172020874868,"train",14400.0,"2021-11-29 23:14:19.315354","","","","","","",""
13.0,0.05739723891019821,0.0019483901154526647,"train",14420.0,"2021-11-29 23:14:23.458723","","","","","","",""
13.0,0.07734308391809464,0.0019495943904638694,"train",14440.0,"2021-11-29 23:14:27.955663","","","","","","",""
13.0,0.04501659795641899,0.0019507848275875444,"train",14460.0,"2021-11-29 23:14:31.986331","","","","","","",""
13.0,0.061303213238716125,0.0019519614087132712,"train",14480.0,"2021-11-29 23:14:36.025607","","","","","","",""
13.0,0.07117659598588943,0.0019531241159414263,"train",14500.0,"2021-11-29 23:14:40.461921","","","","","","",""
13.0,0.07081130892038345,0.001954272931583453,"train",14520.0,"2021-11-29 23:14:44.597170","","","","","","",""
13.0,0.0667591467499733,0.0019554078381621306,"train",14540.0,"2021-11-29 23:14:48.985841","","","","","","",""
13.0,0.08926922082901001,0.0019565288184118417,"train",14560.0,"2021-11-29 23:14:52.986054","","","","","","",""
13.0,0.052445702254772186,0.0019576358552788314,"train",14580.0,"2021-11-29 23:14:57.385651","","","","","","",""
13.0,0.054418500512838364,0.0019587289319214713,"train",14600.0,"2021-11-29 23:15:01.496648","","","","","","",""
13.0,0.08286784589290619,0.0019598080317105113,"train",14620.0,"2021-11-29 23:15:05.969279","","","","","","",""
13.0,0.0713377520442009,0.001960873138229337,"train",14640.0,"2021-11-29 23:15:10.034128","","","","","","",""
13.0,0.08990736305713654,0.0019619242352742153,"train",14660.0,"2021-11-29 23:15:14.047874","","","","","","",""
13.0,0.05430556461215019,0.001962961306854543,"train",14680.0,"2021-11-29 23:15:18.548505","","","","","","",""
13.0,0.051604922860860825,0.0019639843371930905,"train",14700.0,"2021-11-29 23:15:22.726214","","","","","","",""
13.0,0.0832134336233139,0.001964993310726241,"train",14720.0,"2021-11-29 23:15:27.270608","","","","","","",""
13.0,0.04802189767360687,0.0019659882121042262,"train",14740.0,"2021-11-29 23:15:31.430990","","","","","","",""
13.0,0.054949525743722916,0.001966969026191363,"train",14760.0,"2021-11-29 23:15:35.937897","","","","","","",""
13.0,0.05468077212572098,0.0019679357380662805,"train",14780.0,"2021-11-29 23:15:39.996364","","","","","","",""
13.0,0.05594053864479065,0.001968888333022148,"train",14800.0,"2021-11-29 23:15:44.099839","","","","","","",""
13.0,0.08178561180830002,0.0019698267965669,"train",14820.0,"2021-11-29 23:15:48.614645","","","","","","",""
13.0,0.04317349195480347,0.0019707511144234557,"train",14840.0,"2021-11-29 23:15:52.798945","","","","","","",""
13.0,0.05611773952841759,0.001971661272529935,"train",14860.0,"2021-11-29 23:15:57.399436","","","","","","",""
13.0,0.08551520854234695,0.001972557257039875,"train",14880.0,"2021-11-29 23:16:01.723493","","","","","","",""
13.0,0.09060689806938171,0.0019734390543224385,"train",14900.0,"2021-11-29 23:16:06.321894","","","","","","",""
13.0,0.052934665232896805,0.001974306650962622,"train",14920.0,"2021-11-29 23:16:10.514384","","","","","","",""
13.0,0.0746283307671547,0.0019751600337614608,"train",14940.0,"2021-11-29 23:16:14.684338","","","","","","",""
13.0,0.051590446382761,0.0019759991897362284,"train",14960.0,"2021-11-29 23:16:19.155932","","","","","","",""
13.0,0.05476817861199379,0.0019768241061206343,"train",14980.0,"2021-11-29 23:16:23.371237","","","","","","",""
13.0,0.05905742570757866,0.0019776347703650186,"train",15000.0,"2021-11-29 23:16:27.909601","","","","","","",""
13.0,0.06591105461120605,0.001978431170136543,"train",15020.0,"2021-11-29 23:16:32.031265","","","","","","",""
13.0,"","","train",15036.0,"2021-11-29 23:18:17.821317",0.619922869824638,0.6285309054790145,0.9501622152908921,0.6717403000954241,0.5278936736898017,0.5452830430242288,0.3691794893058228
13.0,"","","val",15036.0,"2021-11-29 23:18:45.283831",0.5946886234489157,0.5838281207677759,0.9388783450718409,0.6387183333035282,0.49357964740882365,0.5060619834188399,0.33299954881137367
14.0,0.0928926020860672,0.0019792132933193784,"train",15040.0,"2021-11-29 23:18:49.360727","","","","","","",""
14.0,0.06520269066095352,0.001979981128014888,"train",15060.0,"2021-11-29 23:18:53.360045","","","","","","",""
14.0,0.06434272974729538,0.001980734662541811,"train",15080.0,"2021-11-29 23:18:57.768999","","","","","","",""
14.0,0.08511409908533096,0.0019814738854364374,"train",15100.0,"2021-11-29 23:19:01.739799","","","","","","",""
14.0,0.05469876155257225,0.0019821987854527832,"train",15120.0,"2021-11-29 23:19:06.112333","","","","","","",""
14.0,0.05919191613793373,0.0019829093515627634,"train",15140.0,"2021-11-29 23:19:10.086898","","","","","","",""
14.0,0.059148844331502914,0.001983605572956358,"train",15160.0,"2021-11-29 23:19:14.643299","","","","","","",""
14.0,0.08925814181566238,0.001984287439041775,"train",15180.0,"2021-11-29 23:19:18.884126","","","","","","",""
14.0,0.06487363576889038,0.001984954939445616,"train",15200.0,"2021-11-29 23:19:23.296065","","","","","","",""
14.0,0.05268273130059242,0.0019856080640130295,"train",15220.0,"2021-11-29 23:19:27.317147","","","","","","",""
14.0,0.09549843519926071,0.0019862468028078676,"train",15240.0,"2021-11-29 23:19:31.717184","","","","","","",""
14.0,0.06325805187225342,0.001986871146112837,"train",15260.0,"2021-11-29 23:19:35.815616","","","","","","",""
14.0,0.09331931173801422,0.0019874810844296466,"train",15280.0,"2021-11-29 23:19:40.238924","","","","","","",""
14.0,0.06865864992141724,0.0019880766084791517,"train",15300.0,"2021-11-29 23:19:44.328258","","","","","","",""
14.0,0.08652637898921967,0.0019886577092014953,"train",15320.0,"2021-11-29 23:19:48.789282","","","","","","",""
14.0,0.0620141476392746,0.001989224377756247,"train",15340.0,"2021-11-29 23:19:52.910081","","","","","","",""
14.0,0.08228407055139542,0.0019897766055225353,"train",15360.0,"2021-11-29 23:19:57.349683","","","","","","",""
14.0,0.11291760951280594,0.0019903143840991813,"train",15380.0,"2021-11-29 23:20:01.469482","","","","","","",""
14.0,0.08824930340051651,0.0019908377053048246,"train",15400.0,"2021-11-29 23:20:05.928843","","","","","","",""
14.0,0.0697483941912651,0.001991346561178048,"train",15420.0,"2021-11-29 23:20:09.938380","","","","","","",""
14.0,0.057210519909858704,0.0019918409439775003,"train",15440.0,"2021-11-29 23:20:14.299967","","","","","","",""
14.0,0.059099193662405014,0.0019923208461820117,"train",15460.0,"2021-11-29 23:20:18.348772","","","","","","",""
14.0,0.048760369420051575,0.001992786260490709,"train",15480.0,"2021-11-29 23:20:22.652361","","","","","","",""
14.0,0.07387518882751465,0.0019932371798231287,"train",15500.0,"2021-11-29 23:20:26.638664","","","","","","",""
14.0,0.056588102132081985,0.0019936735973193212,"train",15520.0,"2021-11-29 23:20:30.970074","","","","","","",""
14.0,0.04642071947455406,0.001994095506339958,"train",15540.0,"2021-11-29 23:20:34.981044","","","","","","",""
14.0,0.051727160811424255,0.001994502900466431,"train",15560.0,"2021-11-29 23:20:39.474264","","","","","","",""
14.0,0.0644722431898117,0.0019948957735009517,"train",15580.0,"2021-11-29 23:20:43.497455","","","","","","",""
14.0,0.05503708869218826,0.0019952741194666436,"train",15600.0,"2021-11-29 23:20:47.863720","","","","","","",""
14.0,0.08096795529127121,0.0019956379326076354,"train",15620.0,"2021-11-29 23:20:51.908678","","","","","","",""
14.0,0.05684686079621315,0.001995987207389146,"train",15640.0,"2021-11-29 23:20:56.294518","","","","","","",""
14.0,0.10130639374256134,0.0019963219384975706,"train",15660.0,"2021-11-29 23:21:00.462078","","","","","","",""
14.0,0.09092853963375092,0.001996642120840561,"train",15680.0,"2021-11-29 23:21:05.074149","","","","","","",""
14.0,0.0687498152256012,0.001996947749547103,"train",15700.0,"2021-11-29 23:21:09.226122","","","","","","",""
14.0,0.03580746054649353,0.0019972388199675905,"train",15720.0,"2021-11-29 23:21:13.614250","","","","","","",""
14.0,0.06360258162021637,0.001997515327673896,"train",15740.0,"2021-11-29 23:21:17.646661","","","","","","",""
14.0,0.04939917102456093,0.0019977772684594388,"train",15760.0,"2021-11-29 23:21:22.026654","","","","","","",""
14.0,0.07794226706027985,0.0019980246383392475,"train",15780.0,"2021-11-29 23:21:26.066668","","","","","","",""
14.0,0.054261233657598495,0.0019982574335500225,"train",15800.0,"2021-11-29 23:21:30.455178","","","","","","",""
14.0,0.05361158028244972,0.001998475650550192,"train",15820.0,"2021-11-29 23:21:34.472527","","","","","","",""
14.0,0.07119488716125488,0.0019986792860199657,"train",15840.0,"2021-11-29 23:21:38.767704","","","","","","",""
14.0,0.044886041432619095,0.001998868336861386,"train",15860.0,"2021-11-29 23:21:42.728946","","","","","","",""
14.0,0.05507815256714821,0.001999042800198376,"train",15880.0,"2021-11-29 23:21:47.127593","","","","","","",""
14.0,0.04107072576880455,0.00199920267337678,"train",15900.0,"2021-11-29 23:21:51.188672","","","","","","",""
14.0,0.08977315574884415,0.0019993479539644077,"train",15920.0,"2021-11-29 23:21:55.639035","","","","","","",""
14.0,0.06960165500640869,0.0019994786397510697,"train",15940.0,"2021-11-29 23:21:59.852852","","","","","","",""
14.0,0.060204483568668365,0.0019995947287486096,"train",15960.0,"2021-11-29 23:22:04.297905","","","","","","",""
14.0,0.08234024047851562,0.0019996962191909367,"train",15980.0,"2021-11-29 23:22:08.401469","","","","","","",""
14.0,0.09580983221530914,0.0019997831095340513,"train",16000.0,"2021-11-29 23:22:12.833091","","","","","","",""
14.0,0.07785359025001526,0.001999855398456069,"train",16020.0,"2021-11-29 23:22:16.899937","","","","","","",""
14.0,0.08350949734449387,0.00199991308485724,"train",16040.0,"2021-11-29 23:22:21.376309","","","","","","",""
14.0,0.05675998330116272,0.001999956167859967,"train",16060.0,"2021-11-29 23:22:25.447760","","","","","","",""
14.0,0.05588971823453903,0.0019999846468088172,"train",16080.0,"2021-11-29 23:22:29.837987","","","","","","",""
14.0,0.05440271273255348,0.0019999985212705335,"train",16100.0,"2021-11-29 23:22:33.885349","","","","","","",""
14.0,"","","train",16110.0,"2021-11-29 23:24:18.756562",0.6348395546823837,0.6393961554356733,0.9531367222909152,0.6774059449709566,0.5458429015988249,0.5711938212273219,0.37917973824443085
14.0,"","","val",16110.0,"2021-11-29 23:24:47.021361",0.6063434999420155,0.5886876788177461,0.9440861004705994,0.6426367438501355,0.5077760231284363,0.5286888418013292,0.3410850883091844
15.0,0.05763866379857063,0.0019999995774202316,"train",16120.0,"2021-11-29 23:24:52.748840","","","","","","",""
15.0,0.05186118185520172,0.0019999966438102564,"train",16140.0,"2021-11-29 23:24:56.797938","","","","","","",""
15.0,0.05623243749141693,0.0019999909162942875,"train",16160.0,"2021-11-29 23:25:01.289426","","","","","","",""
15.0,0.062172919511795044,0.001999982394888327,"train",16180.0,"2021-11-29 23:25:05.676812","","","","","","",""
15.0,0.050386685878038406,0.0019999710796161823,"train",16200.0,"2021-11-29 23:25:09.820132","","","","","","",""
15.0,0.06060192361474037,0.0019999569705094686,"train",16220.0,"2021-11-29 23:25:14.352176","","","","","","",""
15.0,0.06083421781659126,0.001999940067607605,"train",16240.0,"2021-11-29 23:25:18.747634","","","","","","",""
15.0,0.0638437569141388,0.001999920370957817,"train",16260.0,"2021-11-29 23:25:22.754084","","","","","","",""
15.0,0.06685402244329453,0.0019998978806151355,"train",16280.0,"2021-11-29 23:25:27.058995","","","","","","",""
15.0,0.09545470774173737,0.0019998725966423976,"train",16300.0,"2021-11-29 23:25:31.327535","","","","","","",""
15.0,0.05505741760134697,0.001999844519110244,"train",16320.0,"2021-11-29 23:25:35.385731","","","","","","",""
15.0,0.06268405169248581,0.001999813648097122,"train",16340.0,"2021-11-29 23:25:39.783445","","","","","","",""
15.0,0.06508234888315201,0.001999779983689282,"train",16360.0,"2021-11-29 23:25:44.224782","","","","","","",""
15.0,0.06450799852609634,0.0019997435259807806,"train",16380.0,"2021-11-29 23:25:48.423313","","","","","","",""
15.0,0.09101473540067673,0.001999704275073478,"train",16400.0,"2021-11-29 23:25:52.839290","","","","","","",""
15.0,0.06609508395195007,0.0019996622310770383,"train",16420.0,"2021-11-29 23:25:56.987333","","","","","","",""
15.0,0.07847809791564941,0.0019996173941089286,"train",16440.0,"2021-11-29 23:26:01.516937","","","","","","",""
15.0,0.05883178114891052,0.0019995697642944212,"train",16460.0,"2021-11-29 23:26:06.035365","","","","","","",""
15.0,0.060540467500686646,0.0019995193417665894,"train",16480.0,"2021-11-29 23:26:10.224098","","","","","","",""
15.0,0.05196811631321907,0.0019994661266663108,"train",16500.0,"2021-11-29 23:26:14.751569","","","","","","",""
15.0,0.08796036243438721,0.001999410119142264,"train",16520.0,"2021-11-29 23:26:19.266261","","","","","","",""
15.0,0.052820656448602676,0.0019993513193509297,"train",16540.0,"2021-11-29 23:26:23.418624","","","","","","",""
15.0,0.052021294832229614,0.0019992897274565906,"train",16560.0,"2021-11-29 23:26:27.815648","","","","","","",""
15.0,0.04130246862769127,0.0019992253436313303,"train",16580.0,"2021-11-29 23:26:32.226601","","","","","","",""
15.0,0.0719720795750618,0.0019991581680550313,"train",16600.0,"2021-11-29 23:26:36.286259","","","","","","",""
15.0,0.06317619979381561,0.0019990882009153785,"train",16620.0,"2021-11-29 23:26:40.789393","","","","","","",""
15.0,0.07250860333442688,0.001999015442407854,"train",16640.0,"2021-11-29 23:26:45.192206","","","","","","",""
15.0,0.07825356721878052,0.0019989398927357403,"train",16660.0,"2021-11-29 23:26:49.221409","","","","","","",""
15.0,0.0867491140961647,0.0019988615521101174,"train",16680.0,"2021-11-29 23:26:53.582927","","","","","","",""
15.0,0.05286986380815506,0.0019987804207498637,"train",16700.0,"2021-11-29 23:26:57.610836","","","","","","",""
15.0,0.08733467012643814,0.0019986964988816533,"train",16720.0,"2021-11-29 23:27:02.038956","","","","","","",""
15.0,0.07529187202453613,0.0019986097867399585,"train",16740.0,"2021-11-29 23:27:06.473540","","","","","","",""
15.0,0.05662545934319496,0.0019985202845670463,"train",16760.0,"2021-11-29 23:27:10.545468","","","","","","",""
15.0,0.06483866274356842,0.0019984279926129798,"train",16780.0,"2021-11-29 23:27:14.925491","","","","","","",""
15.0,0.06546150147914886,0.001998332911135615,"train",16800.0,"2021-11-29 23:27:19.274755","","","","","","",""
15.0,0.06634962558746338,0.0019982350404006036,"train",16820.0,"2021-11-29 23:27:23.335881","","","","","","",""
15.0,0.05979957804083824,0.0019981343806813883,"train",16840.0,"2021-11-29 23:27:27.706378","","","","","","",""
15.0,0.05681749805808067,0.001998030932259205,"train",16860.0,"2021-11-29 23:27:32.056732","","","","","","",""
15.0,0.046527113765478134,0.0019979246954230823,"train",16880.0,"2021-11-29 23:27:36.076206","","","","","","",""
15.0,0.05417625978589058,0.0019978156704698363,"train",16900.0,"2021-11-29 23:27:40.595528","","","","","","",""
15.0,0.051331777125597,0.001997703857704076,"train",16920.0,"2021-11-29 23:27:45.015832","","","","","","",""
15.0,0.07950141280889511,0.0019975892574381976,"train",16940.0,"2021-11-29 23:27:49.201142","","","","","","",""
15.0,0.05224187672138214,0.001997471869992386,"train",16960.0,"2021-11-29 23:27:53.710828","","","","","","",""
15.0,0.05609101429581642,0.0019973516956946127,"train",16980.0,"2021-11-29 23:27:58.167220","","","","","","",""
15.0,0.03933056816458702,0.0019972287348806366,"train",17000.0,"2021-11-29 23:28:02.174397","","","","","","",""
15.0,0.0834570974111557,0.0019971029878940003,"train",17020.0,"2021-11-29 23:28:06.425353","","","","","","",""
15.0,0.06329832226037979,0.0019969744550860317,"train",17040.0,"2021-11-29 23:28:10.338219","","","","","","",""
15.0,0.05738454684615135,0.0019968431368158433,"train",17060.0,"2021-11-29 23:28:14.566655","","","","","","",""
15.0,0.05374804139137268,0.001996709033450327,"train",17080.0,"2021-11-29 23:28:18.815537","","","","","","",""
15.0,0.0748789831995964,0.0019965721453641585,"train",17100.0,"2021-11-29 23:28:22.778582","","","","","","",""
15.0,0.08337654173374176,0.0019964324729397935,"train",17120.0,"2021-11-29 23:28:27.105893","","","","","","",""
15.0,0.06009647622704506,0.0019962900165674657,"train",17140.0,"2021-11-29 23:28:31.564895","","","","","","",""
15.0,0.09626477211713791,0.0019961447766451887,"train",17160.0,"2021-11-29 23:28:35.647392","","","","","","",""
15.0,0.06670229136943817,0.001995996753578751,"train",17180.0,"2021-11-29 23:28:39.933786","","","","","","",""
15.0,"","","train",17184.0,"2021-11-29 23:30:22.989082",0.6498290038565088,0.6579691385656917,0.9547991660864685,0.6847678601457782,0.5609805737079342,0.5821863734285585,0.39751942718760025
15.0,"","","val",17184.0,"2021-11-29 23:30:50.736075",0.6161428737098458,0.5982077154252341,0.9433032510328233,0.6460664403820169,0.5176793755321056,0.5374758684043212,0.35049727871987313
16.0,0.08486361801624298,0.001995845947781719,"train",17200.0,"2021-11-29 23:30:57.841800","","","","","","",""
16.0,0.06769486516714096,0.001995692359675433,"train",17220.0,"2021-11-29 23:31:01.961567","","","","","","",""
16.0,0.06590411812067032,0.0019955359896890066,"train",17240.0,"2021-11-29 23:31:06.333913","","","","","","",""
16.0,0.04575482755899429,0.0019953768382593258,"train",17260.0,"2021-11-29 23:31:10.680262","","","","","","",""
16.0,0.048586130142211914,0.0019952149058310486,"train",17280.0,"2021-11-29 23:31:15.077676","","","","","","",""
16.0,0.04815317317843437,0.001995050192856602,"train",17300.0,"2021-11-29 23:31:19.475558","","","","","","",""
16.0,0.09674368053674698,0.001994882699796182,"train",17320.0,"2021-11-29 23:31:23.613786","","","","","","",""
16.0,0.058716922998428345,0.001994712427117752,"train",17340.0,"2021-11-29 23:31:28.131096","","","","","","",""
16.0,0.03770144656300545,0.0019945393752970413,"train",17360.0,"2021-11-29 23:31:32.611443","","","","","","",""
16.0,0.06753535568714142,0.001994363544817544,"train",17380.0,"2021-11-29 23:31:37.044395","","","","","","",""
16.0,0.08302157372236252,0.001994184936170517,"train",17400.0,"2021-11-29 23:31:41.243375","","","","","","",""
16.0,0.07376224547624588,0.0019940035498549804,"train",17420.0,"2021-11-29 23:31:45.773675","","","","","","",""
16.0,0.06515645235776901,0.0019938193863777145,"train",17440.0,"2021-11-29 23:31:50.301290","","","","","","",""
16.0,0.047460880130529404,0.001993632446253258,"train",17460.0,"2021-11-29 23:31:54.824070","","","","","","",""
16.0,0.09055636823177338,0.0019934427300039074,"train",17480.0,"2021-11-29 23:31:58.904989","","","","","","",""
16.0,0.0638822391629219,0.001993250238159717,"train",17500.0,"2021-11-29 23:32:03.357107","","","","","","",""
16.0,0.040819354355335236,0.0019930549712584944,"train",17520.0,"2021-11-29 23:32:07.895337","","","","","","",""
16.0,0.04564480856060982,0.001992856929845801,"train",17540.0,"2021-11-29 23:32:12.384328","","","","","","",""
16.0,0.06499259173870087,0.0019926561144749497,"train",17560.0,"2021-11-29 23:32:16.896337","","","","","","",""
16.0,0.06446603685617447,0.001992452525707004,"train",17580.0,"2021-11-29 23:32:21.085789","","","","","","",""
16.0,0.07876106351613998,0.0019922461641107767,"train",17600.0,"2021-11-29 23:32:25.608137","","","","","","",""
16.0,0.05385401472449303,0.001992037030262826,"train",17620.0,"2021-11-29 23:32:30.117852","","","","","","",""
16.0,0.05127684026956558,0.0019918251247474567,"train",17640.0,"2021-11-29 23:32:34.615497","","","","","","",""
16.0,0.07742536067962646,0.001991610448156718,"train",17660.0,"2021-11-29 23:32:38.662698","","","","","","",""
16.0,0.054361674934625626,0.0019913930010903996,"train",17680.0,"2021-11-29 23:32:43.123445","","","","","","",""
16.0,0.039281442761421204,0.001991172784156033,"train",17700.0,"2021-11-29 23:32:47.631345","","","","","","",""
16.0,0.09408222883939743,0.0019909497979688877,"train",17720.0,"2021-11-29 23:32:52.064423","","","","","","",""
16.0,0.07652246206998825,0.0019907240431519713,"train",17740.0,"2021-11-29 23:32:56.059600","","","","","","",""
16.0,0.06817243993282318,0.001990495520336026,"train",17760.0,"2021-11-29 23:33:00.396185","","","","","","",""
16.0,0.05563021078705788,0.0019902642301595284,"train",17780.0,"2021-11-29 23:33:04.727257","","","","","","",""
16.0,0.09765393286943436,0.001990030173268685,"train",17800.0,"2021-11-29 23:33:09.065170","","","","","","",""
16.0,0.05051529034972191,0.0019897933503174345,"train",17820.0,"2021-11-29 23:33:13.407490","","","","","","",""
16.0,0.04543586075305939,0.0019895537619674425,"train",17840.0,"2021-11-29 23:33:17.469670","","","","","","",""
16.0,0.10494320839643478,0.001989311408888101,"train",17860.0,"2021-11-29 23:33:22.025818","","","","","","",""
16.0,0.07217933982610703,0.001989066291756527,"train",17880.0,"2021-11-29 23:33:26.508841","","","","","","",""
16.0,0.06304178386926651,0.00198881841125756,"train",17900.0,"2021-11-29 23:33:30.872991","","","","","","",""
16.0,0.044659897685050964,0.0019885677680837595,"train",17920.0,"2021-11-29 23:33:34.850303","","","","","","",""
16.0,0.0801970586180687,0.001988314362935404,"train",17940.0,"2021-11-29 23:33:39.373314","","","","","","",""
16.0,0.05034051835536957,0.0019880581965204896,"train",17960.0,"2021-11-29 23:33:43.764550","","","","","","",""
16.0,0.05649397149682045,0.0019877992695547255,"train",17980.0,"2021-11-29 23:33:48.183426","","","","","","",""
16.0,0.0438024066388607,0.0019875375827615354,"train",18000.0,"2021-11-29 23:33:52.217885","","","","","","",""
16.0,0.057436008006334305,0.0019872731368720527,"train",18020.0,"2021-11-29 23:33:56.755863","","","","","","",""
16.0,0.06301194429397583,0.00198700593262512,"train",18040.0,"2021-11-29 23:34:01.171974","","","","","","",""
16.0,0.08341450244188309,0.001986735970767286,"train",18060.0,"2021-11-29 23:34:05.597408","","","","","","",""
16.0,0.07629416137933731,0.001986463252052804,"train",18080.0,"2021-11-29 23:34:10.003383","","","","","","",""
16.0,0.09387106448411942,0.0019861877772436305,"train",18100.0,"2021-11-29 23:34:14.000899","","","","","","",""
16.0,0.06355392932891846,0.001985909547109422,"train",18120.0,"2021-11-29 23:34:18.431035","","","","","","",""
16.0,0.051105353981256485,0.001985628562427533,"train",18140.0,"2021-11-29 23:34:22.783590","","","","","","",""
16.0,0.11485551297664642,0.001985344823983014,"train",18160.0,"2021-11-29 23:34:27.168823","","","","","","",""
16.0,0.05260097235441208,0.001985058332568609,"train",18180.0,"2021-11-29 23:34:31.185557","","","","","","",""
16.0,0.07949057221412659,0.001984769088984755,"train",18200.0,"2021-11-29 23:34:35.646447","","","","","","",""
16.0,0.0871732085943222,0.001984477094039576,"train",18220.0,"2021-11-29 23:34:40.226100","","","","","","",""
16.0,0.04373255372047424,0.001984182348548885,"train",18240.0,"2021-11-29 23:34:44.533579","","","","","","",""
16.0,"","","train",18258.0,"2021-11-29 23:36:30.384186",0.6168522156734337,0.6559737741177364,0.9562674923509847,0.7071850587134352,0.5767698519901818,0.587415691064537,0.3984738659198053
16.0,"","","val",18258.0,"2021-11-29 23:36:57.784562",0.583381653716804,0.5968977804673639,0.9459091922170374,0.6679909901774215,0.5368262873017555,0.5453984466804539,0.3561332636464244
17.0,0.06062670052051544,0.00198388485333618,"train",18260.0,"2021-11-29 23:37:01.378091","","","","","","",""
17.0,0.07778751850128174,0.0019835846092326396,"train",18280.0,"2021-11-29 23:37:05.930717","","","","","","",""
17.0,0.052772875875234604,0.0019832816170771246,"train",18300.0,"2021-11-29 23:37:10.082856","","","","","","",""
17.0,0.041385386139154434,0.001982975877716172,"train",18320.0,"2021-11-29 23:37:14.130086","","","","","","",""
17.0,0.05056708678603172,0.0019826673920039957,"train",18340.0,"2021-11-29 23:37:18.378042","","","","","","",""
17.0,0.055712778121232986,0.0019823561608024822,"train",18360.0,"2021-11-29 23:37:22.468160","","","","","","",""
17.0,0.0690574049949646,0.0019820421849811886,"train",18380.0,"2021-11-29 23:37:26.460833","","","","","","",""
17.0,0.053699444979429245,0.0019817254654173402,"train",18400.0,"2021-11-29 23:37:30.471169","","","","","","",""
17.0,0.0448455736041069,0.0019814060029958278,"train",18420.0,"2021-11-29 23:37:34.517486","","","","","","",""
17.0,0.033605944365262985,0.001981083798609206,"train",18440.0,"2021-11-29 23:37:38.562493","","","","","","",""
17.0,0.04435030370950699,0.0019807588531576908,"train",18460.0,"2021-11-29 23:37:42.561000","","","","","","",""
17.0,0.06055787205696106,0.0019804311675491555,"train",18480.0,"2021-11-29 23:37:46.554768","","","","","","",""
17.0,0.04452851787209511,0.00198010074269913,"train",18500.0,"2021-11-29 23:37:50.560340","","","","","","",""
17.0,0.04663347825407982,0.0019797675795307965,"train",18520.0,"2021-11-29 23:37:54.570289","","","","","","",""
17.0,0.05716940388083458,0.0019794316789749885,"train",18540.0,"2021-11-29 23:37:58.967892","","","","","","",""
17.0,0.0860489159822464,0.0019790930419701877,"train",18560.0,"2021-11-29 23:38:02.929147","","","","","","",""
17.0,0.05473534017801285,0.0019787516694625214,"train",18580.0,"2021-11-29 23:38:06.931278","","","","","","",""
17.0,0.08550641685724258,0.0019784075624057584,"train",18600.0,"2021-11-29 23:38:11.110592","","","","","","",""
17.0,0.08623287826776505,0.0019780607217613094,"train",18620.0,"2021-11-29 23:38:15.249102","","","","","","",""
17.0,0.04659534618258476,0.001977711148498221,"train",18640.0,"2021-11-29 23:38:19.359078","","","","","","",""
17.0,0.056656088680028915,0.0019773588435931756,"train",18660.0,"2021-11-29 23:38:23.471557","","","","","","",""
17.0,0.1018361821770668,0.0019770038080304873,"train",18680.0,"2021-11-29 23:38:27.587987","","","","","","",""
17.0,0.08782827109098434,0.001976646042802099,"train",18700.0,"2021-11-29 23:38:31.725383","","","","","","",""
17.0,0.03880069777369499,0.0019762855489075808,"train",18720.0,"2021-11-29 23:38:35.863781","","","","","","",""
17.0,0.07011531293392181,0.001975922327354126,"train",18740.0,"2021-11-29 23:38:40.011518","","","","","","",""
17.0,0.05729096382856369,0.001975556379156549,"train",18760.0,"2021-11-29 23:38:44.122910","","","","","","",""
17.0,0.07282968610525131,0.0019751877053372823,"train",18780.0,"2021-11-29 23:38:48.196812","","","","","","",""
17.0,0.08586988598108292,0.001974816306926373,"train",18800.0,"2021-11-29 23:38:52.734877","","","","","","",""
17.0,0.07347801327705383,0.001974442184961482,"train",18820.0,"2021-11-29 23:38:56.856253","","","","","","",""
17.0,0.06054007261991501,0.0019740653404878776,"train",18840.0,"2021-11-29 23:39:00.970721","","","","","","",""
17.0,0.06888946145772934,0.0019736857745584362,"train",18860.0,"2021-11-29 23:39:05.080216","","","","","","",""
17.0,0.053893934935331345,0.0019733034882336367,"train",18880.0,"2021-11-29 23:39:09.167983","","","","","","",""
17.0,0.053478535264730453,0.0019729184825815586,"train",18900.0,"2021-11-29 23:39:13.328964","","","","","","",""
17.0,0.03899676352739334,0.0019725307586778806,"train",18920.0,"2021-11-29 23:39:17.490258","","","","","","",""
17.0,0.061028629541397095,0.001972140317605874,"train",18940.0,"2021-11-29 23:39:21.605817","","","","","","",""
17.0,0.04967262223362923,0.0019717471604564028,"train",18960.0,"2021-11-29 23:39:25.734224","","","","","","",""
17.0,0.048017390072345734,0.0019713512883279185,"train",18980.0,"2021-11-29 23:39:29.836068","","","","","","",""
17.0,0.09369653463363647,0.00197095270232646,"train",19000.0,"2021-11-29 23:39:33.950522","","","","","","",""
17.0,0.05436902493238449,0.001970551403565646,"train",19020.0,"2021-11-29 23:39:37.977231","","","","","","",""
17.0,0.0799281895160675,0.0019701473931666765,"train",19040.0,"2021-11-29 23:39:42.347920","","","","","","",""
17.0,0.0882069393992424,0.001969740672258327,"train",19060.0,"2021-11-29 23:39:46.310106","","","","","","",""
17.0,0.04954506829380989,0.0019693312419769454,"train",19080.0,"2021-11-29 23:39:50.353761","","","","","","",""
17.0,0.0648631900548935,0.0019689191034664498,"train",19100.0,"2021-11-29 23:39:54.368133","","","","","","",""
17.0,0.04463031515479088,0.0019685042578783257,"train",19120.0,"2021-11-29 23:39:58.397228","","","","","","",""
17.0,0.06041007861495018,0.00196808670637162,"train",19140.0,"2021-11-29 23:40:02.556054","","","","","","",""
17.0,0.04539618641138077,0.001967666450112942,"train",19160.0,"2021-11-29 23:40:06.599635","","","","","","",""
17.0,0.05042196437716484,0.001967243490276456,"train",19180.0,"2021-11-29 23:40:10.635969","","","","","","",""
17.0,0.050454653799533844,0.0019668178280438818,"train",19200.0,"2021-11-29 23:40:14.563889","","","","","","",""
17.0,0.05264886096119881,0.0019663894646044875,"train",19220.0,"2021-11-29 23:40:18.511483","","","","","","",""
17.0,0.06068187579512596,0.001965958401155089,"train",19240.0,"2021-11-29 23:40:22.678542","","","","","","",""
17.0,0.05401993170380592,0.0019655246389000463,"train",19260.0,"2021-11-29 23:40:26.710276","","","","","","",""
17.0,0.09111704677343369,0.0019650881790512597,"train",19280.0,"2021-11-29 23:40:30.742961","","","","","","",""
17.0,0.053655900061130524,0.001964649022828165,"train",19300.0,"2021-11-29 23:40:35.261436","","","","","","",""
17.0,0.05552422255277634,0.0019642071714577325,"train",19320.0,"2021-11-29 23:40:39.381741","","","","","","",""
17.0,"","","train",19332.0,"2021-11-29 23:42:24.194033",0.6496252637706469,0.6655160330555403,0.9584927627410222,0.6915775320731878,0.5498300862564921,0.570396296879574,0.3960350216192918
17.0,"","","val",19332.0,"2021-11-29 23:42:52.100665",0.6131276817812826,0.5999850000659369,0.9443759563659433,0.6485881475574676,0.510585268903178,0.5273365839486271,0.3488715819949201
18.0,0.09368009120225906,0.0019637626261744634,"train",19340.0,"2021-11-29 23:42:57.054919","","","","","","",""
18.0,0.05790339782834053,0.001963315388220384,"train",19360.0,"2021-11-29 23:43:01.197180","","","","","","",""
18.0,0.053146842867136,0.0019628654588450443,"train",19380.0,"2021-11-29 23:43:05.385373","","","","","","",""
18.0,0.05757125839591026,0.001962412839305514,"train",19400.0,"2021-11-29 23:43:09.516488","","","","","","",""
18.0,0.05666116625070572,0.0019619575308663785,"train",19420.0,"2021-11-29 23:43:14.078450","","","","","","",""
18.0,0.06621333211660385,0.001961499534799737,"train",19440.0,"2021-11-29 23:43:18.071598","","","","","","",""
18.0,0.05465707182884216,0.001961038852385196,"train",19460.0,"2021-11-29 23:43:22.183997","","","","","","",""
18.0,0.06803832203149796,0.0019605754849098683,"train",19480.0,"2021-11-29 23:43:26.158090","","","","","","",""
18.0,0.040448855608701706,0.0019601094336683693,"train",19500.0,"2021-11-29 23:43:30.525273","","","","","","",""
18.0,0.04644276574254036,0.0019596406999628116,"train",19520.0,"2021-11-29 23:43:34.504770","","","","","","",""
18.0,0.05896614491939545,0.0019591692851028022,"train",19540.0,"2021-11-29 23:43:38.490683","","","","","","",""
18.0,0.06483098864555359,0.001958695190405441,"train",19560.0,"2021-11-29 23:43:42.592578","","","","","","",""
18.0,0.09052859991788864,0.001958218417195312,"train",19580.0,"2021-11-29 23:43:46.685048","","","","","","",""
18.0,0.04978811368346214,0.001957738966804486,"train",19600.0,"2021-11-29 23:43:51.043530","","","","","","",""
18.0,0.05457067862153053,0.001957256840572511,"train",19620.0,"2021-11-29 23:43:55.147332","","","","","","",""
18.0,0.0690721794962883,0.0019567720398464133,"train",19640.0,"2021-11-29 23:43:59.306138","","","","","","",""
18.0,0.042952343821525574,0.00195628456598069,"train",19660.0,"2021-11-29 23:44:03.481025","","","","","","",""
18.0,0.04671253636479378,0.001955794420337307,"train",19680.0,"2021-11-29 23:44:07.969583","","","","","","",""
18.0,0.032956354320049286,0.0019553016042856957,"train",19700.0,"2021-11-29 23:44:12.156896","","","","","","",""
18.0,0.07169648259878159,0.001954806119202748,"train",19720.0,"2021-11-29 23:44:16.341806","","","","","","",""
18.0,0.05610154569149017,0.001954307966472812,"train",19740.0,"2021-11-29 23:44:20.433154","","","","","","",""
18.0,0.06459404528141022,0.0019538071474876914,"train",19760.0,"2021-11-29 23:44:24.443211","","","","","","",""
18.0,0.05949431285262108,0.001953303663646636,"train",19780.0,"2021-11-29 23:44:28.852387","","","","","","",""
18.0,0.07626122981309891,0.0019527975163563436,"train",19800.0,"2021-11-29 23:44:32.964532","","","","","","",""
18.0,0.06365074217319489,0.0019522887070309524,"train",19820.0,"2021-11-29 23:44:37.060680","","","","","","",""
18.0,0.061202920973300934,0.0019517772370920379,"train",19840.0,"2021-11-29 23:44:41.197907","","","","","","",""
18.0,0.08725976198911667,0.0019512631079686104,"train",19860.0,"2021-11-29 23:44:45.714262","","","","","","",""
18.0,0.05864669010043144,0.001950746321097108,"train",19880.0,"2021-11-29 23:44:49.858149","","","","","","",""
18.0,0.03926173597574234,0.0019502268779213957,"train",19900.0,"2021-11-29 23:44:53.983322","","","","","","",""
18.0,0.056085798889398575,0.0019497047798927598,"train",19920.0,"2021-11-29 23:44:58.048186","","","","","","",""
18.0,0.06654443591833115,0.001949180028469903,"train",19940.0,"2021-11-29 23:45:02.074572","","","","","","",""
18.0,0.08199330419301987,0.0019486526251189435,"train",19960.0,"2021-11-29 23:45:06.449728","","","","","","",""
18.0,0.08410147577524185,0.0019481225713134064,"train",19980.0,"2021-11-29 23:45:10.449883","","","","","","",""
18.0,0.057185444980859756,0.0019475898685342235,"train",20000.0,"2021-11-29 23:45:14.461187","","","","","","",""
18.0,0.06114177778363228,0.0019470545182697272,"train",20020.0,"2021-11-29 23:45:18.461710","","","","","","",""
18.0,0.06466961652040482,0.001946516522015647,"train",20040.0,"2021-11-29 23:45:22.794874","","","","","","",""
18.0,0.055577490478754044,0.0019459758812751047,"train",20060.0,"2021-11-29 23:45:26.896551","","","","","","",""
18.0,0.05787081643939018,0.0019454325975586106,"train",20080.0,"2021-11-29 23:45:30.881213","","","","","","",""
18.0,0.07184936851263046,0.0019448866723840602,"train",20100.0,"2021-11-29 23:45:34.864810","","","","","","",""
18.0,0.08860227465629578,0.001944338107276728,"train",20120.0,"2021-11-29 23:45:38.843428","","","","","","",""
18.0,0.053548432886600494,0.0019437869037692644,"train",20140.0,"2021-11-29 23:45:43.170239","","","","","","",""
18.0,0.04384122043848038,0.0019432330634016912,"train",20160.0,"2021-11-29 23:45:47.172404","","","","","","",""
18.0,0.05761611834168434,0.0019426765877213986,"train",20180.0,"2021-11-29 23:45:51.173344","","","","","","",""
18.0,0.051249001175165176,0.0019421174782831383,"train",20200.0,"2021-11-29 23:45:55.181439","","","","","","",""
18.0,0.09162844717502594,0.0019415557366490208,"train",20220.0,"2021-11-29 23:45:59.625052","","","","","","",""
