"epoch","loss","lr","part","step","time","accuracy","auprc","auroc","challenge_metric","f_beta_measure","f_measure","g_beta_measure"
0.0,0.450039803981781,8.000730236035311e-05,"train",20.0,"2021-11-25 11:56:06.273123","","","","","","",""
0.0,0.24956241250038147,8.002920933031948e-05,"train",40.0,"2021-11-25 11:56:09.356052","","","","","","",""
0.0,0.1234116330742836,8.006572057662293e-05,"train",60.0,"2021-11-25 11:56:12.499610","","","","","","",""
0.0,0.12052032351493835,8.011683554380914e-05,"train",80.0,"2021-11-25 11:56:15.744903","","","","","","",""
0.0,0.10492965579032898,8.018255345425274e-05,"train",100.0,"2021-11-25 11:56:19.380072","","","","","","",""
0.0,0.12915174663066864,8.026287330817079e-05,"train",120.0,"2021-11-25 11:56:22.586312","","","","","","",""
0.0,0.11762967705726624,8.03577938836373e-05,"train",140.0,"2021-11-25 11:56:25.737898","","","","","","",""
0.0,0.13221682608127594,8.04673137366021e-05,"train",160.0,"2021-11-25 11:56:29.374444","","","","","","",""
0.0,0.1471254825592041,8.059143120091187e-05,"train",180.0,"2021-11-25 11:56:32.531358","","","","","","",""
0.0,0.12808935344219208,8.073014438833613e-05,"train",200.0,"2021-11-25 11:56:35.679762","","","","","","",""
0.0,0.11267682909965515,8.088345118859724e-05,"train",220.0,"2021-11-25 11:56:38.931364","","","","","","",""
0.0,0.11636541038751602,8.10513492693996e-05,"train",240.0,"2021-11-25 11:56:42.727079","","","","","","",""
0.0,0.1315218210220337,8.123383607646804e-05,"train",260.0,"2021-11-25 11:56:45.951467","","","","","","",""
0.0,0.1257276087999344,8.143090883358495e-05,"train",280.0,"2021-11-25 11:56:49.143219","","","","","","",""
0.0,0.13183161616325378,8.164256454263295e-05,"train",300.0,"2021-11-25 11:56:52.285706","","","","","","",""
0.0,0.1294083595275879,8.186879998364088e-05,"train",320.0,"2021-11-25 11:56:55.869343","","","","","","",""
0.0,0.11904389411211014,8.210961171483213e-05,"train",340.0,"2021-11-25 11:56:59.030923","","","","","","",""
0.0,0.11018922924995422,8.236499607267717e-05,"train",360.0,"2021-11-25 11:57:02.150000","","","","","","",""
0.0,0.11486785858869553,8.26349491719505e-05,"train",380.0,"2021-11-25 11:57:05.750186","","","","","","",""
0.0,0.1136515885591507,8.291946690578713e-05,"train",400.0,"2021-11-25 11:57:08.993948","","","","","","",""
0.0,0.1288152039051056,8.321854494574774e-05,"train",420.0,"2021-11-25 11:57:12.238149","","","","","","",""
0.0,0.0981127992272377,8.353217874188293e-05,"train",440.0,"2021-11-25 11:57:15.476006","","","","","","",""
0.0,0.11929468810558319,8.38603635228035e-05,"train",460.0,"2021-11-25 11:57:19.087838","","","","","","",""
0.0,0.12309589982032776,8.420309429575212e-05,"train",480.0,"2021-11-25 11:57:22.253142","","","","","","",""
0.0,0.11038201302289963,8.456036584667914e-05,"train",500.0,"2021-11-25 11:57:25.421985","","","","","","",""
0.0,0.10768090933561325,8.493217274032315e-05,"train",520.0,"2021-11-25 11:57:28.596775","","","","","","",""
0.0,0.12161354720592499,8.531850932029235e-05,"train",540.0,"2021-11-25 11:57:32.180668","","","","","","",""
0.0,0.10864216089248657,8.571936970915212e-05,"train",560.0,"2021-11-25 11:57:35.409172","","","","","","",""
0.0,0.11450959742069244,8.613474780851246e-05,"train",580.0,"2021-11-25 11:57:38.635201","","","","","","",""
0.0,0.11023181676864624,8.656463729912224e-05,"train",600.0,"2021-11-25 11:57:42.235342","","","","","","",""
0.0,0.1120699867606163,8.700903164096468e-05,"train",620.0,"2021-11-25 11:57:45.366293","","","","","","",""
0.0,0.11127644032239914,8.746792407335769e-05,"train",640.0,"2021-11-25 11:57:48.493803","","","","","","",""
0.0,0.10505584627389908,8.794130761505497e-05,"train",660.0,"2021-11-25 11:57:51.676839","","","","","","",""
0.0,0.10508865863084793,8.842917506435462e-05,"train",680.0,"2021-11-25 11:57:55.331655","","","","","","",""
0.0,0.10374273359775543,8.893151899920645e-05,"train",700.0,"2021-11-25 11:57:58.564653","","","","","","",""
0.0,0.10888267308473587,8.944833177732632e-05,"train",720.0,"2021-11-25 11:58:01.751891","","","","","","",""
0.0,0.089177206158638,8.997960553631186e-05,"train",740.0,"2021-11-25 11:58:04.985563","","","","","","",""
0.0,0.1034991592168808,9.052533219376224e-05,"train",760.0,"2021-11-25 11:58:08.614276","","","","","","",""
0.0,0.10599759966135025,9.108550344740104e-05,"train",780.0,"2021-11-25 11:58:11.834545","","","","","","",""
0.0,0.08123185485601425,9.166011077520208e-05,"train",800.0,"2021-11-25 11:58:15.049816","","","","","","",""
0.0,0.09011827409267426,9.224914543552059e-05,"train",820.0,"2021-11-25 11:58:18.577549","","","","","","",""
0.0,0.09353663772344589,9.285259846722417e-05,"train",840.0,"2021-11-25 11:58:21.657533","","","","","","",""
0.0,0.09178534150123596,9.34704606898307e-05,"train",860.0,"2021-11-25 11:58:24.743342","","","","","","",""
0.0,0.07851928472518921,9.410272270364735e-05,"train",880.0,"2021-11-25 11:58:27.842613","","","","","","",""
0.0,0.07919478416442871,9.474937488991348e-05,"train",900.0,"2021-11-25 11:58:31.367089","","","","","","",""
0.0,0.09473768621683121,9.541040741094719e-05,"train",920.0,"2021-11-25 11:58:34.586181","","","","","","",""
0.0,0.11253529787063599,9.608581021029522e-05,"train",940.0,"2021-11-25 11:58:37.650834","","","","","","",""
0.0,0.08036597818136215,9.677557301288509e-05,"train",960.0,"2021-11-25 11:58:40.686879","","","","","","",""
0.0,0.09092133492231369,9.747968532518238e-05,"train",980.0,"2021-11-25 11:58:44.191357","","","","","","",""
0.0,0.09440067410469055,9.819813643535029e-05,"train",1000.0,"2021-11-25 11:58:47.335540","","","","","","",""
0.0,0.10202959179878235,9.893091541341185e-05,"train",1020.0,"2021-11-25 11:58:50.474975","","","","","","",""
0.0,0.09189703315496445,9.967801111141644e-05,"train",1040.0,"2021-11-25 11:58:53.965276","","","","","","",""
0.0,0.10218499600887299,0.00010043941216361023,"train",1060.0,"2021-11-25 11:58:57.041091","","","","","","",""
0.0,"","","train",1074.0,"2021-11-25 12:00:27.257167",0.4105799316015426,0.2204756122022546,0.7897711723117479,0.31023126381998006,0.15003330188644978,0.14254292538094268,0.10017995459868369
0.0,"","","val",1074.0,"2021-11-25 12:00:50.533996",0.4069929258958599,0.21729134677769293,0.7921525957097487,0.3084065115186647,0.14957066859797344,0.1421168995199898,0.0996154578900301
1.0,0.08544714748859406,0.00010121510698660771,"train",1080.0,"2021-11-25 12:00:53.806889","","","","","","",""
1.0,0.07158958166837692,0.00010200508377956928,"train",1100.0,"2021-11-25 12:00:57.042291","","","","","","",""
1.0,0.106741763651371,0.00010280933052437993,"train",1120.0,"2021-11-25 12:01:00.760224","","","","","","",""
1.0,0.10159213095903397,0.00010362783498583223,"train",1140.0,"2021-11-25 12:01:04.004167","","","","","","",""
1.0,0.08616369962692261,0.0001044605847118124,"train",1160.0,"2021-11-25 12:01:07.246908","","","","","","",""
1.0,0.10130804032087326,0.0001053075670334907,"train",1180.0,"2021-11-25 12:01:10.450655","","","","","","",""
1.0,0.096417136490345,0.00010616876906551181,"train",1200.0,"2021-11-25 12:01:13.885214","","","","","","",""
1.0,0.07829051464796066,0.0001070441777061941,"train",1220.0,"2021-11-25 12:01:16.917567","","","","","","",""
1.0,0.10490197688341141,0.00010793377963772563,"train",1240.0,"2021-11-25 12:01:19.957999","","","","","","",""
1.0,0.10662699490785599,0.0001088375613263698,"train",1260.0,"2021-11-25 12:01:23.449305","","","","","","",""
1.0,0.09372138977050781,0.00010975550902266908,"train",1280.0,"2021-11-25 12:01:26.550941","","","","","","",""
1.0,0.09114936739206314,0.00011068760876165474,"train",1300.0,"2021-11-25 12:01:29.654428","","","","","","",""
1.0,0.08569733053445816,0.0001116338463630598,"train",1320.0,"2021-11-25 12:01:32.758613","","","","","","",""
1.0,0.07634814083576202,0.00011259420743153455,"train",1340.0,"2021-11-25 12:01:36.365765","","","","","","",""
1.0,0.0960540622472763,0.00011356867735686535,"train",1360.0,"2021-11-25 12:01:39.545141","","","","","","",""
1.0,0.11440543085336685,0.00011455724131419621,"train",1380.0,"2021-11-25 12:01:42.675695","","","","","","",""
1.0,0.10224180668592453,0.00011555988426425654,"train",1400.0,"2021-11-25 12:01:45.800674","","","","","","",""
1.0,0.08244770765304565,0.00011657659095358746,"train",1420.0,"2021-11-25 12:01:49.402618","","","","","","",""
1.0,0.10752467066049576,0.00011760734591477516,"train",1440.0,"2021-11-25 12:01:52.668750","","","","","","",""
1.0,0.09032414853572845,0.00011865213346668618,"train",1460.0,"2021-11-25 12:01:55.822385","","","","","","",""
1.0,0.09485720098018646,0.00011971093771470502,"train",1480.0,"2021-11-25 12:01:58.987321","","","","","","",""
1.0,0.08767025917768478,0.0001207837425509777,"train",1500.0,"2021-11-25 12:02:02.548851","","","","","","",""
1.0,0.09245645254850388,0.00012187053165465503,"train",1520.0,"2021-11-25 12:02:05.712677","","","","","","",""
1.0,0.08074679970741272,0.000122971288492142,"train",1540.0,"2021-11-25 12:02:08.865860","","","","","","",""
1.0,0.09696947038173676,0.00012408599631734863,"train",1560.0,"2021-11-25 12:02:12.424221","","","","","","",""
1.0,0.07838557660579681,0.00012521463817194542,"train",1580.0,"2021-11-25 12:02:15.532565","","","","","","",""
1.0,0.07264170050621033,0.00012635719688562077,"train",1600.0,"2021-11-25 12:02:18.652040","","","","","","",""
1.0,0.06973476707935333,0.00012751365507634267,"train",1620.0,"2021-11-25 12:02:21.911914","","","","","","",""
1.0,0.0778563842177391,0.0001286839951506226,"train",1640.0,"2021-11-25 12:02:25.573426","","","","","","",""
1.0,0.09419232606887817,0.00012986819930378333,"train",1660.0,"2021-11-25 12:02:28.826142","","","","","","",""
1.0,0.08646765351295471,0.00013106624952023064,"train",1680.0,"2021-11-25 12:02:32.014350","","","","","","",""
1.0,0.07750698179006577,0.00013227812757372545,"train",1700.0,"2021-11-25 12:02:35.271016","","","","","","",""
1.0,0.08098974823951721,0.00013350381502766394,"train",1720.0,"2021-11-25 12:02:38.914801","","","","","","",""
1.0,0.10104240477085114,0.00013474329323535494,"train",1740.0,"2021-11-25 12:02:42.133073","","","","","","",""
1.0,0.08859335631132126,0.0001359965433403059,"train",1760.0,"2021-11-25 12:02:45.185832","","","","","","",""
1.0,0.08241798728704453,0.00013726354627650872,"train",1780.0,"2021-11-25 12:02:48.629102","","","","","","",""
1.0,0.08063091337680817,0.00013854428276873052,"train",1800.0,"2021-11-25 12:02:51.682293","","","","","","",""
1.0,0.0893225222826004,0.00013983873333280506,"train",1820.0,"2021-11-25 12:02:54.926394","","","","","","",""
1.0,0.07313065975904465,0.00014114687827593156,"train",1840.0,"2021-11-25 12:02:58.108035","","","","","","",""
1.0,0.09419134259223938,0.00014246869769697352,"train",1860.0,"2021-11-25 12:03:01.547278","","","","","","",""
1.0,0.07837244123220444,0.00014380417148676054,"train",1880.0,"2021-11-25 12:03:04.695432","","","","","","",""
1.0,0.10450059175491333,0.00014515327932839404,"train",1900.0,"2021-11-25 12:03:07.934039","","","","","","",""
1.0,0.10150136053562164,0.0001465160006975598,"train",1920.0,"2021-11-25 12:03:11.192012","","","","","","",""
1.0,0.08170551806688309,0.00014789231486283454,"train",1940.0,"2021-11-25 12:03:14.838142","","","","","","",""
1.0,0.0804230272769928,0.00014928220088600633,"train",1960.0,"2021-11-25 12:03:18.048440","","","","","","",""
1.0,0.1063513457775116,0.00015068563762239045,"train",1980.0,"2021-11-25 12:03:21.300435","","","","","","",""
1.0,0.08323829621076584,0.00015210260372115238,"train",2000.0,"2021-11-25 12:03:24.938849","","","","","","",""
1.0,0.07080663740634918,0.00015353307762563115,"train",2020.0,"2021-11-25 12:03:28.097388","","","","","","",""
1.0,0.10330229997634888,0.00015497703757366872,"train",2040.0,"2021-11-25 12:03:31.243696","","","","","","",""
1.0,0.10059288889169693,0.00015643446159794,"train",2060.0,"2021-11-25 12:03:34.466670","","","","","","",""
1.0,0.07930408418178558,0.0001579053275262887,"train",2080.0,"2021-11-25 12:03:38.043654","","","","","","",""
1.0,0.0928012803196907,0.00015938961298206183,"train",2100.0,"2021-11-25 12:03:41.298097","","","","","","",""
1.0,0.09010562300682068,0.00016088729538445297,"train",2120.0,"2021-11-25 12:03:44.531030","","","","","","",""
1.0,0.08015289902687073,0.000162398351948844,"train",2140.0,"2021-11-25 12:03:47.759234","","","","","","",""
1.0,"","","train",2148.0,"2021-11-25 12:05:15.085680",0.45623226369788256,0.3132856036679415,0.8508602654033713,0.38846391132484137,0.20554924827950105,0.19957729449760178,0.14112898713959632
1.0,"","","val",2148.0,"2021-11-25 12:05:38.483872",0.45355444740809464,0.3069464190890924,0.8510957910543829,0.38342360191028996,0.20338442746484506,0.19859675939461374,0.13867524400632655
2.0,0.07997237890958786,0.00016392275968715297,"train",2160.0,"2021-11-25 12:05:42.648450","","","","","","",""
2.0,0.07343252003192902,0.00016546049540818223,"train",2180.0,"2021-11-25 12:05:45.748614","","","","","","",""
2.0,0.08093137294054031,0.00016701153571797313,"train",2200.0,"2021-11-25 12:05:48.893542","","","","","","",""
2.0,0.07635243982076645,0.00016857585702016015,"train",2220.0,"2021-11-25 12:05:52.645634","","","","","","",""
2.0,0.07563450932502747,0.00017015343551633126,"train",2240.0,"2021-11-25 12:05:55.827573","","","","","","",""
2.0,0.09346528351306915,0.0001717442472063892,"train",2260.0,"2021-11-25 12:05:58.963103","","","","","","",""
2.0,0.09924370795488358,0.00017334826788891681,"train",2280.0,"2021-11-25 12:06:02.199688","","","","","","",""
2.0,0.08941866457462311,0.00017496547316154555,"train",2300.0,"2021-11-25 12:06:05.862446","","","","","","",""
2.0,0.08229783922433853,0.00017659583842132573,"train",2320.0,"2021-11-25 12:06:09.132519","","","","","","",""
2.0,0.08606857806444168,0.00017823933886510217,"train",2340.0,"2021-11-25 12:06:12.401496","","","","","","",""
2.0,0.061069175601005554,0.00017989594948989015,"train",2360.0,"2021-11-25 12:06:15.632844","","","","","","",""
2.0,0.07126576453447342,0.00018156564509325753,"train",2380.0,"2021-11-25 12:06:19.167835","","","","","","",""
2.0,0.0822819396853447,0.0001832484002737059,"train",2400.0,"2021-11-25 12:06:22.309825","","","","","","",""
2.0,0.05486496165394783,0.00018494418943105877,"train",2420.0,"2021-11-25 12:06:25.449833","","","","","","",""
2.0,0.09058589488267899,0.00018665298676685078,"train",2440.0,"2021-11-25 12:06:28.533351","","","","","","",""
2.0,0.08775115013122559,0.0001883747662847191,"train",2460.0,"2021-11-25 12:06:32.017059","","","","","","",""
2.0,0.10155370086431503,0.00019010950179080112,"train",2480.0,"2021-11-25 12:06:35.142605","","","","","","",""
2.0,0.07296248525381088,0.00019185716689412995,"train",2500.0,"2021-11-25 12:06:38.327228","","","","","","",""
2.0,0.08637852966785431,0.00019361773500703797,"train",2520.0,"2021-11-25 12:06:41.983961","","","","","","",""
2.0,0.089912049472332,0.00019539117934556168,"train",2540.0,"2021-11-25 12:06:45.248588","","","","","","",""
2.0,0.08394577354192734,0.00019717747292984696,"train",2560.0,"2021-11-25 12:06:48.498360","","","","","","",""
2.0,0.07417807728052139,0.0001989765885845624,"train",2580.0,"2021-11-25 12:06:51.696459","","","","","","",""
2.0,0.0768972858786583,0.00020078849893931014,"train",2600.0,"2021-11-25 12:06:55.356221","","","","","","",""
2.0,0.08246587961912155,0.0002026131764290434,"train",2620.0,"2021-11-25 12:06:58.498542","","","","","","",""
2.0,0.06643854826688766,0.00020445059329448614,"train",2640.0,"2021-11-25 12:07:01.459476","","","","","","",""
2.0,0.05665009096264839,0.00020630072158255497,"train",2660.0,"2021-11-25 12:07:04.530349","","","","","","",""
2.0,0.056885041296482086,0.00020816353314678467,"train",2680.0,"2021-11-25 12:07:08.002454","","","","","","",""
2.0,0.07900777459144592,0.00021003899964775505,"train",2700.0,"2021-11-25 12:07:10.982007","","","","","","",""
2.0,0.057578057050704956,0.00021192709255352473,"train",2720.0,"2021-11-25 12:07:14.088780","","","","","","",""
2.0,0.09709303826093674,0.00021382778314006255,"train",2740.0,"2021-11-25 12:07:17.607838","","","","","","",""
2.0,0.06796972453594208,0.00021574104249168615,"train",2760.0,"2021-11-25 12:07:20.681588","","","","","","",""
2.0,0.08498257398605347,0.00021766684150150133,"train",2780.0,"2021-11-25 12:07:23.746495","","","","","","",""
2.0,0.08385196328163147,0.00021960515087184485,"train",2800.0,"2021-11-25 12:07:26.790255","","","","","","",""
2.0,0.09417110681533813,0.00022155594111472978,"train",2820.0,"2021-11-25 12:07:30.285453","","","","","","",""
2.0,0.07308927178382874,0.0002235191825522959,"train",2840.0,"2021-11-25 12:07:33.397262","","","","","","",""
2.0,0.07248937338590622,0.00022549484531725838,"train",2860.0,"2021-11-25 12:07:36.484523","","","","","","",""
2.0,0.11111443489789963,0.00022748289935336434,"train",2880.0,"2021-11-25 12:07:39.621749","","","","","","",""
2.0,0.08054786175489426,0.00022948331441584964,"train",2900.0,"2021-11-25 12:07:43.210260","","","","","","",""
2.0,0.07144133001565933,0.00023149606007189785,"train",2920.0,"2021-11-25 12:07:46.362523","","","","","","",""
2.0,0.08203807473182678,0.00023352110570110476,"train",2940.0,"2021-11-25 12:07:49.502293","","","","","","",""
2.0,0.09426242113113403,0.00023555842049594305,"train",2960.0,"2021-11-25 12:07:53.016787","","","","","","",""
2.0,0.09435620903968811,0.00023760797346223305,"train",2980.0,"2021-11-25 12:07:56.218882","","","","","","",""
2.0,0.08931957930326462,0.00023966973341961028,"train",3000.0,"2021-11-25 12:07:59.333695","","","","","","",""
2.0,0.06554277241230011,0.0002417436690020044,"train",3020.0,"2021-11-25 12:08:02.451915","","","","","","",""
2.0,0.07299979031085968,0.00024382974865811325,"train",3040.0,"2021-11-25 12:08:05.931506","","","","","","",""
2.0,0.06936996430158615,0.000245927940651884,"train",3060.0,"2021-11-25 12:08:09.062382","","","","","","",""
2.0,0.0654342770576477,0.0002480382130629953,"train",3080.0,"2021-11-25 12:08:12.311672","","","","","","",""
2.0,0.09321587532758713,0.0002501605337873443,"train",3100.0,"2021-11-25 12:08:15.537436","","","","","","",""
2.0,0.08845076709985733,0.0002522948705375337,"train",3120.0,"2021-11-25 12:08:19.146115","","","","","","",""
2.0,0.10051748901605606,0.00025444119084336303,"train",3140.0,"2021-11-25 12:08:22.375651","","","","","","",""
2.0,0.09701501578092575,0.00025659946205232364,"train",3160.0,"2021-11-25 12:08:25.582125","","","","","","",""
2.0,0.06064441427588463,0.0002587696513300941,"train",3180.0,"2021-11-25 12:08:29.088741","","","","","","",""
2.0,0.09839874505996704,0.0002609517256610412,"train",3200.0,"2021-11-25 12:08:32.220831","","","","","","",""
2.0,0.0704694539308548,0.00026314565184872084,"train",3220.0,"2021-11-25 12:08:35.341312","","","","","","",""
2.0,"","","train",3222.0,"2021-11-25 12:10:03.261466",0.4628683693516699,0.3826879873893809,0.8748558014819945,0.44914359154719546,0.2940961785822721,0.29351791689368667,0.1906042180289707
2.0,"","","val",3222.0,"2021-11-25 12:10:26.743235",0.45813521976110405,0.37648245212413867,0.8708588912622178,0.44360817027747584,0.2897818428897039,0.28813002760858464,0.18486278977349563
3.0,0.07194910943508148,0.0002653513965163838,"train",3240.0,"2021-11-25 12:10:31.907723","","","","","","",""
3.0,0.0736682191491127,0.0002675689261074836,"train",3260.0,"2021-11-25 12:10:35.658546","","","","","","",""
3.0,0.07926557958126068,0.00026979820688618605,"train",3280.0,"2021-11-25 12:10:38.906490","","","","","","",""
3.0,0.08961882442235947,0.00027203920493788433,"train",3300.0,"2021-11-25 12:10:42.136718","","","","","","",""
3.0,0.0800536647439003,0.00027429188616971277,"train",3320.0,"2021-11-25 12:10:45.311248","","","","","","",""
3.0,0.06009909138083458,0.0002765562163110668,"train",3340.0,"2021-11-25 12:10:48.944677","","","","","","",""
3.0,0.06432894617319107,0.00027883216091412503,"train",3360.0,"2021-11-25 12:10:52.220514","","","","","","",""
3.0,0.10233475267887115,0.0002811196853543707,"train",3380.0,"2021-11-25 12:10:55.447774","","","","","","",""
3.0,0.08254700154066086,0.00028341875483112134,"train",3400.0,"2021-11-25 12:10:58.614049","","","","","","",""
3.0,0.0641184076666832,0.00028572933436805644,"train",3420.0,"2021-11-25 12:11:02.261415","","","","","","",""
3.0,0.057390205562114716,0.0002880513888137504,"train",3440.0,"2021-11-25 12:11:05.503653","","","","","","",""
3.0,0.08602788299322128,0.0002903848828422063,"train",3460.0,"2021-11-25 12:11:08.728820","","","","","","",""
3.0,0.06550516933202744,0.00029272978095339465,"train",3480.0,"2021-11-25 12:11:12.360212","","","","","","",""
3.0,0.0776115283370018,0.00029508604747379243,"train",3500.0,"2021-11-25 12:11:15.452473","","","","","","",""
3.0,0.08125866949558258,0.00029745364655692653,"train",3520.0,"2021-11-25 12:11:18.616700","","","","","","",""
3.0,0.06379964202642441,0.0002998325421839181,"train",3540.0,"2021-11-25 12:11:21.768788","","","","","","",""
3.0,0.0776941105723381,0.0003022226981640318,"train",3560.0,"2021-11-25 12:11:25.393624","","","","","","",""
3.0,0.07541574537754059,0.00030462407813522494,"train",3580.0,"2021-11-25 12:11:28.620185","","","","","","",""
3.0,0.09604611992835999,0.0003070366455647027,"train",3600.0,"2021-11-25 12:11:31.763427","","","","","","",""
3.0,0.08091755956411362,0.000309460363749471,"train",3620.0,"2021-11-25 12:11:34.868550","","","","","","",""
3.0,0.05814269930124283,0.0003118951958168978,"train",3640.0,"2021-11-25 12:11:38.438645","","","","","","",""
3.0,0.08381818234920502,0.0003143411047252722,"train",3660.0,"2021-11-25 12:11:41.671964","","","","","","",""
3.0,0.07331094890832901,0.0003167980532643691,"train",3680.0,"2021-11-25 12:11:44.896010","","","","","","",""
3.0,0.0944623053073883,0.0003192660040560141,"train",3700.0,"2021-11-25 12:11:48.502031","","","","","","",""
3.0,0.08760088682174683,0.0003217449195546528,"train",3720.0,"2021-11-25 12:11:51.685986","","","","","","",""
3.0,0.06760059297084808,0.00032423476204792244,"train",3740.0,"2021-11-25 12:11:54.776528","","","","","","",""
3.0,0.08777365833520889,0.0003267354936572248,"train",3760.0,"2021-11-25 12:11:57.841259","","","","","","",""
3.0,0.067103311419487,0.0003292470763383026,"train",3780.0,"2021-11-25 12:12:01.339526","","","","","","",""
3.0,0.09209936857223511,0.0003317694718818192,"train",3800.0,"2021-11-25 12:12:04.550438","","","","","","",""
3.0,0.07865869253873825,0.00033430264191393853,"train",3820.0,"2021-11-25 12:12:07.764516","","","","","","",""
3.0,0.08118095248937607,0.0003368465478969097,"train",3840.0,"2021-11-25 12:12:10.888733","","","","","","",""
3.0,0.063912034034729,0.0003394011511296533,"train",3860.0,"2021-11-25 12:12:14.434308","","","","","","",""
3.0,0.08388008177280426,0.0003419664127483496,"train",3880.0,"2021-11-25 12:12:17.547371","","","","","","",""
3.0,0.06593074649572372,0.00034454229372703074,"train",3900.0,"2021-11-25 12:12:20.732362","","","","","","",""
3.0,0.0619271919131279,0.00034712875487817314,"train",3920.0,"2021-11-25 12:12:23.954464","","","","","","",""
3.0,0.06067440286278725,0.00034972575685329526,"train",3940.0,"2021-11-25 12:12:27.507077","","","","","","",""
3.0,0.07169535011053085,0.0003523332601435541,"train",3960.0,"2021-11-25 12:12:30.676641","","","","","","",""
3.0,0.08215231448411942,0.00035495122508034916,"train",3980.0,"2021-11-25 12:12:33.863425","","","","","","",""
3.0,0.06605937331914902,0.0003575796118359231,"train",4000.0,"2021-11-25 12:12:37.448102","","","","","","",""
3.0,0.08764368295669556,0.00036021838042396906,"train",4020.0,"2021-11-25 12:12:40.644840","","","","","","",""
3.0,0.08045196533203125,0.0003628674907002389,"train",4040.0,"2021-11-25 12:12:43.837422","","","","","","",""
3.0,0.06349116563796997,0.00036552690236315395,"train",4060.0,"2021-11-25 12:12:47.007595","","","","","","",""
3.0,0.06367920339107513,0.00036819657495441773,"train",4080.0,"2021-11-25 12:12:50.558500","","","","","","",""
3.0,0.0718744769692421,0.0003708764678596317,"train",4100.0,"2021-11-25 12:12:53.669930","","","","","","",""
3.0,0.07965893298387527,0.00037356654030891293,"train",4120.0,"2021-11-25 12:12:56.821840","","","","","","",""
3.0,0.07155821472406387,0.0003762667513775148,"train",4140.0,"2021-11-25 12:12:59.939846","","","","","","",""
3.0,0.08172310888767242,0.0003789770599864498,"train",4160.0,"2021-11-25 12:13:03.524050","","","","","","",""
3.0,0.06407048553228378,0.000381697424903113,"train",4180.0,"2021-11-25 12:13:06.765374","","","","","","",""
3.0,0.07106760144233704,0.0003844278047419108,"train",4200.0,"2021-11-25 12:13:09.950859","","","","","","",""
3.0,0.05337463691830635,0.0003871681579648903,"train",4220.0,"2021-11-25 12:13:13.509683","","","","","","",""
3.0,0.08392007648944855,0.0003899184428823709,"train",4240.0,"2021-11-25 12:13:16.688946","","","","","","",""
3.0,0.07680600136518478,0.0003926786176535783,"train",4260.0,"2021-11-25 12:13:19.851505","","","","","","",""
3.0,0.09103681892156601,0.0003954486402872818,"train",4280.0,"2021-11-25 12:13:23.012369","","","","","","",""
3.0,"","","train",4296.0,"2021-11-25 12:14:53.192476",0.5082441970457687,0.432035455161237,0.8974911586007425,0.48226820656605496,0.32763384553541397,0.33868700461563817,0.2215136342213728
3.0,"","","val",4296.0,"2021-11-25 12:15:16.757366",0.5023773628667517,0.4221544025710928,0.8914766493978761,0.4729762297023059,0.32207176615693717,0.331552329320392,0.21702691845308397
4.0,0.08132067322731018,0.0003982284686424324,"train",4300.0,"2021-11-25 12:15:19.777143","","","","","","",""
4.0,0.07716992497444153,0.0004010180604288045,"train",4320.0,"2021-11-25 12:15:22.943937","","","","","","",""
4.0,0.07934128493070602,0.00040381737320763873,"train",4340.0,"2021-11-25 12:15:26.093394","","","","","","",""
4.0,0.06873881816864014,0.0004066263643922878,"train",4360.0,"2021-11-25 12:15:29.277213","","","","","","",""
4.0,0.07643573731184006,0.0004094449912488646,"train",4380.0,"2021-11-25 12:15:32.905497","","","","","","",""
4.0,0.059181734919548035,0.0004122732108968923,"train",4400.0,"2021-11-25 12:15:36.017099","","","","","","",""
4.0,0.05592917650938034,0.0004151109803099558,"train",4420.0,"2021-11-25 12:15:39.165865","","","","","","",""
4.0,0.06236586347222328,0.00041795825631635764,"train",4440.0,"2021-11-25 12:15:42.732397","","","","","","",""
4.0,0.0803859606385231,0.0004208149955997739,"train",4460.0,"2021-11-25 12:15:45.861243","","","","","","",""
4.0,0.04835307598114014,0.0004236811546999141,"train",4480.0,"2021-11-25 12:15:49.143350","","","","","","",""
4.0,0.04978812858462334,0.0004265566900131805,"train",4500.0,"2021-11-25 12:15:52.420852","","","","","","",""
4.0,0.09442809969186783,0.0004294415577933337,"train",4520.0,"2021-11-25 12:15:56.084085","","","","","","",""
4.0,0.05924559757113457,0.00043233571415215717,"train",4540.0,"2021-11-25 12:15:59.349445","","","","","","",""
4.0,0.06049922853708267,0.0004352391150601242,"train",4560.0,"2021-11-25 12:16:02.575339","","","","","","",""
4.0,0.08995566517114639,0.0004381517163470684,"train",4580.0,"2021-11-25 12:16:05.829109","","","","","","",""
4.0,0.06426174938678741,0.00044107347370285683,"train",4600.0,"2021-11-25 12:16:09.473836","","","","","","",""
4.0,0.08244302123785019,0.00044400434267806194,"train",4620.0,"2021-11-25 12:16:12.676313","","","","","","",""
4.0,0.06592798978090286,0.00044694427868463907,"train",4640.0,"2021-11-25 12:16:15.973013","","","","","","",""
4.0,0.06586046516895294,0.00044989323699660467,"train",4660.0,"2021-11-25 12:16:19.498765","","","","","","",""
4.0,0.08102597296237946,0.0004528511727507165,"train",4680.0,"2021-11-25 12:16:22.564379","","","","","","",""
4.0,0.08967232704162598,0.00045581804094715645,"train",4700.0,"2021-11-25 12:16:25.650564","","","","","","",""
4.0,0.06850588321685791,0.00045879379645021425,"train",4720.0,"2021-11-25 12:16:28.758516","","","","","","",""
4.0,0.08470889925956726,0.0004617783939889759,"train",4740.0,"2021-11-25 12:16:32.261648","","","","","","",""
4.0,0.056380804628133774,0.0004647717881580103,"train",4760.0,"2021-11-25 12:16:35.355835","","","","","","",""
4.0,0.05057140812277794,0.0004677739334180617,"train",4780.0,"2021-11-25 12:16:38.454070","","","","","","",""
4.0,0.07512058317661285,0.00047078478409674144,"train",4800.0,"2021-11-25 12:16:41.561286","","","","","","",""
4.0,0.09943627566099167,0.00047380429438922305,"train",4820.0,"2021-11-25 12:16:45.230020","","","","","","",""
4.0,0.08287854492664337,0.00047683241835893946,"train",4840.0,"2021-11-25 12:16:48.291205","","","","","","",""
4.0,0.07536854594945908,0.0004798691099382815,"train",4860.0,"2021-11-25 12:16:51.343188","","","","","","",""
4.0,0.06169798970222473,0.0004829143229292986,"train",4880.0,"2021-11-25 12:16:54.384228","","","","","","",""
4.0,0.07289379835128784,0.0004859680110044023,"train",4900.0,"2021-11-25 12:16:57.883077","","","","","","",""
4.0,0.07460486888885498,0.0004890301277070699,"train",4920.0,"2021-11-25 12:17:00.921138","","","","","","",""
4.0,0.06446168571710587,0.0004921006264525525,"train",4940.0,"2021-11-25 12:17:04.141252","","","","","","",""
4.0,0.05531724914908409,0.0004951794605285824,"train",4960.0,"2021-11-25 12:17:07.797760","","","","","","",""
4.0,0.08985230326652527,0.0004982665830960853,"train",4980.0,"2021-11-25 12:17:11.044505","","","","","","",""
4.0,0.07614453136920929,0.0005013619471898913,"train",5000.0,"2021-11-25 12:17:14.197296","","","","","","",""
4.0,0.05246434360742569,0.0005044655057194504,"train",5020.0,"2021-11-25 12:17:17.265576","","","","","","",""
4.0,0.04967404529452324,0.0005075772114695486,"train",5040.0,"2021-11-25 12:17:20.890736","","","","","","",""
4.0,0.05960860848426819,0.0005106970171010257,"train",5060.0,"2021-11-25 12:17:24.141446","","","","","","",""
4.0,0.06903273612260818,0.0005138248751514966,"train",5080.0,"2021-11-25 12:17:27.307117","","","","","","",""
4.0,0.059646714478731155,0.0005169607380360731,"train",5100.0,"2021-11-25 12:17:30.407959","","","","","","",""
4.0,0.061493005603551865,0.000520104558048086,"train",5120.0,"2021-11-25 12:17:33.879760","","","","","","",""
4.0,0.06653586030006409,0.0005232562873598136,"train",5140.0,"2021-11-25 12:17:36.981566","","","","","","",""
4.0,0.06807396560907364,0.0005264158780232072,"train",5160.0,"2021-11-25 12:17:40.138788","","","","","","",""
4.0,0.05604902654886246,0.0005295832819706228,"train",5180.0,"2021-11-25 12:17:43.788831","","","","","","",""
4.0,0.06277887523174286,0.0005327584510155488,"train",5200.0,"2021-11-25 12:17:47.015239","","","","","","",""
4.0,0.0883442834019661,0.000535941336853343,"train",5220.0,"2021-11-25 12:17:50.197654","","","","","","",""
4.0,0.07159321755170822,0.0005391318910619655,"train",5240.0,"2021-11-25 12:17:53.378455","","","","","","",""
4.0,0.06457626074552536,0.0005423300651027144,"train",5260.0,"2021-11-25 12:17:56.987715","","","","","","",""
4.0,0.09467978030443192,0.0005455358103209663,"train",5280.0,"2021-11-25 12:18:00.170506","","","","","","",""
4.0,0.06162624433636665,0.0005487490779469157,"train",5300.0,"2021-11-25 12:18:03.365644","","","","","","",""
4.0,0.08864710479974747,0.000551969819096316,"train",5320.0,"2021-11-25 12:18:06.629143","","","","","","",""
4.0,0.07241572439670563,0.0005551979847712252,"train",5340.0,"2021-11-25 12:18:10.285931","","","","","","",""
4.0,0.08708204329013824,0.0005584335258607489,"train",5360.0,"2021-11-25 12:18:13.544784","","","","","","",""
4.0,"","","train",5370.0,"2021-11-25 12:19:42.821436",0.5344393509422979,0.4735216272266747,0.9152689283660467,0.5012676342470074,0.35673892024294285,0.3651862362316279,0.24545251784915206
4.0,"","","val",5370.0,"2021-11-25 12:20:06.457047",0.5267888205960802,0.4577565460750565,0.906764312217499,0.4888862661332745,0.346227962315714,0.3515041759901242,0.23491122170849538
5.0,0.07135682553052902,0.0005616763931417894,"train",5380.0,"2021-11-25 12:20:10.442230","","","","","","",""
5.0,0.047181740403175354,0.0005649265372797939,"train",5400.0,"2021-11-25 12:20:14.215115","","","","","","",""
5.0,0.05882281810045242,0.0005681839088295046,"train",5420.0,"2021-11-25 12:20:17.454718","","","","","","",""
5.0,0.059179242700338364,0.0005714484582357109,"train",5440.0,"2021-11-25 12:20:20.665367","","","","","","",""
5.0,0.07182862609624863,0.0005747201358340048,"train",5460.0,"2021-11-25 12:20:23.902751","","","","","","",""
5.0,0.05135369673371315,0.0005779988918515344,"train",5480.0,"2021-11-25 12:20:27.519113","","","","","","",""
5.0,0.08335284143686295,0.0005812846764077623,"train",5500.0,"2021-11-25 12:20:30.703844","","","","","","",""
5.0,0.06555686891078949,0.0005845774395152243,"train",5520.0,"2021-11-25 12:20:33.822200","","","","","","",""
5.0,0.08841344714164734,0.0005878771310802895,"train",5540.0,"2021-11-25 12:20:36.877696","","","","","","",""
5.0,0.0610647089779377,0.0005911837009039229,"train",5560.0,"2021-11-25 12:20:40.333127","","","","","","",""
5.0,0.06533189862966537,0.0005944970986824485,"train",5580.0,"2021-11-25 12:20:43.532023","","","","","","",""
5.0,0.05008738860487938,0.000597817274008315,"train",5600.0,"2021-11-25 12:20:46.789826","","","","","","",""
5.0,0.05452042445540428,0.0006011441763708635,"train",5620.0,"2021-11-25 12:20:50.450256","","","","","","",""
5.0,0.06004742160439491,0.0006044777551570929,"train",5640.0,"2021-11-25 12:20:53.677898","","","","","","",""
5.0,0.07737983763217926,0.000607817959652434,"train",5660.0,"2021-11-25 12:20:56.820701","","","","","","",""
5.0,0.05051429197192192,0.0006111647390415189,"train",5680.0,"2021-11-25 12:20:59.936908","","","","","","",""
5.0,0.05822407454252243,0.0006145180424089525,"train",5700.0,"2021-11-25 12:21:03.393115","","","","","","",""
5.0,0.0920213833451271,0.0006178778187400902,"train",5720.0,"2021-11-25 12:21:06.638582","","","","","","",""
5.0,0.07952259480953217,0.0006212440169218129,"train",5740.0,"2021-11-25 12:21:09.882836","","","","","","",""
5.0,0.06941958516836166,0.0006246165857433027,"train",5760.0,"2021-11-25 12:21:13.123599","","","","","","",""
5.0,0.05925741046667099,0.0006279954738968251,"train",5780.0,"2021-11-25 12:21:16.799974","","","","","","",""
5.0,0.060460712760686874,0.0006313806299785075,"train",5800.0,"2021-11-25 12:21:20.088607","","","","","","",""
5.0,0.0679100900888443,0.0006347720024891209,"train",5820.0,"2021-11-25 12:21:23.333228","","","","","","",""
5.0,0.048909202218055725,0.0006381695398348657,"train",5840.0,"2021-11-25 12:21:26.561218","","","","","","",""
5.0,0.08024945855140686,0.0006415731903281542,"train",5860.0,"2021-11-25 12:21:30.095039","","","","","","",""
5.0,0.05654680356383324,0.0006449829021883979,"train",5880.0,"2021-11-25 12:21:33.203481","","","","","","",""
5.0,0.07281321287155151,0.0006483986235427956,"train",5900.0,"2021-11-25 12:21:36.316267","","","","","","",""
5.0,0.05771037936210632,0.0006518203024271213,"train",5920.0,"2021-11-25 12:21:39.823565","","","","","","",""
5.0,0.05052345618605614,0.0006552478867865169,"train",5940.0,"2021-11-25 12:21:42.931358","","","","","","",""
5.0,0.05952342972159386,0.0006586813244762815,"train",5960.0,"2021-11-25 12:21:46.060273","","","","","","",""
5.0,0.0691399797797203,0.0006621205632626672,"train",5980.0,"2021-11-25 12:21:49.305506","","","","","","",""
5.0,0.06868734210729599,0.0006655655508236717,"train",6000.0,"2021-11-25 12:21:52.839222","","","","","","",""
5.0,0.055658966302871704,0.0006690162347498356,"train",6020.0,"2021-11-25 12:21:55.961051","","","","","","",""
5.0,0.06543365120887756,0.0006724725625450389,"train",6040.0,"2021-11-25 12:21:59.103271","","","","","","",""
5.0,0.08004768192768097,0.0006759344816273003,"train",6060.0,"2021-11-25 12:22:02.275802","","","","","","",""
5.0,0.05671375244855881,0.0006794019393295771,"train",6080.0,"2021-11-25 12:22:05.828995","","","","","","",""
5.0,0.0648735985159874,0.0006828748829005654,"train",6100.0,"2021-11-25 12:22:08.952919","","","","","","",""
5.0,0.04447421059012413,0.0006863532595055041,"train",6120.0,"2021-11-25 12:22:12.063243","","","","","","",""
5.0,0.07426747679710388,0.0006898370162269777,"train",6140.0,"2021-11-25 12:22:15.630385","","","","","","",""
5.0,0.05030656233429909,0.0006933261000657217,"train",6160.0,"2021-11-25 12:22:18.740288","","","","","","",""
5.0,0.07304109632968903,0.000696820457941429,"train",6180.0,"2021-11-25 12:22:21.859261","","","","","","",""
5.0,0.07988383620977402,0.000700320036693557,"train",6200.0,"2021-11-25 12:22:24.970967","","","","","","",""
5.0,0.08149474859237671,0.0007038247830821358,"train",6220.0,"2021-11-25 12:22:28.484502","","","","","","",""
5.0,0.08067692816257477,0.0007073346437885815,"train",6240.0,"2021-11-25 12:22:31.606445","","","","","","",""
5.0,0.06474661827087402,0.000710849565416502,"train",6260.0,"2021-11-25 12:22:34.828336","","","","","","",""
5.0,0.07109454274177551,0.0007143694944925134,"train",6280.0,"2021-11-25 12:22:38.076542","","","","","","",""
5.0,0.09470466524362564,0.0007178943774670524,"train",6300.0,"2021-11-25 12:22:41.706863","","","","","","",""
5.0,0.06076676771044731,0.0007214241607151901,"train",6320.0,"2021-11-25 12:22:44.969446","","","","","","",""
5.0,0.05051267519593239,0.000724958790537449,"train",6340.0,"2021-11-25 12:22:48.229069","","","","","","",""
5.0,0.07282380014657974,0.0007284982131606195,"train",6360.0,"2021-11-25 12:22:51.385959","","","","","","",""
5.0,0.06998530775308609,0.0007320423747385781,"train",6380.0,"2021-11-25 12:22:54.812638","","","","","","",""
5.0,0.05469197779893875,0.0007355912213531054,"train",6400.0,"2021-11-25 12:22:57.949738","","","","","","",""
5.0,0.05036670342087746,0.000739144699014708,"train",6420.0,"2021-11-25 12:23:01.094474","","","","","","",""
5.0,0.08354368805885315,0.0007427027536634401,"train",6440.0,"2021-11-25 12:23:04.658462","","","","","","",""
5.0,"","","train",6444.0,"2021-11-25 12:24:32.791525",0.5364039874845375,0.4842759854859429,0.9153793270326435,0.5284231165771642,0.36964829842011837,0.3843992598764866,0.2541247619057812
5.0,"","","val",6444.0,"2021-11-25 12:24:56.080959",0.5256871158529514,0.4604446674068448,0.9068318048029005,0.508736377052546,0.3573858447821926,0.3684146247795596,0.2415004658901156
6.0,0.054689157754182816,0.0007462653311697235,"train",6460.0,"2021-11-25 12:25:00.979215","","","","","","",""
6.0,0.0704469233751297,0.0007498323773351733,"train",6480.0,"2021-11-25 12:25:04.226490","","","","","","",""
6.0,0.06024595722556114,0.0007534038378934223,"train",6500.0,"2021-11-25 12:25:07.475211","","","","","","",""
6.0,0.06716923415660858,0.0007569796585109453,"train",6520.0,"2021-11-25 12:25:11.217301","","","","","","",""
6.0,0.08178441971540451,0.0007605597847878862,"train",6540.0,"2021-11-25 12:25:14.450822","","","","","","",""
6.0,0.06628862023353577,0.0007641441622588871,"train",6560.0,"2021-11-25 12:25:17.608855","","","","","","",""
6.0,0.05648864060640335,0.0007677327363939143,"train",6580.0,"2021-11-25 12:25:20.646639","","","","","","",""
6.0,0.060315296053886414,0.0007713254525990895,"train",6600.0,"2021-11-25 12:25:24.189721","","","","","","",""
6.0,0.0952717587351799,0.0007749222562175211,"train",6620.0,"2021-11-25 12:25:27.409067","","","","","","",""
6.0,0.07568369805812836,0.000778523092530133,"train",6640.0,"2021-11-25 12:25:30.659105","","","","","","",""
6.0,0.05076633393764496,0.0007821279067564996,"train",6660.0,"2021-11-25 12:25:34.287377","","","","","","",""
6.0,0.07197011262178421,0.0007857366440556786,"train",6680.0,"2021-11-25 12:25:37.549604","","","","","","",""
6.0,0.06647810339927673,0.0007893492495270442,"train",6700.0,"2021-11-25 12:25:40.660900","","","","","","",""
6.0,0.05446181446313858,0.0007929656682111239,"train",6720.0,"2021-11-25 12:25:43.645138","","","","","","",""
6.0,0.08406677842140198,0.0007965858450904332,"train",6740.0,"2021-11-25 12:25:47.037982","","","","","","",""
6.0,0.06502016633749008,0.000800209725090314,"train",6760.0,"2021-11-25 12:25:50.016729","","","","","","",""
6.0,0.06929464638233185,0.0008038372530797706,"train",6780.0,"2021-11-25 12:25:53.003334","","","","","","",""
6.0,0.09250175207853317,0.0008074683738723109,"train",6800.0,"2021-11-25 12:25:55.985894","","","","","","",""
6.0,0.062448687851428986,0.0008111030322267832,"train",6820.0,"2021-11-25 12:25:59.368114","","","","","","",""
6.0,0.08103107661008835,0.0008147411728482187,"train",6840.0,"2021-11-25 12:26:02.522336","","","","","","",""
6.0,0.05302022397518158,0.0008183827403886721,"train",6860.0,"2021-11-25 12:26:05.707868","","","","","","",""
6.0,0.05161293223500252,0.0008220276794480633,"train",6880.0,"2021-11-25 12:26:09.281250","","","","","","",""
6.0,0.06551563739776611,0.0008256759345750203,"train",6900.0,"2021-11-25 12:26:12.458853","","","","","","",""
6.0,0.05430159717798233,0.0008293274502677234,"train",6920.0,"2021-11-25 12:26:15.698339","","","","","","",""
6.0,0.05719998478889465,0.0008329821709747486,"train",6940.0,"2021-11-25 12:26:18.945671","","","","","","",""
6.0,0.09965723007917404,0.0008366400410959136,"train",6960.0,"2021-11-25 12:26:22.625459","","","","","","",""
6.0,0.06676071882247925,0.000840301004983123,"train",6980.0,"2021-11-25 12:26:25.745171","","","","","","",""
6.0,0.0602995902299881,0.0008439650069412147,"train",7000.0,"2021-11-25 12:26:28.904031","","","","","","",""
6.0,0.04969266057014465,0.0008476319912288095,"train",7020.0,"2021-11-25 12:26:31.979175","","","","","","",""
6.0,0.07348258793354034,0.0008513019020591544,"train",7040.0,"2021-11-25 12:26:35.484204","","","","","","",""
6.0,0.1049426719546318,0.0008549746836009771,"train",7060.0,"2021-11-25 12:26:38.561531","","","","","","",""
6.0,0.07996999472379684,0.0008586502799793306,"train",7080.0,"2021-11-25 12:26:41.701815","","","","","","",""
6.0,0.053976330906152725,0.0008623286352764453,"train",7100.0,"2021-11-25 12:26:45.263009","","","","","","",""
6.0,0.04210871085524559,0.0008660096935325802,"train",7120.0,"2021-11-25 12:26:48.444460","","","","","","",""
6.0,0.08532146364450455,0.0008696933987468731,"train",7140.0,"2021-11-25 12:26:51.622482","","","","","","",""
6.0,0.06893263757228851,0.0008733796948781924,"train",7160.0,"2021-11-25 12:26:54.889122","","","","","","",""
6.0,0.07812753319740295,0.0008770685258459915,"train",7180.0,"2021-11-25 12:26:58.488617","","","","","","",""
6.0,0.0648825541138649,0.0008807598355311595,"train",7200.0,"2021-11-25 12:27:01.678487","","","","","","",""
6.0,0.04902380332350731,0.0008844535677768764,"train",7220.0,"2021-11-25 12:27:04.917826","","","","","","",""
6.0,0.06778784841299057,0.0008881496663894681,"train",7240.0,"2021-11-25 12:27:08.163667","","","","","","",""
6.0,0.059454295784235,0.0008918480751392592,"train",7260.0,"2021-11-25 12:27:11.800404","","","","","","",""
6.0,0.05709867551922798,0.00089554873776143,"train",7280.0,"2021-11-25 12:27:15.066387","","","","","","",""
6.0,0.09417607635259628,0.0008992515979568724,"train",7300.0,"2021-11-25 12:27:18.330669","","","","","","",""
6.0,0.06619475036859512,0.0009029565993930457,"train",7320.0,"2021-11-25 12:27:21.547967","","","","","","",""
6.0,0.05614890530705452,0.0009066636857048339,"train",7340.0,"2021-11-25 12:27:25.090952","","","","","","",""
6.0,0.055340155959129333,0.0009103728004954039,"train",7360.0,"2021-11-25 12:27:28.202126","","","","","","",""
6.0,0.06080031022429466,0.0009140838873370617,"train",7380.0,"2021-11-25 12:27:31.292349","","","","","","",""
6.0,0.041807565838098526,0.0009177968897721136,"train",7400.0,"2021-11-25 12:27:34.824936","","","","","","",""
6.0,0.059887081384658813,0.0009215117513137218,"train",7420.0,"2021-11-25 12:27:37.974518","","","","","","",""
6.0,0.07083386182785034,0.0009252284154467663,"train",7440.0,"2021-11-25 12:27:41.187770","","","","","","",""
6.0,0.08560405671596527,0.0009289468256287042,"train",7460.0,"2021-11-25 12:27:44.378145","","","","","","",""
6.0,0.06722983717918396,0.0009326669252904287,"train",7480.0,"2021-11-25 12:27:48.026474","","","","","","",""
6.0,0.05850953608751297,0.0009363886578371307,"train",7500.0,"2021-11-25 12:27:51.219967","","","","","","",""
6.0,"","","train",7518.0,"2021-11-25 12:29:21.944168",0.5461835116059085,0.5135200598480302,0.9252400191882757,0.5325210534729964,0.3838247415409788,0.38627448788054264,0.2653542723451363
6.0,"","","val",7518.0,"2021-11-25 12:29:45.464231",0.5378058680273686,0.4870294067193716,0.9132026989494135,0.5178571585845027,0.37249108943074405,0.3720802850065186,0.2523546301036271
7.0,0.04580456763505936,0.0009401119666491604,"train",7520.0,"2021-11-25 12:29:48.183081","","","","","","",""
7.0,0.07162293046712875,0.0009438367950828869,"train",7540.0,"2021-11-25 12:29:51.439784","","","","","","",""
7.0,0.07637359946966171,0.000947563086471561,"train",7560.0,"2021-11-25 12:29:55.188609","","","","","","",""
7.0,0.05763556435704231,0.0009512907841261783,"train",7580.0,"2021-11-25 12:29:58.442304","","","","","","",""
7.0,0.05596914514899254,0.0009550198313363391,"train",7600.0,"2021-11-25 12:30:01.694410","","","","","","",""
7.0,0.07872066646814346,0.0009587501713711128,"train",7620.0,"2021-11-25 12:30:05.158591","","","","","","",""
7.0,0.05991385877132416,0.0009624817474799023,"train",7640.0,"2021-11-25 12:30:08.127307","","","","","","",""
7.0,0.0940137580037117,0.0009662145028933038,"train",7660.0,"2021-11-25 12:30:11.270536","","","","","","",""
7.0,0.10053709894418716,0.0009699483808239733,"train",7680.0,"2021-11-25 12:30:14.419923","","","","","","",""
7.0,0.0681704580783844,0.0009736833244674895,"train",7700.0,"2021-11-25 12:30:17.980496","","","","","","",""
7.0,0.07631517201662064,0.0009774192770032192,"train",7720.0,"2021-11-25 12:30:21.148080","","","","","","",""
7.0,0.06621389091014862,0.0009811561815951785,"train",7740.0,"2021-11-25 12:30:24.386809","","","","","","",""
7.0,0.05358036234974861,0.0009848939813929015,"train",7760.0,"2021-11-25 12:30:27.631582","","","","","","",""
7.0,0.0808030217885971,0.0009886326195323026,"train",7780.0,"2021-11-25 12:30:31.266635","","","","","","",""
7.0,0.07669500261545181,0.0009923720391365428,"train",7800.0,"2021-11-25 12:30:34.378150","","","","","","",""
7.0,0.06731424480676651,0.000996112183316893,"train",7820.0,"2021-11-25 12:30:37.582894","","","","","","",""
7.0,0.051850825548172,0.0009998529951736029,"train",7840.0,"2021-11-25 12:30:40.698587","","","","","","",""
7.0,0.06296460330486298,0.0010035944177967638,"train",7860.0,"2021-11-25 12:30:44.267724","","","","","","",""
7.0,0.052398327738046646,0.0010073363942671744,"train",7880.0,"2021-11-25 12:30:47.504313","","","","","","",""
7.0,0.06147592514753342,0.0010110788676572094,"train",7900.0,"2021-11-25 12:30:50.749803","","","","","","",""
7.0,0.046128466725349426,0.0010148217810316822,"train",7920.0,"2021-11-25 12:30:54.383976","","","","","","",""
7.0,0.051213353872299194,0.0010185650774487127,"train",7940.0,"2021-11-25 12:30:57.625226","","","","","","",""
7.0,0.06916593015193939,0.0010223086999605951,"train",7960.0,"2021-11-25 12:31:00.798372","","","","","","",""
7.0,0.06525105983018875,0.0010260525916146609,"train",7980.0,"2021-11-25 12:31:04.032297","","","","","","",""
7.0,0.06045129895210266,0.0010297966954541469,"train",8000.0,"2021-11-25 12:31:07.656442","","","","","","",""
7.0,0.049822643399238586,0.001033540954519064,"train",8020.0,"2021-11-25 12:31:10.823849","","","","","","",""
7.0,0.07191474735736847,0.0010372853118470592,"train",8040.0,"2021-11-25 12:31:13.938404","","","","","","",""
7.0,0.07489103823900223,0.0010410297104742857,"train",8060.0,"2021-11-25 12:31:17.059827","","","","","","",""
7.0,0.06761682033538818,0.0010447740934362692,"train",8080.0,"2021-11-25 12:31:20.653088","","","","","","",""
7.0,0.057266030460596085,0.0010485184037687715,"train",8100.0,"2021-11-25 12:31:23.808386","","","","","","",""
7.0,0.0765816792845726,0.0010522625845086615,"train",8120.0,"2021-11-25 12:31:26.945760","","","","","","",""
7.0,0.09214317053556442,0.0010560065786947796,"train",8140.0,"2021-11-25 12:31:30.491895","","","","","","",""
7.0,0.06375458836555481,0.0010597503293688013,"train",8160.0,"2021-11-25 12:31:33.611672","","","","","","",""
7.0,0.07307137548923492,0.001063493779576111,"train",8180.0,"2021-11-25 12:31:36.742969","","","","","","",""
7.0,0.0602765753865242,0.0010672368723666614,"train",8200.0,"2021-11-25 12:31:39.950666","","","","","","",""
7.0,0.06750769168138504,0.0010709795507958426,"train",8220.0,"2021-11-25 12:31:43.578783","","","","","","",""
7.0,0.07263485342264175,0.0010747217579253504,"train",8240.0,"2021-11-25 12:31:46.826814","","","","","","",""
7.0,0.04980165511369705,0.0010784634368240487,"train",8260.0,"2021-11-25 12:31:50.088750","","","","","","",""
7.0,0.049993857741355896,0.0010822045305688382,"train",8280.0,"2021-11-25 12:31:53.345021","","","","","","",""
7.0,0.06002106890082359,0.0010859449822455227,"train",8300.0,"2021-11-25 12:31:56.977891","","","","","","",""
7.0,0.05014682561159134,0.001089684734949672,"train",8320.0,"2021-11-25 12:32:00.184060","","","","","","",""
7.0,0.0607885979115963,0.00109342373178749,"train",8340.0,"2021-11-25 12:32:03.351499","","","","","","",""
7.0,0.0809662938117981,0.0010971619158766821,"train",8360.0,"2021-11-25 12:32:06.855896","","","","","","",""
7.0,0.0527210608124733,0.0011008992303473152,"train",8380.0,"2021-11-25 12:32:09.950947","","","","","","",""
7.0,0.05714539438486099,0.001104635618342687,"train",8400.0,"2021-11-25 12:32:13.040336","","","","","","",""
7.0,0.04856552556157112,0.001108371023020191,"train",8420.0,"2021-11-25 12:32:16.149418","","","","","","",""
7.0,0.06387875229120255,0.0011121053875521787,"train",8440.0,"2021-11-25 12:32:19.660449","","","","","","",""
7.0,0.07457031309604645,0.0011158386551268257,"train",8460.0,"2021-11-25 12:32:22.744543","","","","","","",""
7.0,0.03980238735675812,0.0011195707689489972,"train",8480.0,"2021-11-25 12:32:25.917066","","","","","","",""
7.0,0.05011579766869545,0.0011233016722411097,"train",8500.0,"2021-11-25 12:32:29.156222","","","","","","",""
7.0,0.09662540256977081,0.0011270313082439951,"train",8520.0,"2021-11-25 12:32:32.780323","","","","","","",""
7.0,0.07995481044054031,0.001130759620217767,"train",8540.0,"2021-11-25 12:32:36.009913","","","","","","",""
7.0,0.0583462193608284,0.0011344865514426794,"train",8560.0,"2021-11-25 12:32:39.223918","","","","","","",""
7.0,0.05365334451198578,0.0011382120452199938,"train",8580.0,"2021-11-25 12:32:42.831658","","","","","","",""
7.0,"","","train",8592.0,"2021-11-25 12:34:11.903046",0.5682456523320963,0.5364506398557525,0.9309983686812642,0.5779081612811388,0.4378029082136191,0.45633132835447704,0.29654223318614475
7.0,"","","val",8592.0,"2021-11-25 12:34:35.313970",0.5520120607677143,0.502278765452823,0.9201136112244431,0.5497172855608917,0.40973695327246573,0.4216332079022054,0.27242113078173646
8.0,0.05572950094938278,0.001141936044872839,"train",8600.0,"2021-11-25 12:34:39.016541","","","","","","",""
8.0,0.05073102191090584,0.0011456584937470744,"train",8620.0,"2021-11-25 12:34:42.173822","","","","","","",""
8.0,0.06476511806249619,0.0011493793352121522,"train",8640.0,"2021-11-25 12:34:45.171107","","","","","","",""
8.0,0.07681919634342194,0.0011530985126619784,"train",8660.0,"2021-11-25 12:34:48.908357","","","","","","",""
8.0,0.052055809646844864,0.001156815969515773,"train",8680.0,"2021-11-25 12:34:52.142586","","","","","","",""
8.0,0.053040761500597,0.001160531649218934,"train",8700.0,"2021-11-25 12:34:55.394832","","","","","","",""
8.0,0.05632762983441353,0.001164245495243894,"train",8720.0,"2021-11-25 12:34:58.619859","","","","","","",""
8.0,0.045619428157806396,0.0011679574510909817,"train",8740.0,"2021-11-25 12:35:02.303667","","","","","","",""
8.0,0.08912120014429092,0.0011716674602892828,"train",8760.0,"2021-11-25 12:35:05.544681","","","","","","",""
8.0,0.08480586856603622,0.0011753754663974968,"train",8780.0,"2021-11-25 12:35:08.779247","","","","","","",""
8.0,0.0543745681643486,0.0011790814130047968,"train",8800.0,"2021-11-25 12:35:12.012200","","","","","","",""
8.0,0.07967846840620041,0.001182785243731688,"train",8820.0,"2021-11-25 12:35:15.604618","","","","","","",""
8.0,0.05046607181429863,0.0011864869022308656,"train",8840.0,"2021-11-25 12:35:18.803991","","","","","","",""
8.0,0.044938940554857254,0.0011901863321880693,"train",8860.0,"2021-11-25 12:35:21.954277","","","","","","",""
8.0,0.0555366575717926,0.001193883477322945,"train",8880.0,"2021-11-25 12:35:25.421910","","","","","","",""
8.0,0.06185087561607361,0.0011975782813898961,"train",8900.0,"2021-11-25 12:35:28.686931","","","","","","",""
8.0,0.07193946093320847,0.0012012706881789417,"train",8920.0,"2021-11-25 12:35:31.803677","","","","","","",""
8.0,0.08866606652736664,0.001204960641516572,"train",8940.0,"2021-11-25 12:35:34.993853","","","","","","",""
8.0,0.044608224183321,0.0012086480852666014,"train",8960.0,"2021-11-25 12:35:38.640585","","","","","","",""
8.0,0.05638674646615982,0.0012123329633310235,"train",8980.0,"2021-11-25 12:35:41.798849","","","","","","",""
8.0,0.08054512739181519,0.0012160152196508643,"train",9000.0,"2021-11-25 12:35:45.020161","","","","","","",""
8.0,0.08305104076862335,0.0012196947982070355,"train",9020.0,"2021-11-25 12:35:48.185834","","","","","","",""
8.0,0.05683058127760887,0.0012233716430211856,"train",9040.0,"2021-11-25 12:35:51.780049","","","","","","",""
8.0,0.08244375139474869,0.001227045698156553,"train",9060.0,"2021-11-25 12:35:55.009007","","","","","","",""
8.0,0.04395977407693863,0.0012307169077188148,"train",9080.0,"2021-11-25 12:35:58.186787","","","","","","",""
8.0,0.07538964599370956,0.0012343852158569401,"train",9100.0,"2021-11-25 12:36:01.749103","","","","","","",""
8.0,0.08263134211301804,0.0012380505667640377,"train",9120.0,"2021-11-25 12:36:04.909871","","","","","","",""
8.0,0.08383919298648834,0.0012417129046782046,"train",9140.0,"2021-11-25 12:36:08.020584","","","","","","",""
8.0,0.07221571356058121,0.0012453721738833758,"train",9160.0,"2021-11-25 12:36:11.166620","","","","","","",""
8.0,0.042402371764183044,0.001249028318710172,"train",9180.0,"2021-11-25 12:36:14.737446","","","","","","",""
8.0,0.0535106360912323,0.0012526812835367447,"train",9200.0,"2021-11-25 12:36:17.855804","","","","","","",""
8.0,0.04736432060599327,0.0012563310127896242,"train",9220.0,"2021-11-25 12:36:20.980867","","","","","","",""
8.0,0.05912476405501366,0.0012599774509445645,"train",9240.0,"2021-11-25 12:36:24.135426","","","","","","",""
8.0,0.07447956502437592,0.0012636205425273874,"train",9260.0,"2021-11-25 12:36:27.690553","","","","","","",""
8.0,0.06211540475487709,0.0012672602321148268,"train",9280.0,"2021-11-25 12:36:30.809907","","","","","","",""
8.0,0.07502162456512451,0.0012708964643353732,"train",9300.0,"2021-11-25 12:36:33.907277","","","","","","",""
8.0,0.06381582468748093,0.001274529183870114,"train",9320.0,"2021-11-25 12:36:37.073102","","","","","","",""
8.0,0.031716179102659225,0.0012781583354535748,"train",9340.0,"2021-11-25 12:36:40.623929","","","","","","",""
8.0,0.06435371935367584,0.0012817838638745646,"train",9360.0,"2021-11-25 12:36:43.796020","","","","","","",""
8.0,0.06510908901691437,0.001285405713977009,"train",9380.0,"2021-11-25 12:36:46.930118","","","","","","",""
8.0,0.0531473271548748,0.0012890238306607947,"train",9400.0,"2021-11-25 12:36:50.453037","","","","","","",""
8.0,0.059899162501096725,0.001292638158882606,"train",9420.0,"2021-11-25 12:36:53.663314","","","","","","",""
8.0,0.0565200038254261,0.0012962486436567603,"train",9440.0,"2021-11-25 12:36:56.866231","","","","","","",""
8.0,0.044894054532051086,0.0012998552300560484,"train",9460.0,"2021-11-25 12:37:00.055427","","","","","","",""
8.0,0.07278583943843842,0.0013034578632125668,"train",9480.0,"2021-11-25 12:37:03.688440","","","","","","",""
8.0,0.0681556686758995,0.0013070564883185534,"train",9500.0,"2021-11-25 12:37:06.930188","","","","","","",""
8.0,0.04829704761505127,0.001310651050627223,"train",9520.0,"2021-11-25 12:37:10.155964","","","","","","",""
8.0,0.06304142624139786,0.001314241495453598,"train",9540.0,"2021-11-25 12:37:13.275758","","","","","","",""
8.0,0.05871175229549408,0.00131782776817534,"train",9560.0,"2021-11-25 12:37:16.782768","","","","","","",""
8.0,0.050964005291461945,0.0013214098142335837,"train",9580.0,"2021-11-25 12:37:19.904176","","","","","","",""
8.0,0.07116743177175522,0.001324987579133764,"train",9600.0,"2021-11-25 12:37:23.106475","","","","","","",""
8.0,0.04843095317482948,0.0013285610084464463,"train",9620.0,"2021-11-25 12:37:26.725287","","","","","","",""
8.0,0.06826275587081909,0.001332130047808155,"train",9640.0,"2021-11-25 12:37:29.958445","","","","","","",""
8.0,0.055441390722990036,0.001335694642922199,"train",9660.0,"2021-11-25 12:37:33.169556","","","","","","",""
8.0,"","","train",9666.0,"2021-11-25 12:39:01.434571",0.5740376919158845,0.5596851697176224,0.932560998865474,0.5957334080647742,0.4662367531602406,0.47801186079825897,0.31254133279344865
8.0,"","","val",9666.0,"2021-11-25 12:39:24.804695",0.5502145425026093,0.5215273318419938,0.9196111532041508,0.5641249916785409,0.4347242184717074,0.44419542022753,0.28232831371668493
9.0,0.05528787523508072,0.0013392547395594985,"train",9680.0,"2021-11-25 12:39:29.439719","","","","","","",""
9.0,0.06120191514492035,0.001342810283559412,"train",9700.0,"2021-11-25 12:39:33.041796","","","","","","",""
9.0,0.04761754348874092,0.0013463612208305564,"train",9720.0,"2021-11-25 12:39:36.165053","","","","","","",""
9.0,0.06599695980548859,0.0013499074973516321,"train",9740.0,"2021-11-25 12:39:39.399321","","","","","","",""
9.0,0.043815191835165024,0.0013534490591722464,"train",9760.0,"2021-11-25 12:39:42.655425","","","","","","",""
9.0,0.04666780307888985,0.0013569858524137305,"train",9780.0,"2021-11-25 12:39:46.279415","","","","","","",""
9.0,0.06101727858185768,0.001360517823269962,"train",9800.0,"2021-11-25 12:39:49.500473","","","","","","",""
9.0,0.0383441261947155,0.0013640449180081834,"train",9820.0,"2021-11-25 12:39:52.744476","","","","","","",""
9.0,0.060595542192459106,0.0013675670829698173,"train",9840.0,"2021-11-25 12:39:56.348417","","","","","","",""
9.0,0.055555667728185654,0.0013710842645712853,"train",9860.0,"2021-11-25 12:39:59.535665","","","","","","",""
9.0,0.07570525258779526,0.0013745964093048219,"train",9880.0,"2021-11-25 12:40:02.745258","","","","","","",""
9.0,0.07578378915786743,0.0013781034637392886,"train",9900.0,"2021-11-25 12:40:06.013748","","","","","","",""
9.0,0.0442381277680397,0.0013816053745209864,"train",9920.0,"2021-11-25 12:40:09.655952","","","","","","",""
9.0,0.06695698201656342,0.0013851020883744697,"train",9940.0,"2021-11-25 12:40:12.925848","","","","","","",""
9.0,0.053352613002061844,0.001388593552103353,"train",9960.0,"2021-11-25 12:40:16.189407","","","","","","",""
9.0,0.056915346533060074,0.0013920797125911233,"train",9980.0,"2021-11-25 12:40:19.447277","","","","","","",""
9.0,0.07824569940567017,0.001395560516801947,"train",10000.0,"2021-11-25 12:40:23.086241","","","","","","",""
9.0,0.04958997666835785,0.0013990359117814774,"train",10020.0,"2021-11-25 12:40:26.329599","","","","","","",""
9.0,0.0819876492023468,0.0014025058446576583,"train",10040.0,"2021-11-25 12:40:29.562584","","","","","","",""
9.0,0.060251303017139435,0.0014059702626415317,"train",10060.0,"2021-11-25 12:40:33.207923","","","","","","",""
9.0,0.07357140630483627,0.0014094291130280377,"train",10080.0,"2021-11-25 12:40:36.332417","","","","","","",""
9.0,0.061379916965961456,0.0014128823431968183,"train",10100.0,"2021-11-25 12:40:39.473520","","","","","","",""
9.0,0.060865066945552826,0.001416329900613017,"train",10120.0,"2021-11-25 12:40:42.663268","","","","","","",""
9.0,0.05420459061861038,0.0014197717328280782,"train",10140.0,"2021-11-25 12:40:46.233029","","","","","","",""
9.0,0.08052758127450943,0.0014232077874805457,"train",10160.0,"2021-11-25 12:40:49.389101","","","","","","",""
9.0,0.049629148095846176,0.0014266380122968589,"train",10180.0,"2021-11-25 12:40:52.511447","","","","","","",""
9.0,0.05928610637784004,0.0014300623550921468,"train",10200.0,"2021-11-25 12:40:55.681003","","","","","","",""
9.0,0.055420152842998505,0.0014334807637710243,"train",10220.0,"2021-11-25 12:40:59.212714","","","","","","",""
9.0,0.07961086183786392,0.0014368931863283831,"train",10240.0,"2021-11-25 12:41:02.390570","","","","","","",""
9.0,0.08115161955356598,0.0014402995708501826,"train",10260.0,"2021-11-25 12:41:05.580339","","","","","","",""
9.0,0.056784071028232574,0.0014436998655142422,"train",10280.0,"2021-11-25 12:41:08.781814","","","","","","",""
9.0,0.06408308446407318,0.0014470940185910258,"train",10300.0,"2021-11-25 12:41:12.407782","","","","","","",""
9.0,0.04175889492034912,0.001450481978444431,"train",10320.0,"2021-11-25 12:41:15.514587","","","","","","",""
9.0,0.04263585805892944,0.0014538636935325763,"train",10340.0,"2021-11-25 12:41:18.728854","","","","","","",""
9.0,0.07973077148199081,0.0014572391124085817,"train",10360.0,"2021-11-25 12:41:22.287995","","","","","","",""
9.0,0.05716291815042496,0.0014606081837213525,"train",10380.0,"2021-11-25 12:41:25.541611","","","","","","",""
9.0,0.05964570492506027,0.0014639708562163639,"train",10400.0,"2021-11-25 12:41:28.798537","","","","","","",""
9.0,0.0616617351770401,0.001467327078736435,"train",10420.0,"2021-11-25 12:41:32.026547","","","","","","",""
9.0,0.05989139899611473,0.0014706768002225108,"train",10440.0,"2021-11-25 12:41:35.615099","","","","","","",""
9.0,0.05319694057106972,0.0014740199697144392,"train",10460.0,"2021-11-25 12:41:38.824947","","","","","","",""
9.0,0.07130525261163712,0.0014773565363517442,"train",10480.0,"2021-11-25 12:41:42.053151","","","","","","",""
9.0,0.05478077754378319,0.0014806864493744007,"train",10500.0,"2021-11-25 12:41:45.302996","","","","","","",""
9.0,0.05575517565011978,0.0014840096581236072,"train",10520.0,"2021-11-25 12:41:48.924841","","","","","","",""
9.0,0.04265742748975754,0.001487326112042556,"train",10540.0,"2021-11-25 12:41:52.144393","","","","","","",""
9.0,0.04554900899529457,0.0014906357606772013,"train",10560.0,"2021-11-25 12:41:55.384902","","","","","","",""
9.0,0.04182199761271477,0.0014939385536770291,"train",10580.0,"2021-11-25 12:41:59.021997","","","","","","",""
9.0,0.05687365308403969,0.0014972344407958218,"train",10600.0,"2021-11-25 12:42:02.262583","","","","","","",""
9.0,0.05352335050702095,0.0015005233718924213,"train",10620.0,"2021-11-25 12:42:05.463151","","","","","","",""
9.0,0.06401149928569794,0.0015038052969314946,"train",10640.0,"2021-11-25 12:42:08.679635","","","","","","",""
9.0,0.07012459635734558,0.0015070801659842939,"train",10660.0,"2021-11-25 12:42:12.281695","","","","","","",""
9.0,0.05332299694418907,0.001510347929229414,"train",10680.0,"2021-11-25 12:42:15.488357","","","","","","",""
9.0,0.05343829095363617,0.0015136085369535537,"train",10700.0,"2021-11-25 12:42:18.761636","","","","","","",""
9.0,0.04990024119615555,0.0015168619395522708,"train",10720.0,"2021-11-25 12:42:22.017932","","","","","","",""
9.0,0.07375921308994293,0.0015201080875307349,"train",10740.0,"2021-11-25 12:42:25.645502","","","","","","",""
9.0,"","","train",10740.0,"2021-11-25 12:43:52.730635",0.5827111984282908,0.5764825121860694,0.9410376041588268,0.5968036413967154,0.45225861873201584,0.475825336738269,0.31266630576870597
9.0,"","","val",10740.0,"2021-11-25 12:44:16.052501",0.5621593412965326,0.5331374780167836,0.9273186339180062,0.5693344465402752,0.43029968039939664,0.4476200753308772,0.28876635867673023
10.0,0.05853738635778427,0.0015233469315044834,"train",10760.0,"2021-11-25 12:44:21.623221","","","","","","",""
10.0,0.06245659664273262,0.0015265784222001709,"train",10780.0,"2021-11-25 12:44:24.877495","","","","","","",""
10.0,0.04988684877753258,0.0015298025104563185,"train",10800.0,"2021-11-25 12:44:28.560426","","","","","","",""
10.0,0.052880819886922836,0.001533019147224064,"train",10820.0,"2021-11-25 12:44:31.763819","","","","","","",""
10.0,0.0429486408829689,0.0015362282835679054,"train",10840.0,"2021-11-25 12:44:34.870858","","","","","","",""
10.0,0.05925437808036804,0.0015394298706664469,"train",10860.0,"2021-11-25 12:44:38.101182","","","","","","",""
10.0,0.0658961832523346,0.001542623859813141,"train",10880.0,"2021-11-25 12:44:41.724239","","","","","","",""
10.0,0.04063792526721954,0.00154581020241703,"train",10900.0,"2021-11-25 12:44:44.958589","","","","","","",""
10.0,0.05366886407136917,0.0015489888500034858,"train",10920.0,"2021-11-25 12:44:48.185120","","","","","","",""
10.0,0.09298302978277206,0.0015521597542149444,"train",10940.0,"2021-11-25 12:44:51.446803","","","","","","",""
10.0,0.05238848552107811,0.0015553228668116455,"train",10960.0,"2021-11-25 12:44:55.086809","","","","","","",""
10.0,0.06795255839824677,0.0015584781396723642,"train",10980.0,"2021-11-25 12:44:58.268647","","","","","","",""
10.0,0.055745091289281845,0.0015616255247951432,"train",11000.0,"2021-11-25 12:45:01.472835","","","","","","",""
10.0,0.05120573937892914,0.0015647649742980233,"train",11020.0,"2021-11-25 12:45:05.046175","","","","","","",""
10.0,0.06385957449674606,0.0015678964404197727,"train",11040.0,"2021-11-25 12:45:08.166885","","","","","","",""
10.0,0.07530435174703598,0.0015710198755206112,"train",11060.0,"2021-11-25 12:45:11.257737","","","","","","",""
10.0,0.05524302273988724,0.0015741352320829379,"train",11080.0,"2021-11-25 12:45:14.355418","","","","","","",""
10.0,0.04830262064933777,0.0015772424627120527,"train",11100.0,"2021-11-25 12:45:18.005458","","","","","","",""
10.0,0.0604495070874691,0.0015803415201368761,"train",11120.0,"2021-11-25 12:45:21.285797","","","","","","",""
10.0,0.038947511464357376,0.001583432357210671,"train",11140.0,"2021-11-25 12:45:24.495348","","","","","","",""
10.0,0.0675230622291565,0.001586514926911758,"train",11160.0,"2021-11-25 12:45:27.652555","","","","","","",""
10.0,0.07712694257497787,0.0015895891823442313,"train",11180.0,"2021-11-25 12:45:31.204757","","","","","","",""
10.0,0.05632709711790085,0.0015926550767386717,"train",11200.0,"2021-11-25 12:45:34.276855","","","","","","",""
10.0,0.05825383961200714,0.0015957125634528599,"train",11220.0,"2021-11-25 12:45:37.330718","","","","","","",""
10.0,0.069302499294281,0.0015987615959724836,"train",11240.0,"2021-11-25 12:45:40.381981","","","","","","",""
10.0,0.050331924110651016,0.0016018021279118457,"train",11260.0,"2021-11-25 12:45:43.829416","","","","","","",""
10.0,0.07172495126724243,0.0016048341130145728,"train",11280.0,"2021-11-25 12:45:46.878554","","","","","","",""
10.0,0.06217679753899574,0.0016078575051543145,"train",11300.0,"2021-11-25 12:45:49.990083","","","","","","",""
10.0,0.06302867829799652,0.0016108722583354478,"train",11320.0,"2021-11-25 12:45:53.518861","","","","","","",""
10.0,0.05417671799659729,0.0016138783266937777,"train",11340.0,"2021-11-25 12:45:56.607836","","","","","","",""
10.0,0.07431753724813461,0.0016168756644972322,"train",11360.0,"2021-11-25 12:45:59.690350","","","","","","",""
10.0,0.08437605947256088,0.0016198642261465587,"train",11380.0,"2021-11-25 12:46:02.802116","","","","","","",""
10.0,0.06252354383468628,0.0016228439661760208,"train",11400.0,"2021-11-25 12:46:06.298363","","","","","","",""
10.0,0.08905132114887238,0.001625814839254086,"train",11420.0,"2021-11-25 12:46:09.401402","","","","","","",""
10.0,0.04773332551121712,0.0016287768001841164,"train",11440.0,"2021-11-25 12:46:12.503153","","","","","","",""
10.0,0.06707560271024704,0.001631729803905059,"train",11460.0,"2021-11-25 12:46:15.630828","","","","","","",""
10.0,0.0799814984202385,0.0016346738054921273,"train",11480.0,"2021-11-25 12:46:19.148232","","","","","","",""
10.0,0.05578715726733208,0.001637608760157486,"train",11500.0,"2021-11-25 12:46:22.263520","","","","","","",""
10.0,0.05959756672382355,0.0016405346232509356,"train",11520.0,"2021-11-25 12:46:25.377129","","","","","","",""
10.0,0.07973267138004303,0.0016434513502605861,"train",11540.0,"2021-11-25 12:46:28.916174","","","","","","",""
10.0,0.061332818120718,0.0016463588968135383,"train",11560.0,"2021-11-25 12:46:31.996605","","","","","","",""
10.0,0.06334666907787323,0.0016492572186765577,"train",11580.0,"2021-11-25 12:46:34.976425","","","","","","",""
10.0,0.04897099733352661,0.001652146271756747,"train",11600.0,"2021-11-25 12:46:37.957576","","","","","","",""
10.0,0.04811376333236694,0.0016550260121022172,"train",11620.0,"2021-11-25 12:46:41.436366","","","","","","",""
10.0,0.04698910191655159,0.0016578963959027562,"train",11640.0,"2021-11-25 12:46:44.566010","","","","","","",""
10.0,0.05139853432774544,0.001660757379490496,"train",11660.0,"2021-11-25 12:46:47.618702","","","","","","",""
10.0,0.05451243743300438,0.0016636089193405761,"train",11680.0,"2021-11-25 12:46:50.666879","","","","","","",""
10.0,0.05580276995897293,0.0016664509720718049,"train",11700.0,"2021-11-25 12:46:54.160643","","","","","","",""
10.0,0.07306792587041855,0.0016692834944473224,"train",11720.0,"2021-11-25 12:46:57.424780","","","","","","",""
10.0,0.06137649714946747,0.0016721064433752554,"train",11740.0,"2021-11-25 12:47:00.704785","","","","","","",""
10.0,0.07102898508310318,0.0016749197759093734,"train",11760.0,"2021-11-25 12:47:03.902282","","","","","","",""
10.0,0.07199705392122269,0.0016777234492497436,"train",11780.0,"2021-11-25 12:47:07.501146","","","","","","",""
10.0,0.043907828629016876,0.0016805174207433808,"train",11800.0,"2021-11-25 12:47:10.664028","","","","","","",""
10.0,"","","train",11814.0,"2021-11-25 12:48:39.648358",0.5885760023284581,0.5895671821774321,0.9450236026610077,0.5916346967661588,0.47435276477829674,0.4847469619388121,0.32173653269318575
10.0,"","","val",11814.0,"2021-11-25 12:49:03.148165",0.5632610460396613,0.5450854556099551,0.930202625903034,0.5598747182630972,0.4445451748299786,0.45225977120670113,0.28988779142011595
11.0,0.05373312160372734,0.0016833016478848956,"train",11820.0,"2021-11-25 12:49:06.456207","","","","","","",""
11.0,0.06214826926589012,0.0016860760883171426,"train",11840.0,"2021-11-25 12:49:10.140165","","","","","","",""
11.0,0.041108958423137665,0.001688840699831864,"train",11860.0,"2021-11-25 12:49:13.404278","","","","","","",""
11.0,0.07109939306974411,0.0016915954403703313,"train",11880.0,"2021-11-25 12:49:16.620415","","","","","","",""
11.0,0.07745669782161713,0.0016943402680239862,"train",11900.0,"2021-11-25 12:49:19.779681","","","","","","",""
11.0,0.046356022357940674,0.0016970751410350774,"train",11920.0,"2021-11-25 12:49:23.469190","","","","","","",""
11.0,0.06814122200012207,0.001699800017797296,"train",11940.0,"2021-11-25 12:49:26.722115","","","","","","",""
11.0,0.06688499450683594,0.0017025148568564086,"train",11960.0,"2021-11-25 12:49:29.966730","","","","","","",""
11.0,0.0636957660317421,0.001705219616910888,"train",11980.0,"2021-11-25 12:49:33.083614","","","","","","",""
11.0,0.04886689782142639,0.001707914256812541,"train",12000.0,"2021-11-25 12:49:36.601789","","","","","","",""
11.0,0.08294672518968582,0.0017105987355671352,"train",12020.0,"2021-11-25 12:49:39.704183","","","","","","",""
11.0,0.08161194622516632,0.0017132730123350227,"train",12040.0,"2021-11-25 12:49:42.797123","","","","","","",""
11.0,0.07081995904445648,0.00171593704643176,"train",12060.0,"2021-11-25 12:49:46.261393","","","","","","",""
11.0,0.05347546935081482,0.0017185907973287285,"train",12080.0,"2021-11-25 12:49:49.338202","","","","","","",""
11.0,0.06717665493488312,0.0017212342246537506,"train",12100.0,"2021-11-25 12:49:52.453508","","","","","","",""
11.0,0.07326674461364746,0.0017238672881917032,"train",12120.0,"2021-11-25 12:49:55.587207","","","","","","",""
11.0,0.06168929487466812,0.001726489947885131,"train",12140.0,"2021-11-25 12:49:59.149741","","","","","","",""
11.0,0.038330867886543274,0.0017291021638348543,"train",12160.0,"2021-11-25 12:50:02.291446","","","","","","",""
11.0,0.04435379058122635,0.0017317038963005765,"train",12180.0,"2021-11-25 12:50:05.526036","","","","","","",""
11.0,0.044446881860494614,0.00173429510570149,"train",12200.0,"2021-11-25 12:50:08.683592","","","","","","",""
11.0,0.051990341395139694,0.0017368757526168759,"train",12220.0,"2021-11-25 12:50:12.181869","","","","","","",""
11.0,0.07288732379674911,0.0017394457977867057,"train",12240.0,"2021-11-25 12:50:15.267077","","","","","","",""
11.0,0.053061727434396744,0.0017420052021122378,"train",12260.0,"2021-11-25 12:50:18.346349","","","","","","",""
11.0,0.04468954727053642,0.0017445539266566128,"train",12280.0,"2021-11-25 12:50:21.847047","","","","","","",""
11.0,0.050679273903369904,0.001747091932645445,"train",12300.0,"2021-11-25 12:50:24.930113","","","","","","",""
11.0,0.04735255241394043,0.0017496191814674125,"train",12320.0,"2021-11-25 12:50:28.092954","","","","","","",""
11.0,0.0672980546951294,0.001752135634674846,"train",12340.0,"2021-11-25 12:50:31.280922","","","","","","",""
11.0,0.058273207396268845,0.0017546412539843118,"train",12360.0,"2021-11-25 12:50:34.905746","","","","","","",""
11.0,0.0791284590959549,0.001757136001277194,"train",12380.0,"2021-11-25 12:50:38.141946","","","","","","",""
11.0,0.036787111312150955,0.001759619838600278,"train",12400.0,"2021-11-25 12:50:41.348770","","","","","","",""
11.0,0.05572253838181496,0.0017620927281663229,"train",12420.0,"2021-11-25 12:50:44.434636","","","","","","",""
11.0,0.07677804678678513,0.0017645546323546398,"train",12440.0,"2021-11-25 12:50:48.066951","","","","","","",""
11.0,0.052375443279743195,0.0017670055137116636,"train",12460.0,"2021-11-25 12:50:51.289944","","","","","","",""
11.0,0.05492199584841728,0.0017694453349515209,"train",12480.0,"2021-11-25 12:50:54.515107","","","","","","",""
11.0,0.05616797134280205,0.0017718740589566,"train",12500.0,"2021-11-25 12:50:58.111879","","","","","","",""
11.0,0.05640661343932152,0.0017742916487781134,"train",12520.0,"2021-11-25 12:51:01.184978","","","","","","",""
11.0,0.05374220013618469,0.0017766980676366608,"train",12540.0,"2021-11-25 12:51:04.321077","","","","","","",""
11.0,0.044079024344682693,0.001779093278922789,"train",12560.0,"2021-11-25 12:51:07.526187","","","","","","",""
11.0,0.05320307984948158,0.001781477246197548,"train",12580.0,"2021-11-25 12:51:11.092372","","","","","","",""
11.0,0.05990362539887428,0.0017838499331930462,"train",12600.0,"2021-11-25 12:51:14.147666","","","","","","",""
11.0,0.07167986035346985,0.001786211303813001,"train",12620.0,"2021-11-25 12:51:17.205186","","","","","","",""
11.0,0.05751413851976395,0.0017885613221332894,"train",12640.0,"2021-11-25 12:51:20.233293","","","","","","",""
11.0,0.0562179870903492,0.0017908999524024931,"train",12660.0,"2021-11-25 12:51:23.559775","","","","","","",""
11.0,0.04923555999994278,0.0017932271590424438,"train",12680.0,"2021-11-25 12:51:26.647261","","","","","","",""
11.0,0.0679440125823021,0.0017955429066487635,"train",12700.0,"2021-11-25 12:51:29.637081","","","","","","",""
11.0,0.07156562805175781,0.0017978471599914025,"train",12720.0,"2021-11-25 12:51:32.764925","","","","","","",""
11.0,0.05701346695423126,0.0018001398840151778,"train",12740.0,"2021-11-25 12:51:36.362938","","","","","","",""
11.0,0.055836327373981476,0.0018024210438403031,"train",12760.0,"2021-11-25 12:51:39.547441","","","","","","",""
11.0,0.06033902242779732,0.0018046906047629228,"train",12780.0,"2021-11-25 12:51:42.685857","","","","","","",""
11.0,0.040968768298625946,0.0018069485322556372,"train",12800.0,"2021-11-25 12:51:46.162215","","","","","","",""
11.0,0.09404861181974411,0.001809194791968029,"train",12820.0,"2021-11-25 12:51:49.237532","","","","","","",""
11.0,0.08263948559761047,0.0018114293497271863,"train",12840.0,"2021-11-25 12:51:52.440126","","","","","","",""
11.0,0.05126489698886871,0.0018136521715382218,"train",12860.0,"2021-11-25 12:51:55.694544","","","","","","",""
11.0,0.05042049661278725,0.0018158632235847892,"train",12880.0,"2021-11-25 12:51:59.325356","","","","","","",""
11.0,"","","train",12888.0,"2021-11-25 12:53:30.270930",0.600873171796551,0.617104754229232,0.9495318604396096,0.6178369346385201,0.5002914007312775,0.5227299524396609,0.34607427803630186
11.0,"","","val",12888.0,"2021-11-25 12:53:53.878335",0.5721326684448568,0.5624275967114418,0.9353323099167759,0.5797734215253988,0.45927626044627406,0.4771533839792844,0.3028165821333086
12.0,0.056849535554647446,0.0018180624722295999,"train",12900.0,"2021-11-25 12:53:58.171259","","","","","","",""
12.0,0.06402574479579926,0.001820249884014933,"train",12920.0,"2021-11-25 12:54:01.335567","","","","","","",""
12.0,0.04550209268927574,0.001822425425663144,"train",12940.0,"2021-11-25 12:54:04.499664","","","","","","",""
12.0,0.06567174941301346,0.0018245890640771725,"train",12960.0,"2021-11-25 12:54:08.142972","","","","","","",""
12.0,0.04580291733145714,0.0018267407663410452,"train",12980.0,"2021-11-25 12:54:11.327099","","","","","","",""
12.0,0.03954010456800461,0.0018288804997203755,"train",13000.0,"2021-11-25 12:54:14.465878","","","","","","",""
12.0,0.06387237459421158,0.0018310082316628634,"train",13020.0,"2021-11-25 12:54:18.021726","","","","","","",""
12.0,0.06796331703662872,0.0018331239297987893,"train",13040.0,"2021-11-25 12:54:21.184301","","","","","","",""
12.0,0.07072556018829346,0.0018352275619415066,"train",13060.0,"2021-11-25 12:54:24.388656","","","","","","",""
12.0,0.05577961355447769,0.0018373190960879326,"train",13080.0,"2021-11-25 12:54:27.589152","","","","","","",""
12.0,0.07077739387750626,0.0018393985004190336,"train",13100.0,"2021-11-25 12:54:31.153476","","","","","","",""
12.0,0.04846527799963951,0.00184146574330031,"train",13120.0,"2021-11-25 12:54:34.312682","","","","","","",""
12.0,0.07969744503498077,0.001843520793282278,"train",13140.0,"2021-11-25 12:54:37.478786","","","","","","",""
12.0,0.04026375338435173,0.0018455636191009464,"train",13160.0,"2021-11-25 12:54:40.655712","","","","","","",""
12.0,0.06236427649855614,0.001847594189678294,"train",13180.0,"2021-11-25 12:54:44.200540","","","","","","",""
12.0,0.04474713280797005,0.0018496124741227415,"train",13200.0,"2021-11-25 12:54:47.323722","","","","","","",""
12.0,0.04773533344268799,0.001851618441729622,"train",13220.0,"2021-11-25 12:54:50.453875","","","","","","",""
12.0,0.06052318215370178,0.0018536120619816467,"train",13240.0,"2021-11-25 12:54:53.973640","","","","","","",""
12.0,0.05258474126458168,0.0018555933045493712,"train",13260.0,"2021-11-25 12:54:57.087600","","","","","","",""
12.0,0.055377475917339325,0.0018575621392916554,"train",13280.0,"2021-11-25 12:55:00.214722","","","","","","",""
12.0,0.05577719584107399,0.0018595185362561225,"train",13300.0,"2021-11-25 12:55:03.375820","","","","","","",""
12.0,0.06200587376952171,0.0018614624656796155,"train",13320.0,"2021-11-25 12:55:06.995306","","","","","","",""
12.0,0.05332159250974655,0.0018633938979886484,"train",13340.0,"2021-11-25 12:55:10.273403","","","","","","",""
12.0,0.06553208082914352,0.0018653128037998568,"train",13360.0,"2021-11-25 12:55:13.544636","","","","","","",""
12.0,0.06115817278623581,0.0018672191539204459,"train",13380.0,"2021-11-25 12:55:16.797027","","","","","","",""
12.0,0.05079146847128868,0.0018691129193486335,"train",13400.0,"2021-11-25 12:55:20.451111","","","","","","",""
12.0,0.05288974195718765,0.0018709940712740908,"train",13420.0,"2021-11-25 12:55:23.697122","","","","","","",""
12.0,0.08075135946273804,0.0018728625810783823,"train",13440.0,"2021-11-25 12:55:26.952976","","","","","","",""
12.0,0.04703244939446449,0.0018747184203353996,"train",13460.0,"2021-11-25 12:55:30.663300","","","","","","",""
12.0,0.03998547047376633,0.0018765615608117947,"train",13480.0,"2021-11-25 12:55:33.917020","","","","","","",""
12.0,0.06909114122390747,0.0018783919744674096,"train",13500.0,"2021-11-25 12:55:37.155981","","","","","","",""
12.0,0.04633088409900665,0.0018802096334557027,"train",13520.0,"2021-11-25 12:55:40.382128","","","","","","",""
12.0,0.03548876941204071,0.0018820145101241712,"train",13540.0,"2021-11-25 12:55:43.912770","","","","","","",""
12.0,0.08441996574401855,0.0018838065770147745,"train",13560.0,"2021-11-25 12:55:47.166164","","","","","","",""
12.0,0.05302635580301285,0.0018855858068643496,"train",13580.0,"2021-11-25 12:55:50.408901","","","","","","",""
12.0,0.06455402821302414,0.001887352172605026,"train",13600.0,"2021-11-25 12:55:53.685610","","","","","","",""
12.0,0.08504819869995117,0.0018891056473646398,"train",13620.0,"2021-11-25 12:55:57.364138","","","","","","",""
12.0,0.03831532597541809,0.0018908462044671395,"train",13640.0,"2021-11-25 12:56:00.655957","","","","","","",""
12.0,0.040110986679792404,0.001892573817432993,"train",13660.0,"2021-11-25 12:56:03.914668","","","","","","",""
12.0,0.06046607717871666,0.0018942884599795914,"train",13680.0,"2021-11-25 12:56:07.052331","","","","","","",""
12.0,0.06773539632558823,0.001895990106021648,"train",13700.0,"2021-11-25 12:56:10.585546","","","","","","",""
12.0,0.08487698435783386,0.0018976787296715943,"train",13720.0,"2021-11-25 12:56:13.708315","","","","","","",""
12.0,0.049674976617097855,0.0018993543052399757,"train",13740.0,"2021-11-25 12:56:16.831013","","","","","","",""
12.0,0.07036878913640976,0.0019010168072358413,"train",13760.0,"2021-11-25 12:56:20.322684","","","","","","",""
12.0,0.04668129235506058,0.0019026662103671305,"train",13780.0,"2021-11-25 12:56:23.512053","","","","","","",""
12.0,0.08060140162706375,0.0019043024895410605,"train",13800.0,"2021-11-25 12:56:26.645116","","","","","","",""
12.0,0.0773724615573883,0.001905925619864506,"train",13820.0,"2021-11-25 12:56:29.762823","","","","","","",""
12.0,0.07027822732925415,0.001907535576644378,"train",13840.0,"2021-11-25 12:56:33.265479","","","","","","",""
12.0,0.04544152691960335,0.0019091323353880008,"train",13860.0,"2021-11-25 12:56:36.379180","","","","","","",""
12.0,0.05235045775771141,0.0019107158718034828,"train",13880.0,"2021-11-25 12:56:39.468631","","","","","","",""
12.0,0.04356803372502327,0.001912286161800088,"train",13900.0,"2021-11-25 12:56:42.579201","","","","","","",""
12.0,0.09038013219833374,0.0019138431814886008,"train",13920.0,"2021-11-25 12:56:46.213694","","","","","","",""
12.0,0.07997122406959534,0.0019153869071816896,"train",13940.0,"2021-11-25 12:56:49.447555","","","","","","",""
12.0,0.04747747629880905,0.0019169173153942693,"train",13960.0,"2021-11-25 12:56:52.632185","","","","","","",""
12.0,"","","train",13962.0,"2021-11-25 12:58:21.062238",0.5992723568362075,0.6227569398168489,0.9486685480915582,0.6400750780292084,0.49814276577479766,0.5151016450624455,0.34324078288716
12.0,"","","val",13962.0,"2021-11-25 12:58:44.708507",0.5678998028528355,0.5676349483333769,0.93324233087542,0.599321528090805,0.4654187165428182,0.48114947275659864,0.30739089149295945
13.0,0.05772293731570244,0.0019184343828438557,"train",13980.0,"2021-11-25 12:58:50.442136","","","","","","",""
13.0,0.04475340619683266,0.0019199380864509208,"train",14000.0,"2021-11-25 12:58:53.665034","","","","","","",""
13.0,0.051941920071840286,0.0019214284033392457,"train",14020.0,"2021-11-25 12:58:56.831255","","","","","","",""
13.0,0.08484980463981628,0.0019229053108362649,"train",14040.0,"2021-11-25 12:58:59.939097","","","","","","",""
13.0,0.06287012994289398,0.0019243687864734145,"train",14060.0,"2021-11-25 12:59:03.489562","","","","","","",""
13.0,0.06356364488601685,0.0019258188079864732,"train",14080.0,"2021-11-25 12:59:06.611580","","","","","","",""
13.0,0.0682339295744896,0.0019272553533158999,"train",14100.0,"2021-11-25 12:59:09.707880","","","","","","",""
13.0,0.04372796416282654,0.0019286784006071697,"train",14120.0,"2021-11-25 12:59:12.940304","","","","","","",""
13.0,0.045491430908441544,0.0019300879282111083,"train",14140.0,"2021-11-25 12:59:16.586290","","","","","","",""
13.0,0.04503389820456505,0.0019314839146842185,"train",14160.0,"2021-11-25 12:59:19.861239","","","","","","",""
13.0,0.045440685003995895,0.0019328663387890076,"train",14180.0,"2021-11-25 12:59:23.154548","","","","","","",""
13.0,0.053601689636707306,0.0019342351794943119,"train",14200.0,"2021-11-25 12:59:26.426372","","","","","","",""
13.0,0.0679825022816658,0.0019355904159756138,"train",14220.0,"2021-11-25 12:59:30.090834","","","","","","",""
13.0,0.052892860025167465,0.0019369320276153613,"train",14240.0,"2021-11-25 12:59:33.368651","","","","","","",""
13.0,0.04472703859210014,0.00193825999400328,"train",14260.0,"2021-11-25 12:59:36.579473","","","","","","",""
13.0,0.04539110139012337,0.0019395742949366843,"train",14280.0,"2021-11-25 12:59:40.148042","","","","","","",""
13.0,0.04547391086816788,0.0019408749104207845,"train",14300.0,"2021-11-25 12:59:43.243361","","","","","","",""
13.0,0.06380588561296463,0.0019421618206689913,"train",14320.0,"2021-11-25 12:59:46.485534","","","","","","",""
13.0,0.053195659071207047,0.0019434350061032163,"train",14340.0,"2021-11-25 12:59:49.739761","","","","","","",""
13.0,0.04798455536365509,0.0019446944473541703,"train",14360.0,"2021-11-25 12:59:53.384310","","","","","","",""
13.0,0.08841899782419205,0.0019459401252616573,"train",14380.0,"2021-11-25 12:59:56.636510","","","","","","",""
13.0,0.08647946268320084,0.001947172020874868,"train",14400.0,"2021-11-25 12:59:59.881598","","","","","","",""
13.0,0.0782141238451004,0.0019483901154526647,"train",14420.0,"2021-11-25 13:00:03.032320","","","","","","",""
13.0,0.06361998617649078,0.0019495943904638694,"train",14440.0,"2021-11-25 13:00:06.506565","","","","","","",""
13.0,0.0639515370130539,0.0019507848275875444,"train",14460.0,"2021-11-25 13:00:09.541178","","","","","","",""
13.0,0.07667529582977295,0.0019519614087132712,"train",14480.0,"2021-11-25 13:00:12.677753","","","","","","",""
13.0,0.06906693428754807,0.0019531241159414263,"train",14500.0,"2021-11-25 13:00:16.366875","","","","","","",""
13.0,0.04145123064517975,0.001954272931583453,"train",14520.0,"2021-11-25 13:00:19.634840","","","","","","",""
13.0,0.06062004715204239,0.0019554078381621306,"train",14540.0,"2021-11-25 13:00:22.796003","","","","","","",""
13.0,0.042712148278951645,0.0019565288184118417,"train",14560.0,"2021-11-25 13:00:26.041224","","","","","","",""
13.0,0.04877185449004173,0.0019576358552788314,"train",14580.0,"2021-11-25 13:00:29.702762","","","","","","",""
13.0,0.0797090157866478,0.0019587289319214713,"train",14600.0,"2021-11-25 13:00:32.955993","","","","","","",""
13.0,0.08824843913316727,0.0019598080317105113,"train",14620.0,"2021-11-25 13:00:36.205155","","","","","","",""
13.0,0.06411538273096085,0.001960873138229337,"train",14640.0,"2021-11-25 13:00:39.471862","","","","","","",""
13.0,0.036359623074531555,0.0019619242352742153,"train",14660.0,"2021-11-25 13:00:43.119194","","","","","","",""
13.0,0.0518341101706028,0.001962961306854543,"train",14680.0,"2021-11-25 13:00:46.204011","","","","","","",""
13.0,0.05568869411945343,0.0019639843371930905,"train",14700.0,"2021-11-25 13:00:49.257110","","","","","","",""
13.0,0.04042357951402664,0.001964993310726241,"train",14720.0,"2021-11-25 13:00:52.730698","","","","","","",""
13.0,0.04356575012207031,0.0019659882121042262,"train",14740.0,"2021-11-25 13:00:55.790111","","","","","","",""
13.0,0.06466498970985413,0.001966969026191363,"train",14760.0,"2021-11-25 13:00:58.893717","","","","","","",""
13.0,0.04295453056693077,0.0019679357380662805,"train",14780.0,"2021-11-25 13:01:02.144588","","","","","","",""
13.0,0.04300767928361893,0.001968888333022148,"train",14800.0,"2021-11-25 13:01:05.753003","","","","","","",""
13.0,0.039215851575136185,0.0019698267965669,"train",14820.0,"2021-11-25 13:01:08.848015","","","","","","",""
13.0,0.06931135803461075,0.0019707511144234557,"train",14840.0,"2021-11-25 13:01:11.855822","","","","","","",""
13.0,0.028799178078770638,0.001971661272529935,"train",14860.0,"2021-11-25 13:01:14.880071","","","","","","",""
13.0,0.053106795996427536,0.001972557257039875,"train",14880.0,"2021-11-25 13:01:18.402503","","","","","","",""
13.0,0.04818039387464523,0.0019734390543224385,"train",14900.0,"2021-11-25 13:01:21.480009","","","","","","",""
13.0,0.07004179805517197,0.001974306650962622,"train",14920.0,"2021-11-25 13:01:24.522387","","","","","","",""
13.0,0.054099954664707184,0.0019751600337614608,"train",14940.0,"2021-11-25 13:01:27.662601","","","","","","",""
13.0,0.06505026668310165,0.0019759991897362284,"train",14960.0,"2021-11-25 13:01:31.261083","","","","","","",""
13.0,0.08148248493671417,0.0019768241061206343,"train",14980.0,"2021-11-25 13:01:34.444526","","","","","","",""
13.0,0.046023156493902206,0.0019776347703650186,"train",15000.0,"2021-11-25 13:01:37.586878","","","","","","",""
13.0,0.03497844934463501,0.001978431170136543,"train",15020.0,"2021-11-25 13:01:41.082424","","","","","","",""
13.0,"","","train",15036.0,"2021-11-25 13:03:09.613702",0.6184239249072255,0.6387194104609963,0.9534360937330949,0.6344503949121509,0.5254825294633921,0.5484106111495031,0.36627639426623976
13.0,"","","val",15036.0,"2021-11-25 13:03:33.162336",0.5822799489736751,0.5684452994831015,0.9372450182129204,0.5889247618023042,0.480745170057658,0.5002521080730946,0.3192508161270697
14.0,0.09784740209579468,0.0019792132933193784,"train",15040.0,"2021-11-25 13:03:36.167384","","","","","","",""
14.0,0.080001100897789,0.001979981128014888,"train",15060.0,"2021-11-25 13:03:39.405275","","","","","","",""
14.0,0.053395941853523254,0.001980734662541811,"train",15080.0,"2021-11-25 13:03:42.508724","","","","","","",""
14.0,0.03793739899992943,0.0019814738854364374,"train",15100.0,"2021-11-25 13:03:46.135491","","","","","","",""
14.0,0.05745159834623337,0.0019821987854527832,"train",15120.0,"2021-11-25 13:03:49.181203","","","","","","",""
14.0,0.08880962431430817,0.0019829093515627634,"train",15140.0,"2021-11-25 13:03:52.333939","","","","","","",""
14.0,0.0404776930809021,0.001983605572956358,"train",15160.0,"2021-11-25 13:03:55.525800","","","","","","",""
14.0,0.06326945871114731,0.001984287439041775,"train",15180.0,"2021-11-25 13:03:59.076421","","","","","","",""
14.0,0.046525031328201294,0.001984954939445616,"train",15200.0,"2021-11-25 13:04:02.222303","","","","","","",""
14.0,0.047204192727804184,0.0019856080640130295,"train",15220.0,"2021-11-25 13:04:05.369937","","","","","","",""
14.0,0.0759076252579689,0.0019862468028078676,"train",15240.0,"2021-11-25 13:04:08.867462","","","","","","",""
14.0,0.03291945904493332,0.001986871146112837,"train",15260.0,"2021-11-25 13:04:11.942526","","","","","","",""
14.0,0.03723540157079697,0.0019874810844296466,"train",15280.0,"2021-11-25 13:04:15.107984","","","","","","",""
14.0,0.045872922986745834,0.0019880766084791517,"train",15300.0,"2021-11-25 13:04:18.351511","","","","","","",""
14.0,0.07402067631483078,0.0019886577092014953,"train",15320.0,"2021-11-25 13:04:21.971244","","","","","","",""
14.0,0.029229434207081795,0.001989224377756247,"train",15340.0,"2021-11-25 13:04:25.191277","","","","","","",""
14.0,0.057155318558216095,0.0019897766055225353,"train",15360.0,"2021-11-25 13:04:28.416440","","","","","","",""
14.0,0.04990287125110626,0.0019903143840991813,"train",15380.0,"2021-11-25 13:04:31.655055","","","","","","",""
14.0,0.06222059577703476,0.0019908377053048246,"train",15400.0,"2021-11-25 13:04:35.277903","","","","","","",""
14.0,0.0806402638554573,0.001991346561178048,"train",15420.0,"2021-11-25 13:04:38.528577","","","","","","",""
14.0,0.04022756218910217,0.0019918409439775003,"train",15440.0,"2021-11-25 13:04:41.762261","","","","","","",""
14.0,0.06388211995363235,0.0019923208461820117,"train",15460.0,"2021-11-25 13:04:45.027773","","","","","","",""
14.0,0.05145125463604927,0.001992786260490709,"train",15480.0,"2021-11-25 13:04:48.657112","","","","","","",""
14.0,0.0431363582611084,0.0019932371798231287,"train",15500.0,"2021-11-25 13:04:51.878332","","","","","","",""
14.0,0.08227259665727615,0.0019936735973193212,"train",15520.0,"2021-11-25 13:04:55.049971","","","","","","",""
14.0,0.03099752590060234,0.001994095506339958,"train",15540.0,"2021-11-25 13:04:58.531110","","","","","","",""
14.0,0.05930482596158981,0.001994502900466431,"train",15560.0,"2021-11-25 13:05:01.746480","","","","","","",""
14.0,0.034694917500019073,0.0019948957735009517,"train",15580.0,"2021-11-25 13:05:04.873236","","","","","","",""
14.0,0.06695199012756348,0.0019952741194666436,"train",15600.0,"2021-11-25 13:05:08.009358","","","","","","",""
14.0,0.04496775567531586,0.0019956379326076354,"train",15620.0,"2021-11-25 13:05:11.555792","","","","","","",""
14.0,0.04497777670621872,0.001995987207389146,"train",15640.0,"2021-11-25 13:05:14.677466","","","","","","",""
14.0,0.062042705714702606,0.0019963219384975706,"train",15660.0,"2021-11-25 13:05:17.846136","","","","","","",""
14.0,0.048718877136707306,0.001996642120840561,"train",15680.0,"2021-11-25 13:05:20.954189","","","","","","",""
14.0,0.0758683905005455,0.001996947749547103,"train",15700.0,"2021-11-25 13:05:24.548934","","","","","","",""
14.0,0.040552377700805664,0.0019972388199675905,"train",15720.0,"2021-11-25 13:05:27.709247","","","","","","",""
14.0,0.07172077894210815,0.001997515327673896,"train",15740.0,"2021-11-25 13:05:30.796098","","","","","","",""
14.0,0.07087185978889465,0.0019977772684594388,"train",15760.0,"2021-11-25 13:05:34.253316","","","","","","",""
14.0,0.0507388599216938,0.0019980246383392475,"train",15780.0,"2021-11-25 13:05:37.338018","","","","","","",""
14.0,0.03989657759666443,0.0019982574335500225,"train",15800.0,"2021-11-25 13:05:40.470197","","","","","","",""
14.0,0.07199058681726456,0.001998475650550192,"train",15820.0,"2021-11-25 13:05:43.503341","","","","","","",""
14.0,0.034155432134866714,0.0019986792860199657,"train",15840.0,"2021-11-25 13:05:47.018875","","","","","","",""
14.0,0.050708185881376266,0.001998868336861386,"train",15860.0,"2021-11-25 13:05:50.277349","","","","","","",""
14.0,0.06616027653217316,0.001999042800198376,"train",15880.0,"2021-11-25 13:05:53.479167","","","","","","",""
14.0,0.06723276525735855,0.00199920267337678,"train",15900.0,"2021-11-25 13:05:56.627193","","","","","","",""
14.0,0.03707662597298622,0.0019993479539644077,"train",15920.0,"2021-11-25 13:06:00.218788","","","","","","",""
14.0,0.03751170262694359,0.0019994786397510697,"train",15940.0,"2021-11-25 13:06:03.464106","","","","","","",""
14.0,0.067624032497406,0.0019995947287486096,"train",15960.0,"2021-11-25 13:06:06.704916","","","","","","",""
14.0,0.07516729831695557,0.0019996962191909367,"train",15980.0,"2021-11-25 13:06:10.308681","","","","","","",""
14.0,0.039070773869752884,0.0019997831095340513,"train",16000.0,"2021-11-25 13:06:13.542078","","","","","","",""
14.0,0.04608504846692085,0.001999855398456069,"train",16020.0,"2021-11-25 13:06:16.765635","","","","","","",""
14.0,0.06436243653297424,0.00199991308485724,"train",16040.0,"2021-11-25 13:06:19.989969","","","","","","",""
14.0,0.049948859959840775,0.001999956167859967,"train",16060.0,"2021-11-25 13:06:23.628246","","","","","","",""
14.0,0.06201361119747162,0.0019999846468088172,"train",16080.0,"2021-11-25 13:06:26.750907","","","","","","",""
14.0,0.06946679204702377,0.0019999985212705335,"train",16100.0,"2021-11-25 13:06:29.866389","","","","","","",""
14.0,"","","train",16110.0,"2021-11-25 13:07:58.474156",0.6296150767663538,0.6577665074149537,0.9580112312418722,0.6535336860440133,0.5438580853382707,0.561833025391027,0.38210687699132706
14.0,"","","val",16110.0,"2021-11-25 13:08:21.580673",0.5891221152731068,0.5851238486185152,0.9371481143840907,0.602671251493504,0.500825508350421,0.5148055786402461,0.3324543169423897
15.0,0.05816933885216713,0.0019999995774202316,"train",16120.0,"2021-11-25 13:08:25.483767","","","","","","",""
15.0,0.038543179631233215,0.0019999966438102564,"train",16140.0,"2021-11-25 13:08:29.111265","","","","","","",""
15.0,0.06866198778152466,0.0019999909162942875,"train",16160.0,"2021-11-25 13:08:32.231545","","","","","","",""
15.0,0.056161314249038696,0.001999982394888327,"train",16180.0,"2021-11-25 13:08:35.438410","","","","","","",""
15.0,0.03279583528637886,0.0019999710796161823,"train",16200.0,"2021-11-25 13:08:39.078072","","","","","","",""
15.0,0.061533160507678986,0.0019999569705094686,"train",16220.0,"2021-11-25 13:08:42.302623","","","","","","",""
15.0,0.04265464097261429,0.001999940067607605,"train",16240.0,"2021-11-25 13:08:45.528941","","","","","","",""
15.0,0.05472061410546303,0.001999920370957817,"train",16260.0,"2021-11-25 13:08:48.773844","","","","","","",""
15.0,0.06440745294094086,0.0019998978806151355,"train",16280.0,"2021-11-25 13:08:52.419232","","","","","","",""
15.0,0.0463792085647583,0.0019998725966423976,"train",16300.0,"2021-11-25 13:08:55.663649","","","","","","",""
15.0,0.05266688019037247,0.001999844519110244,"train",16320.0,"2021-11-25 13:08:58.921703","","","","","","",""
15.0,0.06904230266809464,0.001999813648097122,"train",16340.0,"2021-11-25 13:09:02.161944","","","","","","",""
15.0,0.0741502195596695,0.001999779983689282,"train",16360.0,"2021-11-25 13:09:05.754239","","","","","","",""
15.0,0.08495023846626282,0.0019997435259807806,"train",16380.0,"2021-11-25 13:09:08.831655","","","","","","",""
15.0,0.042962778359651566,0.001999704275073478,"train",16400.0,"2021-11-25 13:09:11.934886","","","","","","",""
15.0,0.04849155247211456,0.0019996622310770383,"train",16420.0,"2021-11-25 13:09:15.022890","","","","","","",""
15.0,0.06804383546113968,0.0019996173941089286,"train",16440.0,"2021-11-25 13:09:18.510169","","","","","","",""
15.0,0.04355348274111748,0.0019995697642944212,"train",16460.0,"2021-11-25 13:09:21.603432","","","","","","",""
15.0,0.052114859223365784,0.0019995193417665894,"train",16480.0,"2021-11-25 13:09:24.592901","","","","","","",""
15.0,0.08487538248300552,0.0019994661266663108,"train",16500.0,"2021-11-25 13:09:28.088827","","","","","","",""
15.0,0.049253202974796295,0.001999410119142264,"train",16520.0,"2021-11-25 13:09:31.179263","","","","","","",""
15.0,0.06923963874578476,0.0019993513193509297,"train",16540.0,"2021-11-25 13:09:34.302124","","","","","","",""
15.0,0.0718817338347435,0.0019992897274565906,"train",16560.0,"2021-11-25 13:09:37.417059","","","","","","",""
15.0,0.0657358169555664,0.0019992253436313303,"train",16580.0,"2021-11-25 13:09:40.986952","","","","","","",""
15.0,0.04598640650510788,0.0019991581680550313,"train",16600.0,"2021-11-25 13:09:44.119061","","","","","","",""
15.0,0.056429166346788406,0.0019990882009153785,"train",16620.0,"2021-11-25 13:09:47.234198","","","","","","",""
15.0,0.06284834444522858,0.001999015442407854,"train",16640.0,"2021-11-25 13:09:50.348441","","","","","","",""
15.0,0.05436991900205612,0.0019989398927357403,"train",16660.0,"2021-11-25 13:09:53.883467","","","","","","",""
15.0,0.08426818996667862,0.0019988615521101174,"train",16680.0,"2021-11-25 13:09:57.013518","","","","","","",""
15.0,0.06236022338271141,0.0019987804207498637,"train",16700.0,"2021-11-25 13:10:00.163888","","","","","","",""
15.0,0.0546269528567791,0.0019986964988816533,"train",16720.0,"2021-11-25 13:10:03.760384","","","","","","",""
15.0,0.04423034191131592,0.0019986097867399585,"train",16740.0,"2021-11-25 13:10:06.925158","","","","","","",""
15.0,0.046704165637493134,0.0019985202845670463,"train",16760.0,"2021-11-25 13:10:10.076333","","","","","","",""
15.0,0.0460127592086792,0.0019984279926129798,"train",16780.0,"2021-11-25 13:10:13.225852","","","","","","",""
15.0,0.05002143979072571,0.001998332911135615,"train",16800.0,"2021-11-25 13:10:16.858535","","","","","","",""
15.0,0.05448148399591446,0.0019982350404006036,"train",16820.0,"2021-11-25 13:10:20.059597","","","","","","",""
15.0,0.07675561308860779,0.0019981343806813883,"train",16840.0,"2021-11-25 13:10:23.296716","","","","","","",""
15.0,0.038736362010240555,0.001998030932259205,"train",16860.0,"2021-11-25 13:10:26.527205","","","","","","",""
15.0,0.04724693298339844,0.0019979246954230823,"train",16880.0,"2021-11-25 13:10:30.144407","","","","","","",""
15.0,0.056178320199251175,0.0019978156704698363,"train",16900.0,"2021-11-25 13:10:33.387186","","","","","","",""
15.0,0.07991383224725723,0.001997703857704076,"train",16920.0,"2021-11-25 13:10:36.626583","","","","","","",""
15.0,0.06061885133385658,0.0019975892574381976,"train",16940.0,"2021-11-25 13:10:39.797020","","","","","","",""
15.0,0.058759186416864395,0.001997471869992386,"train",16960.0,"2021-11-25 13:10:43.288455","","","","","","",""
15.0,0.029015548527240753,0.0019973516956946127,"train",16980.0,"2021-11-25 13:10:46.389454","","","","","","",""
15.0,0.048937056213617325,0.0019972287348806366,"train",17000.0,"2021-11-25 13:10:49.587241","","","","","","",""
15.0,0.0474100299179554,0.0019971029878940003,"train",17020.0,"2021-11-25 13:10:53.151012","","","","","","",""
15.0,0.04685509204864502,0.0019969744550860317,"train",17040.0,"2021-11-25 13:10:56.281981","","","","","","",""
15.0,0.04547787830233574,0.0019968431368158433,"train",17060.0,"2021-11-25 13:10:59.425057","","","","","","",""
15.0,0.03809899836778641,0.001996709033450327,"train",17080.0,"2021-11-25 13:11:02.671374","","","","","","",""
15.0,0.04593982174992561,0.0019965721453641585,"train",17100.0,"2021-11-25 13:11:06.310221","","","","","","",""
15.0,0.06364808231592178,0.0019964324729397935,"train",17120.0,"2021-11-25 13:11:09.488266","","","","","","",""
15.0,0.046770721673965454,0.0019962900165674657,"train",17140.0,"2021-11-25 13:11:12.743477","","","","","","",""
15.0,0.06717423349618912,0.0019961447766451887,"train",17160.0,"2021-11-25 13:11:15.925740","","","","","","",""
15.0,0.08046987652778625,0.001995996753578751,"train",17180.0,"2021-11-25 13:11:19.460552","","","","","","",""
15.0,"","","train",17184.0,"2021-11-25 13:12:47.034471",0.6208397002110165,0.6558160070427868,0.9576207503970989,0.663355337305742,0.5493029465500817,0.5660872443145452,0.38377612674596046
15.0,"","","val",17184.0,"2021-11-25 13:13:10.554092",0.5783370056824771,0.577569000145376,0.9377400141363921,0.6065840350997954,0.49782394773950334,0.5101556776040178,0.32846087135721874
16.0,0.04576199874281883,0.001995845947781719,"train",17200.0,"2021-11-25 13:13:15.426560","","","","","","",""
16.0,0.052024878561496735,0.001995692359675433,"train",17220.0,"2021-11-25 13:13:18.597420","","","","","","",""
16.0,0.046851277351379395,0.0019955359896890066,"train",17240.0,"2021-11-25 13:13:22.263935","","","","","","",""
16.0,0.06466788053512573,0.0019953768382593258,"train",17260.0,"2021-11-25 13:13:25.414255","","","","","","",""
16.0,0.04175541177392006,0.0019952149058310486,"train",17280.0,"2021-11-25 13:13:28.538662","","","","","","",""
16.0,0.034115083515644073,0.001995050192856602,"train",17300.0,"2021-11-25 13:13:31.670956","","","","","","",""
16.0,0.022409169003367424,0.001994882699796182,"train",17320.0,"2021-11-25 13:13:35.189163","","","","","","",""
16.0,0.0798354521393776,0.001994712427117752,"train",17340.0,"2021-11-25 13:13:38.307304","","","","","","",""
16.0,0.0417167954146862,0.0019945393752970413,"train",17360.0,"2021-11-25 13:13:41.423836","","","","","","",""
16.0,0.051391519606113434,0.001994363544817544,"train",17380.0,"2021-11-25 13:13:44.580868","","","","","","",""
16.0,0.06256655603647232,0.001994184936170517,"train",17400.0,"2021-11-25 13:13:48.091389","","","","","","",""
16.0,0.042246799916028976,0.0019940035498549804,"train",17420.0,"2021-11-25 13:13:51.172180","","","","","","",""
16.0,0.05205428972840309,0.0019938193863777145,"train",17440.0,"2021-11-25 13:13:54.247370","","","","","","",""
16.0,0.08118796348571777,0.001993632446253258,"train",17460.0,"2021-11-25 13:13:57.719313","","","","","","",""
16.0,0.04541824758052826,0.0019934427300039074,"train",17480.0,"2021-11-25 13:14:00.791986","","","","","","",""
16.0,0.06574220210313797,0.001993250238159717,"train",17500.0,"2021-11-25 13:14:03.915076","","","","","","",""
16.0,0.04475964233279228,0.0019930549712584944,"train",17520.0,"2021-11-25 13:14:07.142009","","","","","","",""
16.0,0.07161509245634079,0.001992856929845801,"train",17540.0,"2021-11-25 13:14:10.782366","","","","","","",""
16.0,0.07359889894723892,0.0019926561144749497,"train",17560.0,"2021-11-25 13:14:13.922035","","","","","","",""
16.0,0.04694780334830284,0.001992452525707004,"train",17580.0,"2021-11-25 13:14:17.042520","","","","","","",""
16.0,0.05439723655581474,0.0019922461641107767,"train",17600.0,"2021-11-25 13:14:20.176862","","","","","","",""
16.0,0.04918080195784569,0.001992037030262826,"train",17620.0,"2021-11-25 13:14:23.627271","","","","","","",""
16.0,0.060982368886470795,0.0019918251247474567,"train",17640.0,"2021-11-25 13:14:26.729202","","","","","","",""
16.0,0.06746441125869751,0.001991610448156718,"train",17660.0,"2021-11-25 13:14:29.878289","","","","","","",""
16.0,0.050932079553604126,0.0019913930010903996,"train",17680.0,"2021-11-25 13:14:33.474171","","","","","","",""
16.0,0.06258957087993622,0.001991172784156033,"train",17700.0,"2021-11-25 13:14:36.698606","","","","","","",""
16.0,0.048090968281030655,0.0019909497979688877,"train",17720.0,"2021-11-25 13:14:39.921096","","","","","","",""
16.0,0.07369648665189743,0.0019907240431519713,"train",17740.0,"2021-11-25 13:14:43.053473","","","","","","",""
16.0,0.049067769199609756,0.001990495520336026,"train",17760.0,"2021-11-25 13:14:46.586642","","","","","","",""
16.0,0.07049011439085007,0.0019902642301595284,"train",17780.0,"2021-11-25 13:14:49.650178","","","","","","",""
16.0,0.0849805623292923,0.001990030173268685,"train",17800.0,"2021-11-25 13:14:52.746588","","","","","","",""
16.0,0.04786401987075806,0.0019897933503174345,"train",17820.0,"2021-11-25 13:14:55.789698","","","","","","",""
16.0,0.049224771559238434,0.0019895537619674425,"train",17840.0,"2021-11-25 13:14:59.238375","","","","","","",""
16.0,0.05203789100050926,0.001989311408888101,"train",17860.0,"2021-11-25 13:15:02.279202","","","","","","",""
16.0,0.04759996384382248,0.001989066291756527,"train",17880.0,"2021-11-25 13:15:05.344634","","","","","","",""
16.0,0.05816110596060753,0.00198881841125756,"train",17900.0,"2021-11-25 13:15:08.574637","","","","","","",""
16.0,0.0723152831196785,0.0019885677680837595,"train",17920.0,"2021-11-25 13:15:12.166262","","","","","","",""
16.0,0.044014640152454376,0.001988314362935404,"train",17940.0,"2021-11-25 13:15:15.374588","","","","","","",""
16.0,0.055180374532938004,0.0019880581965204896,"train",17960.0,"2021-11-25 13:15:18.607825","","","","","","",""
16.0,0.040101416409015656,0.0019877992695547255,"train",17980.0,"2021-11-25 13:15:22.246408","","","","","","",""
16.0,0.05160271376371384,0.0019875375827615354,"train",18000.0,"2021-11-25 13:15:25.472532","","","","","","",""
16.0,0.06289505958557129,0.0019872731368720527,"train",18020.0,"2021-11-25 13:15:28.611192","","","","","","",""
16.0,0.07481817156076431,0.00198700593262512,"train",18040.0,"2021-11-25 13:15:31.804627","","","","","","",""
16.0,0.04434134438633919,0.001986735970767286,"train",18060.0,"2021-11-25 13:15:35.389591","","","","","","",""
16.0,0.07147674262523651,0.001986463252052804,"train",18080.0,"2021-11-25 13:15:38.524963","","","","","","",""
16.0,0.07251166552305222,0.0019861877772436305,"train",18100.0,"2021-11-25 13:15:41.663618","","","","","","",""
16.0,0.0637487918138504,0.001985909547109422,"train",18120.0,"2021-11-25 13:15:44.823725","","","","","","",""
16.0,0.045667197555303574,0.001985628562427533,"train",18140.0,"2021-11-25 13:15:48.495298","","","","","","",""
16.0,0.04951997101306915,0.001985344823983014,"train",18160.0,"2021-11-25 13:15:51.773787","","","","","","",""
16.0,0.04382166638970375,0.001985058332568609,"train",18180.0,"2021-11-25 13:15:55.009542","","","","","","",""
16.0,0.04184844717383385,0.001984769088984755,"train",18200.0,"2021-11-25 13:15:58.625388","","","","","","",""
16.0,0.034164585173130035,0.001984477094039576,"train",18220.0,"2021-11-25 13:16:01.715010","","","","","","",""
16.0,0.04044492542743683,0.001984182348548885,"train",18240.0,"2021-11-25 13:16:04.872884","","","","","","",""
16.0,"","","train",18258.0,"2021-11-25 13:17:35.376440",0.6443425744015135,0.6796944529813026,0.9625664188654225,0.6684687890145566,0.5760707161692129,0.5975757725236163,0.40281012050462695
16.0,"","","val",18258.0,"2021-11-25 13:17:58.673268",0.5938188565464455,0.5899330938001494,0.9419621425755982,0.6065734674223922,0.515080775702412,0.5309607551342725,0.3386441672529725
17.0,0.07159792631864548,0.00198388485333618,"train",18260.0,"2021-11-25 13:18:01.375349","","","","","","",""
17.0,0.0479423925280571,0.0019835846092326396,"train",18280.0,"2021-11-25 13:18:05.135469","","","","","","",""
17.0,0.053413085639476776,0.0019832816170771246,"train",18300.0,"2021-11-25 13:18:08.394476","","","","","","",""
17.0,0.030279314145445824,0.001982975877716172,"train",18320.0,"2021-11-25 13:18:11.628647","","","","","","",""
17.0,0.039651960134506226,0.0019826673920039957,"train",18340.0,"2021-11-25 13:18:14.839274","","","","","","",""
17.0,0.0346439890563488,0.0019823561608024822,"train",18360.0,"2021-11-25 13:18:18.476269","","","","","","",""
17.0,0.03632761165499687,0.0019820421849811886,"train",18380.0,"2021-11-25 13:18:21.640807","","","","","","",""
17.0,0.049064211547374725,0.0019817254654173402,"train",18400.0,"2021-11-25 13:18:24.762357","","","","","","",""
17.0,0.034101005643606186,0.0019814060029958278,"train",18420.0,"2021-11-25 13:18:28.239790","","","","","","",""
17.0,0.03797464817762375,0.001981083798609206,"train",18440.0,"2021-11-25 13:18:31.368599","","","","","","",""
17.0,0.03609791770577431,0.0019807588531576908,"train",18460.0,"2021-11-25 13:18:34.501813","","","","","","",""
17.0,0.08488824218511581,0.0019804311675491555,"train",18480.0,"2021-11-25 13:18:37.628676","","","","","","",""
17.0,0.049645811319351196,0.00198010074269913,"train",18500.0,"2021-11-25 13:18:41.168003","","","","","","",""
17.0,0.05133183300495148,0.0019797675795307965,"train",18520.0,"2021-11-25 13:18:44.286419","","","","","","",""
17.0,0.044605374336242676,0.0019794316789749885,"train",18540.0,"2021-11-25 13:18:47.461558","","","","","","",""
17.0,0.06062563881278038,0.0019790930419701877,"train",18560.0,"2021-11-25 13:18:50.699849","","","","","","",""
17.0,0.047484174370765686,0.0019787516694625214,"train",18580.0,"2021-11-25 13:18:54.288700","","","","","","",""
17.0,0.03678436204791069,0.0019784075624057584,"train",18600.0,"2021-11-25 13:18:57.440612","","","","","","",""
17.0,0.03119071200489998,0.0019780607217613094,"train",18620.0,"2021-11-25 13:19:00.660654","","","","","","",""
17.0,0.06075203791260719,0.001977711148498221,"train",18640.0,"2021-11-25 13:19:04.277017","","","","","","",""
17.0,0.036740537732839584,0.0019773588435931756,"train",18660.0,"2021-11-25 13:19:07.520296","","","","","","",""
17.0,0.05769552290439606,0.0019770038080304873,"train",18680.0,"2021-11-25 13:19:10.778565","","","","","","",""
17.0,0.0527314692735672,0.001976646042802099,"train",18700.0,"2021-11-25 13:19:14.060250","","","","","","",""
17.0,0.03424638882279396,0.0019762855489075808,"train",18720.0,"2021-11-25 13:19:17.717161","","","","","","",""
17.0,0.04461578279733658,0.001975922327354126,"train",18740.0,"2021-11-25 13:19:20.978173","","","","","","",""
17.0,0.048372700810432434,0.001975556379156549,"train",18760.0,"2021-11-25 13:19:24.264834","","","","","","",""
17.0,0.05086175352334976,0.0019751877053372823,"train",18780.0,"2021-11-25 13:19:27.514601","","","","","","",""
17.0,0.046070829033851624,0.001974816306926373,"train",18800.0,"2021-11-25 13:19:31.134961","","","","","","",""
17.0,0.05989000201225281,0.001974442184961482,"train",18820.0,"2021-11-25 13:19:34.359818","","","","","","",""
17.0,0.040517985820770264,0.0019740653404878776,"train",18840.0,"2021-11-25 13:19:37.596728","","","","","","",""
17.0,0.043314773589372635,0.0019736857745584362,"train",18860.0,"2021-11-25 13:19:40.852153","","","","","","",""
17.0,0.07267971336841583,0.0019733034882336367,"train",18880.0,"2021-11-25 13:19:44.539189","","","","","","",""
17.0,0.01957022212445736,0.0019729184825815586,"train",18900.0,"2021-11-25 13:19:47.842205","","","","","","",""
17.0,0.08598309010267258,0.0019725307586778806,"train",18920.0,"2021-11-25 13:19:51.117632","","","","","","",""
17.0,0.05634269863367081,0.001972140317605874,"train",18940.0,"2021-11-25 13:19:54.787900","","","","","","",""
17.0,0.056603558361530304,0.0019717471604564028,"train",18960.0,"2021-11-25 13:19:58.030984","","","","","","",""
17.0,0.0328197106719017,0.0019713512883279185,"train",18980.0,"2021-11-25 13:20:01.282440","","","","","","",""
17.0,0.04825544357299805,0.00197095270232646,"train",19000.0,"2021-11-25 13:20:04.536315","","","","","","",""
17.0,0.03925177827477455,0.001970551403565646,"train",19020.0,"2021-11-25 13:20:08.177271","","","","","","",""
17.0,0.049414847046136856,0.0019701473931666765,"train",19040.0,"2021-11-25 13:20:11.373460","","","","","","",""
17.0,0.03637312725186348,0.001969740672258327,"train",19060.0,"2021-11-25 13:20:14.543239","","","","","","",""
17.0,0.050865061581134796,0.0019693312419769454,"train",19080.0,"2021-11-25 13:20:17.732669","","","","","","",""
17.0,0.04979885742068291,0.0019689191034664498,"train",19100.0,"2021-11-25 13:20:21.400607","","","","","","",""
17.0,0.0431281253695488,0.0019685042578783257,"train",19120.0,"2021-11-25 13:20:24.637077","","","","","","",""
17.0,0.06890778243541718,0.00196808670637162,"train",19140.0,"2021-11-25 13:20:27.893512","","","","","","",""
17.0,0.06453552097082138,0.001967666450112942,"train",19160.0,"2021-11-25 13:20:31.540612","","","","","","",""
17.0,0.07445300370454788,0.001967243490276456,"train",19180.0,"2021-11-25 13:20:34.691762","","","","","","",""
17.0,0.05009394511580467,0.0019668178280438818,"train",19200.0,"2021-11-25 13:20:37.877688","","","","","","",""
17.0,0.03669562563300133,0.0019663894646044875,"train",19220.0,"2021-11-25 13:20:41.141930","","","","","","",""
17.0,0.0779227763414383,0.001965958401155089,"train",19240.0,"2021-11-25 13:20:44.799373","","","","","","",""
17.0,0.043565403670072556,0.0019655246389000463,"train",19260.0,"2021-11-25 13:20:48.065492","","","","","","",""
17.0,0.04292789101600647,0.0019650881790512597,"train",19280.0,"2021-11-25 13:20:51.305160","","","","","","",""
17.0,0.06528991460800171,0.001964649022828165,"train",19300.0,"2021-11-25 13:20:54.535520","","","","","","",""
17.0,0.08112961798906326,0.0019642071714577325,"train",19320.0,"2021-11-25 13:20:58.164312","","","","","","",""
17.0,"","","train",19332.0,"2021-11-25 13:22:27.648327",0.6513861602270247,0.6899741085132087,0.9628709876872031,0.6662300790873866,0.5672824239487132,0.5907176102916016,0.4088796648283338
17.0,"","","val",19332.0,"2021-11-25 13:22:51.262083",0.6000231937840659,0.5957604261947919,0.940983695028379,0.6028099066263449,0.5083203884426503,0.5250180959808376,0.3409146299655395
18.0,0.04842030256986618,0.0019637626261744634,"train",19340.0,"2021-11-25 13:22:54.965204","","","","","","",""
18.0,0.07374172657728195,0.001963315388220384,"train",19360.0,"2021-11-25 13:22:58.247788","","","","","","",""
18.0,0.031184399500489235,0.0019628654588450443,"train",19380.0,"2021-11-25 13:23:02.016017","","","","","","",""
18.0,0.03198195621371269,0.001962412839305514,"train",19400.0,"2021-11-25 13:23:05.280045","","","","","","",""
18.0,0.04636727273464203,0.0019619575308663785,"train",19420.0,"2021-11-25 13:23:08.495742","","","","","","",""
18.0,0.0653938353061676,0.001961499534799737,"train",19440.0,"2021-11-25 13:23:11.767829","","","","","","",""
18.0,0.07344404608011246,0.001961038852385196,"train",19460.0,"2021-11-25 13:23:15.419795","","","","","","",""
18.0,0.045685190707445145,0.0019605754849098683,"train",19480.0,"2021-11-25 13:23:18.665392","","","","","","",""
18.0,0.07563498616218567,0.0019601094336683693,"train",19500.0,"2021-11-25 13:23:21.878002","","","","","","",""
18.0,0.06368496268987656,0.0019596406999628116,"train",19520.0,"2021-11-25 13:23:24.974687","","","","","","",""
18.0,0.047684092074632645,0.0019591692851028022,"train",19540.0,"2021-11-25 13:23:28.446344","","","","","","",""
18.0,0.06052446737885475,0.001958695190405441,"train",19560.0,"2021-11-25 13:23:31.490579","","","","","","",""
18.0,0.08117690682411194,0.001958218417195312,"train",19580.0,"2021-11-25 13:23:34.568167","","","","","","",""
18.0,0.04300926625728607,0.001957738966804486,"train",19600.0,"2021-11-25 13:23:37.708868","","","","","","",""
18.0,0.030795015394687653,0.001957256840572511,"train",19620.0,"2021-11-25 13:23:41.263212","","","","","","",""
18.0,0.06723581254482269,0.0019567720398464133,"train",19640.0,"2021-11-25 13:23:44.405808","","","","","","",""
18.0,0.04972643405199051,0.00195628456598069,"train",19660.0,"2021-11-25 13:23:47.544694","","","","","","",""
18.0,0.07255615293979645,0.001955794420337307,"train",19680.0,"2021-11-25 13:23:51.091286","","","","","","",""
18.0,0.051164958626031876,0.0019553016042856957,"train",19700.0,"2021-11-25 13:23:54.212695","","","","","","",""
18.0,0.040187813341617584,0.001954806119202748,"train",19720.0,"2021-11-25 13:23:57.324563","","","","","","",""
18.0,0.04066742956638336,0.001954307966472812,"train",19740.0,"2021-11-25 13:24:00.416112","","","","","","",""
18.0,0.034786656498909,0.0019538071474876914,"train",19760.0,"2021-11-25 13:24:03.947301","","","","","","",""
18.0,0.050505414605140686,0.001953303663646636,"train",19780.0,"2021-11-25 13:24:07.041825","","","","","","",""
18.0,0.07030471414327621,0.0019527975163563436,"train",19800.0,"2021-11-25 13:24:10.159968","","","","","","",""
18.0,0.035624679177999496,0.0019522887070309524,"train",19820.0,"2021-11-25 13:24:13.257498","","","","","","",""
18.0,0.05046464130282402,0.0019517772370920379,"train",19840.0,"2021-11-25 13:24:16.887376","","","","","","",""
18.0,0.03846711665391922,0.0019512631079686104,"train",19860.0,"2021-11-25 13:24:20.103659","","","","","","",""
18.0,0.0922415480017662,0.001950746321097108,"train",19880.0,"2021-11-25 13:24:23.222829","","","","","","",""
18.0,0.03951723873615265,0.0019502268779213957,"train",19900.0,"2021-11-25 13:24:26.856099","","","","","","",""
18.0,0.07628486305475235,0.0019497047798927598,"train",19920.0,"2021-11-25 13:24:30.084715","","","","","","",""
18.0,0.03578316047787666,0.001949180028469903,"train",19940.0,"2021-11-25 13:24:33.317192","","","","","","",""
18.0,0.035659827291965485,0.0019486526251189435,"train",19960.0,"2021-11-25 13:24:36.546515","","","","","","",""
18.0,0.04688773304224014,0.0019481225713134064,"train",19980.0,"2021-11-25 13:24:40.236152","","","","","","",""
18.0,0.05004092678427696,0.0019475898685342235,"train",20000.0,"2021-11-25 13:24:43.466033","","","","","","",""
18.0,0.06793500483036041,0.0019470545182697272,"train",20020.0,"2021-11-25 13:24:46.650227","","","","","","",""
18.0,0.03828265145421028,0.001946516522015647,"train",20040.0,"2021-11-25 13:24:49.851947","","","","","","",""
18.0,0.06978654861450195,0.0019459758812751047,"train",20060.0,"2021-11-25 13:24:53.504588","","","","","","",""
18.0,0.04815129190683365,0.0019454325975586106,"train",20080.0,"2021-11-25 13:24:56.754192","","","","","","",""
18.0,0.05925961583852768,0.0019448866723840602,"train",20100.0,"2021-11-25 13:24:59.992425","","","","","","",""
18.0,0.05627408251166344,0.001944338107276728,"train",20120.0,"2021-11-25 13:25:03.562713","","","","","","",""
18.0,0.04034210368990898,0.0019437869037692644,"train",20140.0,"2021-11-25 13:25:06.791906","","","","","","",""
18.0,0.04879355430603027,0.0019432330634016912,"train",20160.0,"2021-11-25 13:25:09.990546","","","","","","",""
18.0,0.0600038543343544,0.0019426765877213986,"train",20180.0,"2021-11-25 13:25:12.966791","","","","","","",""
18.0,0.05865287408232689,0.0019421174782831383,"train",20200.0,"2021-11-25 13:25:16.412448","","","","","","",""
18.0,0.0950121283531189,0.0019415557366490208,"train",20220.0,"2021-11-25 13:25:19.478088","","","","","","",""
