"epoch","loss","lr","part","step","time","accuracy","auprc","auroc","challenge_metric","f_beta_measure","f_measure","g_beta_measure"
0.0,0.4446409344673157,8.000730236035311e-05,"train",20.0,"2021-11-27 11:50:51.784523","","","","","","",""
0.0,0.2265317291021347,8.002920933031948e-05,"train",40.0,"2021-11-27 11:50:56.297415","","","","","","",""
0.0,0.13961534202098846,8.006572057662293e-05,"train",60.0,"2021-11-27 11:51:00.376178","","","","","","",""
0.0,0.13848261535167694,8.011683554380914e-05,"train",80.0,"2021-11-27 11:51:04.785614","","","","","","",""
0.0,0.1611354947090149,8.018255345425274e-05,"train",100.0,"2021-11-27 11:51:09.190885","","","","","","",""
0.0,0.1318436861038208,8.026287330817079e-05,"train",120.0,"2021-11-27 11:51:13.473081","","","","","","",""
0.0,0.13017487525939941,8.03577938836373e-05,"train",140.0,"2021-11-27 11:51:17.449037","","","","","","",""
0.0,0.11189273744821548,8.04673137366021e-05,"train",160.0,"2021-11-27 11:51:21.815111","","","","","","",""
0.0,0.15099744498729706,8.059143120091187e-05,"train",180.0,"2021-11-27 11:51:26.218234","","","","","","",""
0.0,0.14391019940376282,8.073014438833613e-05,"train",200.0,"2021-11-27 11:51:30.568253","","","","","","",""
0.0,0.13607431948184967,8.088345118859724e-05,"train",220.0,"2021-11-27 11:51:34.952302","","","","","","",""
0.0,0.14310285449028015,8.10513492693996e-05,"train",240.0,"2021-11-27 11:51:38.991174","","","","","","",""
0.0,0.1404346078634262,8.123383607646804e-05,"train",260.0,"2021-11-27 11:51:43.344010","","","","","","",""
0.0,0.14241164922714233,8.143090883358495e-05,"train",280.0,"2021-11-27 11:51:47.746858","","","","","","",""
0.0,0.15423761308193207,8.164256454263295e-05,"train",300.0,"2021-11-27 11:51:52.044906","","","","","","",""
0.0,0.1367603987455368,8.186879998364088e-05,"train",320.0,"2021-11-27 11:51:55.940526","","","","","","",""
0.0,0.1358945071697235,8.210961171483213e-05,"train",340.0,"2021-11-27 11:52:00.230115","","","","","","",""
0.0,0.1514798253774643,8.236499607267717e-05,"train",360.0,"2021-11-27 11:52:04.480105","","","","","","",""
0.0,0.14186255633831024,8.26349491719505e-05,"train",380.0,"2021-11-27 11:52:08.715810","","","","","","",""
0.0,0.14189180731773376,8.291946690578713e-05,"train",400.0,"2021-11-27 11:52:13.011272","","","","","","",""
0.0,0.15246161818504333,8.321854494574774e-05,"train",420.0,"2021-11-27 11:52:17.021274","","","","","","",""
0.0,0.14433324337005615,8.353217874188293e-05,"train",440.0,"2021-11-27 11:52:21.263174","","","","","","",""
0.0,0.1429884284734726,8.38603635228035e-05,"train",460.0,"2021-11-27 11:52:25.524615","","","","","","",""
0.0,0.1401999294757843,8.420309429575212e-05,"train",480.0,"2021-11-27 11:52:29.919242","","","","","","",""
0.0,0.12094586342573166,8.456036584667914e-05,"train",500.0,"2021-11-27 11:52:33.912586","","","","","","",""
0.0,0.14976155757904053,8.493217274032315e-05,"train",520.0,"2021-11-27 11:52:38.176501","","","","","","",""
0.0,0.15099798142910004,8.531850932029235e-05,"train",540.0,"2021-11-27 11:52:42.455295","","","","","","",""
0.0,0.14371278882026672,8.571936970915212e-05,"train",560.0,"2021-11-27 11:52:46.748595","","","","","","",""
0.0,0.1277489960193634,8.613474780851246e-05,"train",580.0,"2021-11-27 11:52:51.104404","","","","","","",""
0.0,0.12724953889846802,8.656463729912224e-05,"train",600.0,"2021-11-27 11:52:55.232564","","","","","","",""
0.0,0.1247606948018074,8.700903164096468e-05,"train",620.0,"2021-11-27 11:52:59.579711","","","","","","",""
0.0,0.14527499675750732,8.746792407335769e-05,"train",640.0,"2021-11-27 11:53:03.961169","","","","","","",""
0.0,0.14068466424942017,8.794130761505497e-05,"train",660.0,"2021-11-27 11:53:08.168177","","","","","","",""
0.0,0.13898317515850067,8.842917506435462e-05,"train",680.0,"2021-11-27 11:53:12.103499","","","","","","",""
0.0,0.12069335579872131,8.893151899920645e-05,"train",700.0,"2021-11-27 11:53:16.324837","","","","","","",""
0.0,0.12582524120807648,8.944833177732632e-05,"train",720.0,"2021-11-27 11:53:20.587247","","","","","","",""
0.0,0.12461203336715698,8.997960553631186e-05,"train",740.0,"2021-11-27 11:53:24.875227","","","","","","",""
0.0,0.12378153949975967,9.052533219376224e-05,"train",760.0,"2021-11-27 11:53:29.163850","","","","","","",""
0.0,0.1030108779668808,9.108550344740104e-05,"train",780.0,"2021-11-27 11:53:33.202290","","","","","","",""
0.0,0.11841343343257904,9.166011077520208e-05,"train",800.0,"2021-11-27 11:53:37.554698","","","","","","",""
0.0,0.11922428011894226,9.224914543552059e-05,"train",820.0,"2021-11-27 11:53:41.847685","","","","","","",""
0.0,0.1333681344985962,9.285259846722417e-05,"train",840.0,"2021-11-27 11:53:46.090185","","","","","","",""
0.0,0.10831339657306671,9.34704606898307e-05,"train",860.0,"2021-11-27 11:53:50.004444","","","","","","",""
0.0,0.12266344577074051,9.410272270364735e-05,"train",880.0,"2021-11-27 11:53:54.333120","","","","","","",""
0.0,0.11486759781837463,9.474937488991348e-05,"train",900.0,"2021-11-27 11:53:58.614183","","","","","","",""
0.0,0.13802163302898407,9.541040741094719e-05,"train",920.0,"2021-11-27 11:54:02.863435","","","","","","",""
0.0,0.11049969494342804,9.608581021029522e-05,"train",940.0,"2021-11-27 11:54:07.220869","","","","","","",""
0.0,0.13225755095481873,9.677557301288509e-05,"train",960.0,"2021-11-27 11:54:11.162828","","","","","","",""
0.0,0.10421712696552277,9.747968532518238e-05,"train",980.0,"2021-11-27 11:54:15.469656","","","","","","",""
0.0,0.10575202852487564,9.819813643535029e-05,"train",1000.0,"2021-11-27 11:54:19.752915","","","","","","",""
0.0,0.11956793069839478,9.893091541341185e-05,"train",1020.0,"2021-11-27 11:54:24.042760","","","","","","",""
0.0,0.11992073804140091,9.967801111141644e-05,"train",1040.0,"2021-11-27 11:54:28.021017","","","","","","",""
0.0,0.1260286122560501,0.00010043941216361023,"train",1060.0,"2021-11-27 11:54:32.386853","","","","","","",""
0.0,"","","train",1074.0,"2021-11-27 11:56:25.712896",0.38100851342501635,0.21167294135606207,0.7809773483542372,0.3120096380006475,0.16293621514501222,0.1498484522874946,0.10289751613947394
0.0,"","","val",1074.0,"2021-11-27 11:56:55.393384",0.3797982140786269,0.21268178587474074,0.7824631347587613,0.31149271885402857,0.16307238724058712,0.15093451026230337,0.10268939827595171
1.0,0.1282399445772171,0.00010121510698660771,"train",1080.0,"2021-11-27 11:57:00.575093","","","","","","",""
1.0,0.10031174123287201,0.00010200508377956928,"train",1100.0,"2021-11-27 11:57:05.055127","","","","","","",""
1.0,0.1066863015294075,0.00010280933052437993,"train",1120.0,"2021-11-27 11:57:09.400295","","","","","","",""
1.0,0.14057651162147522,0.00010362783498583223,"train",1140.0,"2021-11-27 11:57:13.774442","","","","","","",""
1.0,0.10491243004798889,0.0001044605847118124,"train",1160.0,"2021-11-27 11:57:18.126888","","","","","","",""
1.0,0.10120941698551178,0.0001053075670334907,"train",1180.0,"2021-11-27 11:57:22.113965","","","","","","",""
1.0,0.10180772840976715,0.00010616876906551181,"train",1200.0,"2021-11-27 11:57:26.393321","","","","","","",""
1.0,0.11054688692092896,0.0001070441777061941,"train",1220.0,"2021-11-27 11:57:30.709095","","","","","","",""
1.0,0.11617149412631989,0.00010793377963772563,"train",1240.0,"2021-11-27 11:57:35.070279","","","","","","",""
1.0,0.0904044583439827,0.0001088375613263698,"train",1260.0,"2021-11-27 11:57:39.482013","","","","","","",""
1.0,0.11799970269203186,0.00010975550902266908,"train",1280.0,"2021-11-27 11:57:43.838149","","","","","","",""
1.0,0.1140008345246315,0.00011068760876165474,"train",1300.0,"2021-11-27 11:57:48.162455","","","","","","",""
1.0,0.13568216562271118,0.0001116338463630598,"train",1320.0,"2021-11-27 11:57:52.247083","","","","","","",""
1.0,0.11594527214765549,0.00011259420743153455,"train",1340.0,"2021-11-27 11:57:56.656922","","","","","","",""
1.0,0.10111484676599503,0.00011356867735686535,"train",1360.0,"2021-11-27 11:58:01.009623","","","","","","",""
1.0,0.10416744649410248,0.00011455724131419621,"train",1380.0,"2021-11-27 11:58:05.398963","","","","","","",""
1.0,0.08976580947637558,0.00011555988426425654,"train",1400.0,"2021-11-27 11:58:09.846141","","","","","","",""
1.0,0.10015279799699783,0.00011657659095358746,"train",1420.0,"2021-11-27 11:58:14.307592","","","","","","",""
1.0,0.09832316637039185,0.00011760734591477516,"train",1440.0,"2021-11-27 11:58:18.765373","","","","","","",""
1.0,0.09495940804481506,0.00011865213346668618,"train",1460.0,"2021-11-27 11:58:23.222358","","","","","","",""
1.0,0.14084191620349884,0.00011971093771470502,"train",1480.0,"2021-11-27 11:58:27.380648","","","","","","",""
1.0,0.09794523566961288,0.0001207837425509777,"train",1500.0,"2021-11-27 11:58:31.747253","","","","","","",""
1.0,0.1188749223947525,0.00012187053165465503,"train",1520.0,"2021-11-27 11:58:36.091541","","","","","","",""
1.0,0.10805236548185349,0.000122971288492142,"train",1540.0,"2021-11-27 11:58:40.370156","","","","","","",""
1.0,0.09196584671735764,0.00012408599631734863,"train",1560.0,"2021-11-27 11:58:44.653682","","","","","","",""
1.0,0.0977170318365097,0.00012521463817194542,"train",1580.0,"2021-11-27 11:58:48.900568","","","","","","",""
1.0,0.10673195868730545,0.00012635719688562077,"train",1600.0,"2021-11-27 11:58:53.375642","","","","","","",""
1.0,0.11078209429979324,0.00012751365507634267,"train",1620.0,"2021-11-27 11:58:57.913857","","","","","","",""
1.0,0.10664688795804977,0.0001286839951506226,"train",1640.0,"2021-11-27 11:59:02.045241","","","","","","",""
1.0,0.08377988636493683,0.00012986819930378333,"train",1660.0,"2021-11-27 11:59:06.468527","","","","","","",""
1.0,0.08334413170814514,0.00013106624952023064,"train",1680.0,"2021-11-27 11:59:10.803900","","","","","","",""
1.0,0.11051226407289505,0.00013227812757372545,"train",1700.0,"2021-11-27 11:59:15.162553","","","","","","",""
1.0,0.12051287293434143,0.00013350381502766394,"train",1720.0,"2021-11-27 11:59:19.332283","","","","","","",""
1.0,0.09795660525560379,0.00013474329323535494,"train",1740.0,"2021-11-27 11:59:23.483047","","","","","","",""
1.0,0.09694523364305496,0.0001359965433403059,"train",1760.0,"2021-11-27 11:59:27.815153","","","","","","",""
1.0,0.131282240152359,0.00013726354627650872,"train",1780.0,"2021-11-27 11:59:31.853618","","","","","","",""
1.0,0.10284591466188431,0.00013854428276873052,"train",1800.0,"2021-11-27 11:59:36.125094","","","","","","",""
1.0,0.10666845738887787,0.00013983873333280506,"train",1820.0,"2021-11-27 11:59:40.405334","","","","","","",""
1.0,0.1002989187836647,0.00014114687827593156,"train",1840.0,"2021-11-27 11:59:44.702242","","","","","","",""
1.0,0.10579623281955719,0.00014246869769697352,"train",1860.0,"2021-11-27 11:59:48.982592","","","","","","",""
1.0,0.11209473758935928,0.00014380417148676054,"train",1880.0,"2021-11-27 11:59:53.282655","","","","","","",""
1.0,0.09129706025123596,0.00014515327932839404,"train",1900.0,"2021-11-27 11:59:57.568296","","","","","","",""
1.0,0.1099996417760849,0.0001465160006975598,"train",1920.0,"2021-11-27 12:00:01.863314","","","","","","",""
1.0,0.10115387290716171,0.00014789231486283454,"train",1940.0,"2021-11-27 12:00:05.998217","","","","","","",""
1.0,0.08792860805988312,0.00014928220088600633,"train",1960.0,"2021-11-27 12:00:10.349638","","","","","","",""
1.0,0.10325480252504349,0.00015068563762239045,"train",1980.0,"2021-11-27 12:00:14.592521","","","","","","",""
1.0,0.08272749930620193,0.00015210260372115238,"train",2000.0,"2021-11-27 12:00:18.773074","","","","","","",""
1.0,0.10320546478033066,0.00015353307762563115,"train",2020.0,"2021-11-27 12:00:22.975729","","","","","","",""
1.0,0.09482734650373459,0.00015497703757366872,"train",2040.0,"2021-11-27 12:00:27.214442","","","","","","",""
1.0,0.09608224779367447,0.00015643446159794,"train",2060.0,"2021-11-27 12:00:31.561729","","","","","","",""
1.0,0.10847989469766617,0.0001579053275262887,"train",2080.0,"2021-11-27 12:00:35.986926","","","","","","",""
1.0,0.11448046565055847,0.00015938961298206183,"train",2100.0,"2021-11-27 12:00:40.021838","","","","","","",""
1.0,0.10280109196901321,0.00016088729538445297,"train",2120.0,"2021-11-27 12:00:44.242700","","","","","","",""
1.0,0.10665404051542282,0.000162398351948844,"train",2140.0,"2021-11-27 12:00:48.609412","","","","","","",""
1.0,"","","train",2148.0,"2021-11-27 12:02:34.640266",0.44840282325547554,0.2931483021474729,0.8416655443476421,0.377738427510953,0.19063383450853905,0.18402443946104174,0.13375101922667906
1.0,"","","val",2148.0,"2021-11-27 12:03:03.656241",0.43981213034906647,0.29103119183280407,0.8404550949404991,0.36898323229738345,0.18724321036344438,0.1820391155686683,0.1287645427242628
2.0,0.10353334248065948,0.00016392275968715297,"train",2160.0,"2021-11-27 12:03:10.535854","","","","","","",""
2.0,0.0700516328215599,0.00016546049540818223,"train",2180.0,"2021-11-27 12:03:14.620907","","","","","","",""
2.0,0.09229588508605957,0.00016701153571797313,"train",2200.0,"2021-11-27 12:03:18.720337","","","","","","",""
2.0,0.08422321826219559,0.00016857585702016015,"train",2220.0,"2021-11-27 12:03:22.905329","","","","","","",""
2.0,0.08107121288776398,0.00017015343551633126,"train",2240.0,"2021-11-27 12:03:27.075681","","","","","","",""
2.0,0.11353379487991333,0.0001717442472063892,"train",2260.0,"2021-11-27 12:03:31.146624","","","","","","",""
2.0,0.07898415625095367,0.00017334826788891681,"train",2280.0,"2021-11-27 12:03:35.275556","","","","","","",""
2.0,0.09893105924129486,0.00017496547316154555,"train",2300.0,"2021-11-27 12:03:39.392185","","","","","","",""
2.0,0.10803300887346268,0.00017659583842132573,"train",2320.0,"2021-11-27 12:03:43.488207","","","","","","",""
2.0,0.09462322294712067,0.00017823933886510217,"train",2340.0,"2021-11-27 12:03:47.605698","","","","","","",""
2.0,0.11210227757692337,0.00017989594948989015,"train",2360.0,"2021-11-27 12:03:51.735253","","","","","","",""
2.0,0.10575941950082779,0.00018156564509325753,"train",2380.0,"2021-11-27 12:03:56.161987","","","","","","",""
2.0,0.10376278311014175,0.0001832484002737059,"train",2400.0,"2021-11-27 12:04:00.249648","","","","","","",""
2.0,0.09532776474952698,0.00018494418943105877,"train",2420.0,"2021-11-27 12:04:04.346145","","","","","","",""
2.0,0.0926891341805458,0.00018665298676685078,"train",2440.0,"2021-11-27 12:04:08.474117","","","","","","",""
2.0,0.08977794647216797,0.0001883747662847191,"train",2460.0,"2021-11-27 12:04:12.581706","","","","","","",""
2.0,0.08807314932346344,0.00019010950179080112,"train",2480.0,"2021-11-27 12:04:16.713988","","","","","","",""
2.0,0.07548923790454865,0.00019185716689412995,"train",2500.0,"2021-11-27 12:04:20.797852","","","","","","",""
2.0,0.09494451433420181,0.00019361773500703797,"train",2520.0,"2021-11-27 12:04:24.953142","","","","","","",""
2.0,0.09230533242225647,0.00019539117934556168,"train",2540.0,"2021-11-27 12:04:29.012665","","","","","","",""
2.0,0.09061450511217117,0.00019717747292984696,"train",2560.0,"2021-11-27 12:04:33.104840","","","","","","",""
2.0,0.0808245912194252,0.0001989765885845624,"train",2580.0,"2021-11-27 12:04:37.238321","","","","","","",""
2.0,0.06622067838907242,0.00020078849893931014,"train",2600.0,"2021-11-27 12:04:41.356172","","","","","","",""
2.0,0.09849249571561813,0.0002026131764290434,"train",2620.0,"2021-11-27 12:04:45.843039","","","","","","",""
2.0,0.08612942695617676,0.00020445059329448614,"train",2640.0,"2021-11-27 12:04:49.992196","","","","","","",""
2.0,0.11223579943180084,0.00020630072158255497,"train",2660.0,"2021-11-27 12:04:54.124412","","","","","","",""
2.0,0.08219753205776215,0.00020816353314678467,"train",2680.0,"2021-11-27 12:04:58.266778","","","","","","",""
2.0,0.0849413350224495,0.00021003899964775505,"train",2700.0,"2021-11-27 12:05:02.303899","","","","","","",""
2.0,0.08852177113294601,0.00021192709255352473,"train",2720.0,"2021-11-27 12:05:06.375603","","","","","","",""
2.0,0.10492012649774551,0.00021382778314006255,"train",2740.0,"2021-11-27 12:05:10.558002","","","","","","",""
2.0,0.0771043673157692,0.00021574104249168615,"train",2760.0,"2021-11-27 12:05:14.513147","","","","","","",""
2.0,0.11292649060487747,0.00021766684150150133,"train",2780.0,"2021-11-27 12:05:18.530185","","","","","","",""
2.0,0.08694711327552795,0.00021960515087184485,"train",2800.0,"2021-11-27 12:05:22.681200","","","","","","",""
2.0,0.10618780553340912,0.00022155594111472978,"train",2820.0,"2021-11-27 12:05:26.815426","","","","","","",""
2.0,0.10340534895658493,0.0002235191825522959,"train",2840.0,"2021-11-27 12:05:31.217650","","","","","","",""
2.0,0.08993108570575714,0.00022549484531725838,"train",2860.0,"2021-11-27 12:05:35.156247","","","","","","",""
2.0,0.07719118893146515,0.00022748289935336434,"train",2880.0,"2021-11-27 12:05:39.097718","","","","","","",""
2.0,0.09726674854755402,0.00022948331441584964,"train",2900.0,"2021-11-27 12:05:43.066471","","","","","","",""
2.0,0.08173904567956924,0.00023149606007189785,"train",2920.0,"2021-11-27 12:05:47.023388","","","","","","",""
2.0,0.10378966480493546,0.00023352110570110476,"train",2940.0,"2021-11-27 12:05:51.063672","","","","","","",""
2.0,0.08560582995414734,0.00023555842049594305,"train",2960.0,"2021-11-27 12:05:55.050445","","","","","","",""
2.0,0.07750331610441208,0.00023760797346223305,"train",2980.0,"2021-11-27 12:05:59.021241","","","","","","",""
2.0,0.07488016039133072,0.00023966973341961028,"train",3000.0,"2021-11-27 12:06:02.985863","","","","","","",""
2.0,0.11530544608831406,0.0002417436690020044,"train",3020.0,"2021-11-27 12:06:06.915277","","","","","","",""
2.0,0.1001470759510994,0.00024382974865811325,"train",3040.0,"2021-11-27 12:06:10.980179","","","","","","",""
2.0,0.08831293880939484,0.000245927940651884,"train",3060.0,"2021-11-27 12:06:15.101513","","","","","","",""
2.0,0.06215048208832741,0.0002480382130629953,"train",3080.0,"2021-11-27 12:06:19.491979","","","","","","",""
2.0,0.09828320145606995,0.0002501605337873443,"train",3100.0,"2021-11-27 12:06:23.545352","","","","","","",""
2.0,0.09348143637180328,0.0002522948705375337,"train",3120.0,"2021-11-27 12:06:27.650603","","","","","","",""
2.0,0.06707588583230972,0.00025444119084336303,"train",3140.0,"2021-11-27 12:06:31.741042","","","","","","",""
2.0,0.10624592751264572,0.00025659946205232364,"train",3160.0,"2021-11-27 12:06:35.834055","","","","","","",""
2.0,0.08996957540512085,0.0002587696513300941,"train",3180.0,"2021-11-27 12:06:39.893878","","","","","","",""
2.0,0.08724337816238403,0.0002609517256610412,"train",3200.0,"2021-11-27 12:06:43.939057","","","","","","",""
2.0,0.08181892335414886,0.00026314565184872084,"train",3220.0,"2021-11-27 12:06:47.974166","","","","","","",""
2.0,"","","train",3222.0,"2021-11-27 12:08:35.320997",0.48452302990613405,0.370784201962027,0.8772379192160001,0.44478292781189005,0.2666674274393875,0.26979403882071323,0.1774766893548514
2.0,"","","val",3222.0,"2021-11-27 12:09:04.547914",0.4837063666937261,0.36653148597300916,0.8720935642718298,0.44035021243785344,0.26538301093685707,0.26622148990190725,0.17484962816027788
3.0,0.1015312522649765,0.0002653513965163838,"train",3240.0,"2021-11-27 12:09:12.351473","","","","","","",""
3.0,0.08442093431949615,0.0002675689261074836,"train",3260.0,"2021-11-27 12:09:16.913172","","","","","","",""
3.0,0.07713323831558228,0.00026979820688618605,"train",3280.0,"2021-11-27 12:09:20.965079","","","","","","",""
3.0,0.0864485651254654,0.00027203920493788433,"train",3300.0,"2021-11-27 12:09:25.018558","","","","","","",""
3.0,0.08762209862470627,0.00027429188616971277,"train",3320.0,"2021-11-27 12:09:29.008748","","","","","","",""
3.0,0.0735064372420311,0.0002765562163110668,"train",3340.0,"2021-11-27 12:09:33.290671","","","","","","",""
3.0,0.08383180946111679,0.00027883216091412503,"train",3360.0,"2021-11-27 12:09:37.234400","","","","","","",""
3.0,0.08857090026140213,0.0002811196853543707,"train",3380.0,"2021-11-27 12:09:41.196281","","","","","","",""
3.0,0.10826298594474792,0.00028341875483112134,"train",3400.0,"2021-11-27 12:09:45.143634","","","","","","",""
3.0,0.10649333149194717,0.00028572933436805644,"train",3420.0,"2021-11-27 12:09:49.397863","","","","","","",""
3.0,0.0895276814699173,0.0002880513888137504,"train",3440.0,"2021-11-27 12:09:53.380937","","","","","","",""
3.0,0.07757256925106049,0.0002903848828422063,"train",3460.0,"2021-11-27 12:09:57.470496","","","","","","",""
3.0,0.10923799872398376,0.00029272978095339465,"train",3480.0,"2021-11-27 12:10:01.563346","","","","","","",""
3.0,0.11763080954551697,0.00029508604747379243,"train",3500.0,"2021-11-27 12:10:05.784785","","","","","","",""
3.0,0.09258269518613815,0.00029745364655692653,"train",3520.0,"2021-11-27 12:10:09.709465","","","","","","",""
3.0,0.08618950843811035,0.0002998325421839181,"train",3540.0,"2021-11-27 12:10:13.686433","","","","","","",""
3.0,0.08290549367666245,0.0003022226981640318,"train",3560.0,"2021-11-27 12:10:17.660832","","","","","","",""
3.0,0.06634031236171722,0.00030462407813522494,"train",3580.0,"2021-11-27 12:10:21.921603","","","","","","",""
3.0,0.11925708502531052,0.0003070366455647027,"train",3600.0,"2021-11-27 12:10:26.034355","","","","","","",""
3.0,0.1040530800819397,0.000309460363749471,"train",3620.0,"2021-11-27 12:10:30.051441","","","","","","",""
3.0,0.09333324432373047,0.0003118951958168978,"train",3640.0,"2021-11-27 12:10:33.926275","","","","","","",""
3.0,0.08421851694583893,0.0003143411047252722,"train",3660.0,"2021-11-27 12:10:38.259833","","","","","","",""
3.0,0.09266490489244461,0.0003167980532643691,"train",3680.0,"2021-11-27 12:10:42.225351","","","","","","",""
3.0,0.08682312071323395,0.0003192660040560141,"train",3700.0,"2021-11-27 12:10:46.247318","","","","","","",""
3.0,0.08075080066919327,0.0003217449195546528,"train",3720.0,"2021-11-27 12:10:50.403158","","","","","","",""
3.0,0.10017835348844528,0.00032423476204792244,"train",3740.0,"2021-11-27 12:10:54.822214","","","","","","",""
3.0,0.10155180841684341,0.0003267354936572248,"train",3760.0,"2021-11-27 12:10:58.950145","","","","","","",""
3.0,0.0739540085196495,0.0003292470763383026,"train",3780.0,"2021-11-27 12:11:03.126237","","","","","","",""
3.0,0.08880558609962463,0.0003317694718818192,"train",3800.0,"2021-11-27 12:11:07.163525","","","","","","",""
3.0,0.07584376633167267,0.00033430264191393853,"train",3820.0,"2021-11-27 12:11:11.461763","","","","","","",""
3.0,0.07408836483955383,0.0003368465478969097,"train",3840.0,"2021-11-27 12:11:15.516999","","","","","","",""
3.0,0.11219030618667603,0.0003394011511296533,"train",3860.0,"2021-11-27 12:11:19.589712","","","","","","",""
3.0,0.08304282277822495,0.0003419664127483496,"train",3880.0,"2021-11-27 12:11:23.603552","","","","","","",""
3.0,0.09124118089675903,0.00034454229372703074,"train",3900.0,"2021-11-27 12:11:27.977354","","","","","","",""
3.0,0.06540415436029434,0.00034712875487817314,"train",3920.0,"2021-11-27 12:11:31.983615","","","","","","",""
3.0,0.09354107826948166,0.00034972575685329526,"train",3940.0,"2021-11-27 12:11:36.053487","","","","","","",""
3.0,0.08825001865625381,0.0003523332601435541,"train",3960.0,"2021-11-27 12:11:40.103319","","","","","","",""
3.0,0.06586816906929016,0.00035495122508034916,"train",3980.0,"2021-11-27 12:11:44.418644","","","","","","",""
3.0,0.07224104553461075,0.0003575796118359231,"train",4000.0,"2021-11-27 12:11:48.457313","","","","","","",""
3.0,0.08312251418828964,0.00036021838042396906,"train",4020.0,"2021-11-27 12:11:52.448084","","","","","","",""
3.0,0.07936015725135803,0.0003628674907002389,"train",4040.0,"2021-11-27 12:11:56.472141","","","","","","",""
3.0,0.10946714133024216,0.00036552690236315395,"train",4060.0,"2021-11-27 12:12:00.915856","","","","","","",""
3.0,0.06431706249713898,0.00036819657495441773,"train",4080.0,"2021-11-27 12:12:05.050480","","","","","","",""
3.0,0.07210016250610352,0.0003708764678596317,"train",4100.0,"2021-11-27 12:12:09.179691","","","","","","",""
3.0,0.07954337447881699,0.00037356654030891293,"train",4120.0,"2021-11-27 12:12:13.252823","","","","","","",""
3.0,0.09649920463562012,0.0003762667513775148,"train",4140.0,"2021-11-27 12:12:17.520063","","","","","","",""
3.0,0.10627245157957077,0.0003789770599864498,"train",4160.0,"2021-11-27 12:12:21.494858","","","","","","",""
3.0,0.08509357273578644,0.000381697424903113,"train",4180.0,"2021-11-27 12:12:25.474270","","","","","","",""
3.0,0.07767949253320694,0.0003844278047419108,"train",4200.0,"2021-11-27 12:12:29.448332","","","","","","",""
3.0,0.08708050101995468,0.0003871681579648903,"train",4220.0,"2021-11-27 12:12:33.836107","","","","","","",""
3.0,0.06932608038187027,0.0003899184428823709,"train",4240.0,"2021-11-27 12:12:38.123073","","","","","","",""
3.0,0.0900118499994278,0.0003926786176535783,"train",4260.0,"2021-11-27 12:12:42.225217","","","","","","",""
3.0,0.08439786732196808,0.0003954486402872818,"train",4280.0,"2021-11-27 12:12:46.455908","","","","","","",""
3.0,"","","train",4296.0,"2021-11-27 12:14:35.238623",0.5102233864512843,0.4359497966551069,0.8990341937546122,0.5262213118721422,0.3509202770333337,0.3425163928944895,0.235483389845579
3.0,"","","val",4296.0,"2021-11-27 12:15:04.123883",0.5074799953612432,0.4268029834321541,0.8929679237424868,0.5166906917159282,0.3405951616255194,0.3311135027466807,0.2249641026451445
4.0,0.07941682636737823,0.0003982284686424324,"train",4300.0,"2021-11-27 12:15:09.387288","","","","","","",""
4.0,0.10302433371543884,0.0004010180604288045,"train",4320.0,"2021-11-27 12:15:13.492343","","","","","","",""
4.0,0.06961196660995483,0.00040381737320763873,"train",4340.0,"2021-11-27 12:15:17.784515","","","","","","",""
4.0,0.058575622737407684,0.0004066263643922878,"train",4360.0,"2021-11-27 12:15:21.812444","","","","","","",""
4.0,0.06334090232849121,0.0004094449912488646,"train",4380.0,"2021-11-27 12:15:25.785461","","","","","","",""
4.0,0.09476123005151749,0.0004122732108968923,"train",4400.0,"2021-11-27 12:15:30.074650","","","","","","",""
4.0,0.07607368379831314,0.0004151109803099558,"train",4420.0,"2021-11-27 12:15:34.110662","","","","","","",""
4.0,0.07604161649942398,0.00041795825631635764,"train",4440.0,"2021-11-27 12:15:38.470143","","","","","","",""
4.0,0.068356953561306,0.0004208149955997739,"train",4460.0,"2021-11-27 12:15:42.524094","","","","","","",""
4.0,0.062409430742263794,0.0004236811546999141,"train",4480.0,"2021-11-27 12:15:46.874868","","","","","","",""
4.0,0.07734017819166183,0.0004265566900131805,"train",4500.0,"2021-11-27 12:15:50.972945","","","","","","",""
4.0,0.07689959555864334,0.0004294415577933337,"train",4520.0,"2021-11-27 12:15:55.319606","","","","","","",""
4.0,0.08771383762359619,0.00043233571415215717,"train",4540.0,"2021-11-27 12:15:59.313539","","","","","","",""
4.0,0.06493677198886871,0.0004352391150601242,"train",4560.0,"2021-11-27 12:16:03.629839","","","","","","",""
4.0,0.08192319422960281,0.0004381517163470684,"train",4580.0,"2021-11-27 12:16:07.578829","","","","","","",""
4.0,0.10239754617214203,0.00044107347370285683,"train",4600.0,"2021-11-27 12:16:11.745306","","","","","","",""
4.0,0.08136039972305298,0.00044400434267806194,"train",4620.0,"2021-11-27 12:16:15.813269","","","","","","",""
4.0,0.07501160353422165,0.00044694427868463907,"train",4640.0,"2021-11-27 12:16:20.197172","","","","","","",""
4.0,0.0639917403459549,0.00044989323699660467,"train",4660.0,"2021-11-27 12:16:24.233380","","","","","","",""
4.0,0.09086183458566666,0.0004528511727507165,"train",4680.0,"2021-11-27 12:16:28.524783","","","","","","",""
4.0,0.060344863682985306,0.00045581804094715645,"train",4700.0,"2021-11-27 12:16:32.534906","","","","","","",""
4.0,0.09948062896728516,0.00045879379645021425,"train",4720.0,"2021-11-27 12:16:36.832931","","","","","","",""
4.0,0.06382670998573303,0.0004617783939889759,"train",4740.0,"2021-11-27 12:16:40.789404","","","","","","",""
4.0,0.09921171516180038,0.0004647717881580103,"train",4760.0,"2021-11-27 12:16:45.132227","","","","","","",""
4.0,0.06936015188694,0.0004677739334180617,"train",4780.0,"2021-11-27 12:16:49.167047","","","","","","",""
4.0,0.10283191502094269,0.00047078478409674144,"train",4800.0,"2021-11-27 12:16:53.181707","","","","","","",""
4.0,0.06205334514379501,0.00047380429438922305,"train",4820.0,"2021-11-27 12:16:57.484794","","","","","","",""
4.0,0.08299527317285538,0.00047683241835893946,"train",4840.0,"2021-11-27 12:17:01.523258","","","","","","",""
4.0,0.08196071535348892,0.0004798691099382815,"train",4860.0,"2021-11-27 12:17:05.804242","","","","","","",""
4.0,0.06025341898202896,0.0004829143229292986,"train",4880.0,"2021-11-27 12:17:09.854394","","","","","","",""
4.0,0.0920000821352005,0.0004859680110044023,"train",4900.0,"2021-11-27 12:17:14.141634","","","","","","",""
4.0,0.07705958932638168,0.0004890301277070699,"train",4920.0,"2021-11-27 12:17:18.148046","","","","","","",""
4.0,0.0693577378988266,0.0004921006264525525,"train",4940.0,"2021-11-27 12:17:22.458293","","","","","","",""
4.0,0.08954378962516785,0.0004951794605285824,"train",4960.0,"2021-11-27 12:17:26.409955","","","","","","",""
4.0,0.08661267161369324,0.0004982665830960853,"train",4980.0,"2021-11-27 12:17:30.650069","","","","","","",""
4.0,0.07386656850576401,0.0005013619471898913,"train",5000.0,"2021-11-27 12:17:34.574901","","","","","","",""
4.0,0.08212729543447495,0.0005044655057194504,"train",5020.0,"2021-11-27 12:17:38.845362","","","","","","",""
4.0,0.06416725367307663,0.0005075772114695486,"train",5040.0,"2021-11-27 12:17:42.812778","","","","","","",""
4.0,0.11903022229671478,0.0005106970171010257,"train",5060.0,"2021-11-27 12:17:47.130052","","","","","","",""
4.0,0.08272702991962433,0.0005138248751514966,"train",5080.0,"2021-11-27 12:17:51.190944","","","","","","",""
4.0,0.10262905061244965,0.0005169607380360731,"train",5100.0,"2021-11-27 12:17:55.507126","","","","","","",""
4.0,0.06714038550853729,0.000520104558048086,"train",5120.0,"2021-11-27 12:17:59.565203","","","","","","",""
4.0,0.0832216739654541,0.0005232562873598136,"train",5140.0,"2021-11-27 12:18:04.054667","","","","","","",""
4.0,0.11362283676862717,0.0005264158780232072,"train",5160.0,"2021-11-27 12:18:08.183275","","","","","","",""
4.0,0.0966273695230484,0.0005295832819706228,"train",5180.0,"2021-11-27 12:18:12.681296","","","","","","",""
4.0,0.10145550966262817,0.0005327584510155488,"train",5200.0,"2021-11-27 12:18:16.804385","","","","","","",""
4.0,0.06891502439975739,0.000535941336853343,"train",5220.0,"2021-11-27 12:18:20.765613","","","","","","",""
4.0,0.09730999916791916,0.0005391318910619655,"train",5240.0,"2021-11-27 12:18:25.080412","","","","","","",""
4.0,0.08306556940078735,0.0005423300651027144,"train",5260.0,"2021-11-27 12:18:29.067730","","","","","","",""
4.0,0.09073220193386078,0.0005455358103209663,"train",5280.0,"2021-11-27 12:18:33.340089","","","","","","",""
4.0,0.0671306774020195,0.0005487490779469157,"train",5300.0,"2021-11-27 12:18:37.295071","","","","","","",""
4.0,0.10374080389738083,0.000551969819096316,"train",5320.0,"2021-11-27 12:18:41.577754","","","","","","",""
4.0,0.07143719494342804,0.0005551979847712252,"train",5340.0,"2021-11-27 12:18:45.534715","","","","","","",""
4.0,0.09220217168331146,0.0005584335258607489,"train",5360.0,"2021-11-27 12:18:49.822578","","","","","","",""
4.0,"","","train",5370.0,"2021-11-27 12:20:36.768539",0.547391399257804,0.4799206924074536,0.9184715996077355,0.5432918010879769,0.36433544733414747,0.3701950307883586,0.25277926712211685
4.0,"","","val",5370.0,"2021-11-27 12:21:06.167410",0.5352545517801229,0.46886931937587456,0.913020813064161,0.5274728284837616,0.3567984084088526,0.35984563128712743,0.24429733611358373
5.0,0.07740725576877594,0.0005616763931417894,"train",5380.0,"2021-11-27 12:21:12.250824","","","","","","",""
5.0,0.07972154766321182,0.0005649265372797939,"train",5400.0,"2021-11-27 12:21:16.609278","","","","","","",""
5.0,0.06383375078439713,0.0005681839088295046,"train",5420.0,"2021-11-27 12:21:20.878436","","","","","","",""
5.0,0.06583809852600098,0.0005714484582357109,"train",5440.0,"2021-11-27 12:21:24.984873","","","","","","",""
5.0,0.08122167736291885,0.0005747201358340048,"train",5460.0,"2021-11-27 12:21:29.422867","","","","","","",""
5.0,0.08616127073764801,0.0005779988918515344,"train",5480.0,"2021-11-27 12:21:33.933221","","","","","","",""
5.0,0.0829012393951416,0.0005812846764077623,"train",5500.0,"2021-11-27 12:21:38.140712","","","","","","",""
5.0,0.07822825759649277,0.0005845774395152243,"train",5520.0,"2021-11-27 12:21:42.628137","","","","","","",""
5.0,0.0760735496878624,0.0005878771310802895,"train",5540.0,"2021-11-27 12:21:46.805884","","","","","","",""
5.0,0.08168607205152512,0.0005911837009039229,"train",5560.0,"2021-11-27 12:21:51.335693","","","","","","",""
5.0,0.08593185245990753,0.0005944970986824485,"train",5580.0,"2021-11-27 12:21:55.669424","","","","","","",""
5.0,0.09951167553663254,0.000597817274008315,"train",5600.0,"2021-11-27 12:21:59.703102","","","","","","",""
5.0,0.07661709934473038,0.0006011441763708635,"train",5620.0,"2021-11-27 12:22:04.041137","","","","","","",""
5.0,0.08728581666946411,0.0006044777551570929,"train",5640.0,"2021-11-27 12:22:08.404409","","","","","","",""
5.0,0.09997951239347458,0.000607817959652434,"train",5660.0,"2021-11-27 12:22:12.567401","","","","","","",""
5.0,0.10202279686927795,0.0006111647390415189,"train",5680.0,"2021-11-27 12:22:16.807386","","","","","","",""
5.0,0.06941220909357071,0.0006145180424089525,"train",5700.0,"2021-11-27 12:22:20.740337","","","","","","",""
5.0,0.060808826237916946,0.0006178778187400902,"train",5720.0,"2021-11-27 12:22:24.932673","","","","","","",""
5.0,0.06642405688762665,0.0006212440169218129,"train",5740.0,"2021-11-27 12:22:29.146024","","","","","","",""
5.0,0.08648188412189484,0.0006246165857433027,"train",5760.0,"2021-11-27 12:22:33.214436","","","","","","",""
5.0,0.07898571342229843,0.0006279954738968251,"train",5780.0,"2021-11-27 12:22:37.666114","","","","","","",""
5.0,0.07613284885883331,0.0006313806299785075,"train",5800.0,"2021-11-27 12:22:42.089137","","","","","","",""
5.0,0.06978107988834381,0.0006347720024891209,"train",5820.0,"2021-11-27 12:22:46.055664","","","","","","",""
5.0,0.07029785215854645,0.0006381695398348657,"train",5840.0,"2021-11-27 12:22:50.370716","","","","","","",""
5.0,0.07070928066968918,0.0006415731903281542,"train",5860.0,"2021-11-27 12:22:54.423489","","","","","","",""
5.0,0.07952747493982315,0.0006449829021883979,"train",5880.0,"2021-11-27 12:22:58.817849","","","","","","",""
5.0,0.09936930984258652,0.0006483986235427956,"train",5900.0,"2021-11-27 12:23:03.124369","","","","","","",""
5.0,0.08619288355112076,0.0006518203024271213,"train",5920.0,"2021-11-27 12:23:07.240075","","","","","","",""
5.0,0.0941355973482132,0.0006552478867865169,"train",5940.0,"2021-11-27 12:23:11.717173","","","","","","",""
5.0,0.0926775261759758,0.0006586813244762815,"train",5960.0,"2021-11-27 12:23:16.162950","","","","","","",""
5.0,0.07018913328647614,0.0006621205632626672,"train",5980.0,"2021-11-27 12:23:20.265518","","","","","","",""
5.0,0.07670509070158005,0.0006655655508236717,"train",6000.0,"2021-11-27 12:23:24.683375","","","","","","",""
5.0,0.0988648533821106,0.0006690162347498356,"train",6020.0,"2021-11-27 12:23:28.762223","","","","","","",""
5.0,0.073163703083992,0.0006724725625450389,"train",6040.0,"2021-11-27 12:23:33.167110","","","","","","",""
5.0,0.07606728374958038,0.0006759344816273003,"train",6060.0,"2021-11-27 12:23:37.567743","","","","","","",""
5.0,0.10751248151063919,0.0006794019393295771,"train",6080.0,"2021-11-27 12:23:41.681431","","","","","","",""
5.0,0.10680786520242691,0.0006828748829005654,"train",6100.0,"2021-11-27 12:23:46.102740","","","","","","",""
5.0,0.11192872375249863,0.0006863532595055041,"train",6120.0,"2021-11-27 12:23:50.574761","","","","","","",""
5.0,0.09274648129940033,0.0006898370162269777,"train",6140.0,"2021-11-27 12:23:54.647049","","","","","","",""
5.0,0.08495545387268066,0.0006933261000657217,"train",6160.0,"2021-11-27 12:23:59.047310","","","","","","",""
5.0,0.060647569596767426,0.000696820457941429,"train",6180.0,"2021-11-27 12:24:03.153901","","","","","","",""
5.0,0.06881999969482422,0.000700320036693557,"train",6200.0,"2021-11-27 12:24:07.573664","","","","","","",""
5.0,0.07707110792398453,0.0007038247830821358,"train",6220.0,"2021-11-27 12:24:12.131624","","","","","","",""
5.0,0.06519109010696411,0.0007073346437885815,"train",6240.0,"2021-11-27 12:24:16.326740","","","","","","",""
5.0,0.0713849663734436,0.000710849565416502,"train",6260.0,"2021-11-27 12:24:20.876057","","","","","","",""
5.0,0.08988954871892929,0.0007143694944925134,"train",6280.0,"2021-11-27 12:24:25.453292","","","","","","",""
5.0,0.07104239612817764,0.0007178943774670524,"train",6300.0,"2021-11-27 12:24:29.509130","","","","","","",""
5.0,0.09455591440200806,0.0007214241607151901,"train",6320.0,"2021-11-27 12:24:33.822136","","","","","","",""
5.0,0.11778956651687622,0.000724958790537449,"train",6340.0,"2021-11-27 12:24:37.828507","","","","","","",""
5.0,0.09381142258644104,0.0007284982131606195,"train",6360.0,"2021-11-27 12:24:42.184289","","","","","","",""
5.0,0.08002003282308578,0.0007320423747385781,"train",6380.0,"2021-11-27 12:24:46.679615","","","","","","",""
5.0,0.12412360310554504,0.0007355912213531054,"train",6400.0,"2021-11-27 12:24:50.831458","","","","","","",""
5.0,0.06825599819421768,0.000739144699014708,"train",6420.0,"2021-11-27 12:24:55.131724","","","","","","",""
5.0,0.10932488739490509,0.0007427027536634401,"train",6440.0,"2021-11-27 12:24:59.336192","","","","","","",""
5.0,"","","train",6444.0,"2021-11-27 12:26:44.232081",0.5624536127483082,0.5047343983293092,0.9247995398689869,0.5765535013846312,0.41336861260038116,0.41627805783439026,0.28503763236837115
5.0,"","","val",6444.0,"2021-11-27 12:27:13.442414",0.5514902006262322,0.48545573129858066,0.9181391699428061,0.5590136989456639,0.397484961537794,0.4005371726071473,0.2688007612204281
6.0,0.07000897824764252,0.0007462653311697235,"train",6460.0,"2021-11-27 12:27:20.874134","","","","","","",""
6.0,0.10085207223892212,0.0007498323773351733,"train",6480.0,"2021-11-27 12:27:25.395524","","","","","","",""
6.0,0.08148188889026642,0.0007534038378934223,"train",6500.0,"2021-11-27 12:27:29.849917","","","","","","",""
6.0,0.08815226703882217,0.0007569796585109453,"train",6520.0,"2021-11-27 12:27:34.020970","","","","","","",""
6.0,0.08959629386663437,0.0007605597847878862,"train",6540.0,"2021-11-27 12:27:38.547724","","","","","","",""
6.0,0.05990822613239288,0.0007641441622588871,"train",6560.0,"2021-11-27 12:27:43.000362","","","","","","",""
6.0,0.07426893711090088,0.0007677327363939143,"train",6580.0,"2021-11-27 12:27:47.482857","","","","","","",""
6.0,0.06303544342517853,0.0007713254525990895,"train",6600.0,"2021-11-27 12:27:51.576776","","","","","","",""
6.0,0.06480977684259415,0.0007749222562175211,"train",6620.0,"2021-11-27 12:27:55.891971","","","","","","",""
6.0,0.08945496380329132,0.000778523092530133,"train",6640.0,"2021-11-27 12:28:00.130188","","","","","","",""
6.0,0.06945296376943588,0.0007821279067564996,"train",6660.0,"2021-11-27 12:28:04.253580","","","","","","",""
6.0,0.05700608715415001,0.0007857366440556786,"train",6680.0,"2021-11-27 12:28:08.661234","","","","","","",""
6.0,0.08250212669372559,0.0007893492495270442,"train",6700.0,"2021-11-27 12:28:13.098557","","","","","","",""
6.0,0.12047407776117325,0.0007929656682111239,"train",6720.0,"2021-11-27 12:28:17.624082","","","","","","",""
6.0,0.06327521055936813,0.0007965858450904332,"train",6740.0,"2021-11-27 12:28:21.801885","","","","","","",""
6.0,0.05205332487821579,0.000800209725090314,"train",6760.0,"2021-11-27 12:28:26.223903","","","","","","",""
6.0,0.06260374933481216,0.0008038372530797706,"train",6780.0,"2021-11-27 12:28:30.550181","","","","","","",""
6.0,0.06943897157907486,0.0008074683738723109,"train",6800.0,"2021-11-27 12:28:34.566710","","","","","","",""
6.0,0.06625496596097946,0.0008111030322267832,"train",6820.0,"2021-11-27 12:28:38.897921","","","","","","",""
6.0,0.08132921904325485,0.0008147411728482187,"train",6840.0,"2021-11-27 12:28:43.232114","","","","","","",""
6.0,0.0984625518321991,0.0008183827403886721,"train",6860.0,"2021-11-27 12:28:47.554807","","","","","","",""
6.0,0.11483805626630783,0.0008220276794480633,"train",6880.0,"2021-11-27 12:28:51.650490","","","","","","",""
6.0,0.07506587356328964,0.0008256759345750203,"train",6900.0,"2021-11-27 12:28:56.049320","","","","","","",""
6.0,0.08636242151260376,0.0008293274502677234,"train",6920.0,"2021-11-27 12:29:00.526439","","","","","","",""
6.0,0.056885119527578354,0.0008329821709747486,"train",6940.0,"2021-11-27 12:29:04.611972","","","","","","",""
6.0,0.05697837471961975,0.0008366400410959136,"train",6960.0,"2021-11-27 12:29:09.029157","","","","","","",""
6.0,0.11824963986873627,0.000840301004983123,"train",6980.0,"2021-11-27 12:29:13.451504","","","","","","",""
6.0,0.08293238282203674,0.0008439650069412147,"train",7000.0,"2021-11-27 12:29:17.907148","","","","","","",""
6.0,0.11878803372383118,0.0008476319912288095,"train",7020.0,"2021-11-27 12:29:22.122948","","","","","","",""
6.0,0.09585928916931152,0.0008513019020591544,"train",7040.0,"2021-11-27 12:29:26.634764","","","","","","",""
6.0,0.0888567864894867,0.0008549746836009771,"train",7060.0,"2021-11-27 12:29:31.135230","","","","","","",""
6.0,0.0814630314707756,0.0008586502799793306,"train",7080.0,"2021-11-27 12:29:35.293087","","","","","","",""
6.0,0.11179032921791077,0.0008623286352764453,"train",7100.0,"2021-11-27 12:29:39.684936","","","","","","",""
6.0,0.06329357624053955,0.0008660096935325802,"train",7120.0,"2021-11-27 12:29:44.023705","","","","","","",""
6.0,0.07899840921163559,0.0008696933987468731,"train",7140.0,"2021-11-27 12:29:48.456215","","","","","","",""
6.0,0.05635586008429527,0.0008733796948781924,"train",7160.0,"2021-11-27 12:29:52.630085","","","","","","",""
6.0,0.05724216625094414,0.0008770685258459915,"train",7180.0,"2021-11-27 12:29:57.039433","","","","","","",""
6.0,0.07855625450611115,0.0008807598355311595,"train",7200.0,"2021-11-27 12:30:01.411725","","","","","","",""
6.0,0.06326399743556976,0.0008844535677768764,"train",7220.0,"2021-11-27 12:30:05.490586","","","","","","",""
6.0,0.07534199208021164,0.0008881496663894681,"train",7240.0,"2021-11-27 12:30:09.935166","","","","","","",""
6.0,0.07630109041929245,0.0008918480751392592,"train",7260.0,"2021-11-27 12:30:14.443225","","","","","","",""
6.0,0.0544758215546608,0.00089554873776143,"train",7280.0,"2021-11-27 12:30:18.943884","","","","","","",""
6.0,0.08415644615888596,0.0008992515979568724,"train",7300.0,"2021-11-27 12:30:23.144212","","","","","","",""
6.0,0.08032983541488647,0.0009029565993930457,"train",7320.0,"2021-11-27 12:30:27.525898","","","","","","",""
6.0,0.07235430181026459,0.0009066636857048339,"train",7340.0,"2021-11-27 12:30:31.811118","","","","","","",""
6.0,0.06238425150513649,0.0009103728004954039,"train",7360.0,"2021-11-27 12:30:35.806197","","","","","","",""
6.0,0.06715075671672821,0.0009140838873370617,"train",7380.0,"2021-11-27 12:30:40.095146","","","","","","",""
6.0,0.05787872523069382,0.0009177968897721136,"train",7400.0,"2021-11-27 12:30:44.399052","","","","","","",""
6.0,0.06991864740848541,0.0009215117513137218,"train",7420.0,"2021-11-27 12:30:48.694756","","","","","","",""
6.0,0.09194923937320709,0.0009252284154467663,"train",7440.0,"2021-11-27 12:30:52.685987","","","","","","",""
6.0,0.06286188960075378,0.0009289468256287042,"train",7460.0,"2021-11-27 12:30:57.032239","","","","","","",""
6.0,0.05073964223265648,0.0009326669252904287,"train",7480.0,"2021-11-27 12:31:01.397792","","","","","","",""
6.0,0.07434455305337906,0.0009363886578371307,"train",7500.0,"2021-11-27 12:31:05.432499","","","","","","",""
6.0,"","","train",7518.0,"2021-11-27 12:32:54.741994",0.5590336898784836,0.5139514888391908,0.9267460564260824,0.5741625166677824,0.40931357438577715,0.4236589785761481,0.27751350883761333
6.0,"","","val",7518.0,"2021-11-27 12:33:23.818576",0.5520120607677143,0.4978224945320163,0.9189983837391662,0.5607985977091858,0.4001729893842411,0.4152871426828899,0.26858226158415227
7.0,0.0650525689125061,0.0009401119666491604,"train",7520.0,"2021-11-27 12:33:28.199735","","","","","","",""
7.0,0.07358039170503616,0.0009438367950828869,"train",7540.0,"2021-11-27 12:33:32.588829","","","","","","",""
7.0,0.07172784954309464,0.000947563086471561,"train",7560.0,"2021-11-27 12:33:36.902474","","","","","","",""
7.0,0.08374476432800293,0.0009512907841261783,"train",7580.0,"2021-11-27 12:33:41.238583","","","","","","",""
7.0,0.09333955496549606,0.0009550198313363391,"train",7600.0,"2021-11-27 12:33:45.563060","","","","","","",""
7.0,0.08214002847671509,0.0009587501713711128,"train",7620.0,"2021-11-27 12:33:49.599668","","","","","","",""
7.0,0.07274510711431503,0.0009624817474799023,"train",7640.0,"2021-11-27 12:33:53.950885","","","","","","",""
7.0,0.06904218345880508,0.0009662145028933038,"train",7660.0,"2021-11-27 12:33:58.230246","","","","","","",""
7.0,0.06941927969455719,0.0009699483808239733,"train",7680.0,"2021-11-27 12:34:02.514190","","","","","","",""
7.0,0.07595298439264297,0.0009736833244674895,"train",7700.0,"2021-11-27 12:34:06.852178","","","","","","",""
7.0,0.08781169354915619,0.0009774192770032192,"train",7720.0,"2021-11-27 12:34:11.150853","","","","","","",""
7.0,0.08276299387216568,0.0009811561815951785,"train",7740.0,"2021-11-27 12:34:15.324747","","","","","","",""
7.0,0.1064792275428772,0.0009848939813929015,"train",7760.0,"2021-11-27 12:34:19.564524","","","","","","",""
7.0,0.07966402173042297,0.0009886326195323026,"train",7780.0,"2021-11-27 12:34:23.561264","","","","","","",""
7.0,0.06117609888315201,0.0009923720391365428,"train",7800.0,"2021-11-27 12:34:27.935182","","","","","","",""
7.0,0.09498631209135056,0.000996112183316893,"train",7820.0,"2021-11-27 12:34:32.269357","","","","","","",""
7.0,0.08620757609605789,0.0009998529951736029,"train",7840.0,"2021-11-27 12:34:36.554311","","","","","","",""
7.0,0.06760960817337036,0.0010035944177967638,"train",7860.0,"2021-11-27 12:34:40.869608","","","","","","",""
7.0,0.06736525148153305,0.0010073363942671744,"train",7880.0,"2021-11-27 12:34:45.084327","","","","","","",""
7.0,0.07475709915161133,0.0010110788676572094,"train",7900.0,"2021-11-27 12:34:49.331268","","","","","","",""
7.0,0.06484423577785492,0.0010148217810316822,"train",7920.0,"2021-11-27 12:34:53.567380","","","","","","",""
7.0,0.08606483787298203,0.0010185650774487127,"train",7940.0,"2021-11-27 12:34:57.538399","","","","","","",""
7.0,0.09260161221027374,0.0010223086999605951,"train",7960.0,"2021-11-27 12:35:01.874049","","","","","","",""
7.0,0.07620781660079956,0.0010260525916146609,"train",7980.0,"2021-11-27 12:35:06.129124","","","","","","",""
7.0,0.08313778787851334,0.0010297966954541469,"train",8000.0,"2021-11-27 12:35:10.428813","","","","","","",""
7.0,0.07144633680582047,0.001033540954519064,"train",8020.0,"2021-11-27 12:35:14.844993","","","","","","",""
7.0,0.07644207775592804,0.0010372853118470592,"train",8040.0,"2021-11-27 12:35:19.244975","","","","","","",""
7.0,0.07086167484521866,0.0010410297104742857,"train",8060.0,"2021-11-27 12:35:23.645480","","","","","","",""
7.0,0.0672038272023201,0.0010447740934362692,"train",8080.0,"2021-11-27 12:35:27.754372","","","","","","",""
7.0,0.08746723085641861,0.0010485184037687715,"train",8100.0,"2021-11-27 12:35:32.164159","","","","","","",""
7.0,0.07841140031814575,0.0010522625845086615,"train",8120.0,"2021-11-27 12:35:36.581612","","","","","","",""
7.0,0.06696092337369919,0.0010560065786947796,"train",8140.0,"2021-11-27 12:35:41.011454","","","","","","",""
7.0,0.04345056787133217,0.0010597503293688013,"train",8160.0,"2021-11-27 12:35:45.423003","","","","","","",""
7.0,0.09901494532823563,0.001063493779576111,"train",8180.0,"2021-11-27 12:35:49.729748","","","","","","",""
7.0,0.07606011629104614,0.0010672368723666614,"train",8200.0,"2021-11-27 12:35:53.987267","","","","","","",""
7.0,0.0539962574839592,0.0010709795507958426,"train",8220.0,"2021-11-27 12:35:58.264947","","","","","","",""
7.0,0.07496751099824905,0.0010747217579253504,"train",8240.0,"2021-11-27 12:36:02.247306","","","","","","",""
7.0,0.09661843627691269,0.0010784634368240487,"train",8260.0,"2021-11-27 12:36:06.485952","","","","","","",""
7.0,0.08289747685194016,0.0010822045305688382,"train",8280.0,"2021-11-27 12:36:10.754261","","","","","","",""
7.0,0.0556415431201458,0.0010859449822455227,"train",8300.0,"2021-11-27 12:36:15.185274","","","","","","",""
7.0,0.09550546109676361,0.001089684734949672,"train",8320.0,"2021-11-27 12:36:19.546335","","","","","","",""
7.0,0.08307622373104095,0.00109342373178749,"train",8340.0,"2021-11-27 12:36:23.868305","","","","","","",""
7.0,0.09536755084991455,0.0010971619158766821,"train",8360.0,"2021-11-27 12:36:28.246819","","","","","","",""
7.0,0.06729152053594589,0.0011008992303473152,"train",8380.0,"2021-11-27 12:36:32.733093","","","","","","",""
7.0,0.06215434893965721,0.001104635618342687,"train",8400.0,"2021-11-27 12:36:36.889634","","","","","","",""
7.0,0.06145952641963959,0.001108371023020191,"train",8420.0,"2021-11-27 12:36:41.337903","","","","","","",""
7.0,0.08800951391458511,0.0011121053875521787,"train",8440.0,"2021-11-27 12:36:45.690501","","","","","","",""
7.0,0.07026472687721252,0.0011158386551268257,"train",8460.0,"2021-11-27 12:36:50.022091","","","","","","",""
7.0,0.09229619801044464,0.0011195707689489972,"train",8480.0,"2021-11-27 12:36:54.321214","","","","","","",""
7.0,0.09362521022558212,0.0011233016722411097,"train",8500.0,"2021-11-27 12:36:58.620421","","","","","","",""
7.0,0.05263187363743782,0.0011270313082439951,"train",8520.0,"2021-11-27 12:37:02.925638","","","","","","",""
7.0,0.08605197072029114,0.001130759620217767,"train",8540.0,"2021-11-27 12:37:06.912433","","","","","","",""
7.0,0.0582149475812912,0.0011344865514426794,"train",8560.0,"2021-11-27 12:37:11.240254","","","","","","",""
7.0,0.08317258954048157,0.0011382120452199938,"train",8580.0,"2021-11-27 12:37:15.565733","","","","","","",""
7.0,"","","train",8592.0,"2021-11-27 12:39:03.738033",0.5854325838608746,0.5443883795515629,0.9343576417597917,0.5953729772072898,0.4416164776351162,0.45415040244704513,0.3049613832207434
7.0,"","","val",8592.0,"2021-11-27 12:39:33.057581",0.5691174765162936,0.5217472910023253,0.925585530330208,0.5743101877426576,0.4263304012533045,0.4352657964713002,0.2886000586353922
8.0,0.07895060628652573,0.001141936044872839,"train",8600.0,"2021-11-27 12:39:38.749009","","","","","","",""
8.0,0.05676666274666786,0.0011456584937470744,"train",8620.0,"2021-11-27 12:39:42.813416","","","","","","",""
8.0,0.09321946650743484,0.0011493793352121522,"train",8640.0,"2021-11-27 12:39:46.868534","","","","","","",""
8.0,0.09918554127216339,0.0011530985126619784,"train",8660.0,"2021-11-27 12:39:50.990961","","","","","","",""
8.0,0.04602582007646561,0.001156815969515773,"train",8680.0,"2021-11-27 12:39:54.985854","","","","","","",""
8.0,0.06523864716291428,0.001160531649218934,"train",8700.0,"2021-11-27 12:39:58.946324","","","","","","",""
8.0,0.10706387460231781,0.001164245495243894,"train",8720.0,"2021-11-27 12:40:02.937422","","","","","","",""
8.0,0.06672865152359009,0.0011679574510909817,"train",8740.0,"2021-11-27 12:40:06.987750","","","","","","",""
8.0,0.04878108203411102,0.0011716674602892828,"train",8760.0,"2021-11-27 12:40:11.087051","","","","","","",""
8.0,0.05765940621495247,0.0011753754663974968,"train",8780.0,"2021-11-27 12:40:15.618802","","","","","","",""
8.0,0.07755861431360245,0.0011790814130047968,"train",8800.0,"2021-11-27 12:40:19.800926","","","","","","",""
8.0,0.0644330084323883,0.001182785243731688,"train",8820.0,"2021-11-27 12:40:23.931173","","","","","","",""
8.0,0.08216790109872818,0.0011864869022308656,"train",8840.0,"2021-11-27 12:40:28.050511","","","","","","",""
8.0,0.06158696860074997,0.0011901863321880693,"train",8860.0,"2021-11-27 12:40:32.088150","","","","","","",""
8.0,0.0694270059466362,0.001193883477322945,"train",8880.0,"2021-11-27 12:40:36.102705","","","","","","",""
8.0,0.08953390270471573,0.0011975782813898961,"train",8900.0,"2021-11-27 12:40:40.001891","","","","","","",""
8.0,0.038260605186223984,0.0012012706881789417,"train",8920.0,"2021-11-27 12:40:43.890000","","","","","","",""
8.0,0.07277639210224152,0.001204960641516572,"train",8940.0,"2021-11-27 12:40:47.806114","","","","","","",""
8.0,0.07716329395771027,0.0012086480852666014,"train",8960.0,"2021-11-27 12:40:51.736884","","","","","","",""
8.0,0.0527694970369339,0.0012123329633310235,"train",8980.0,"2021-11-27 12:40:55.636019","","","","","","",""
8.0,0.09240702539682388,0.0012160152196508643,"train",9000.0,"2021-11-27 12:40:59.593011","","","","","","",""
8.0,0.10077320784330368,0.0012196947982070355,"train",9020.0,"2021-11-27 12:41:04.035958","","","","","","",""
8.0,0.06770674139261246,0.0012233716430211856,"train",9040.0,"2021-11-27 12:41:08.057325","","","","","","",""
8.0,0.08447033166885376,0.001227045698156553,"train",9060.0,"2021-11-27 12:41:12.019442","","","","","","",""
8.0,0.05596235394477844,0.0012307169077188148,"train",9080.0,"2021-11-27 12:41:15.970235","","","","","","",""
8.0,0.06376630067825317,0.0012343852158569401,"train",9100.0,"2021-11-27 12:41:20.001089","","","","","","",""
8.0,0.0896972268819809,0.0012380505667640377,"train",9120.0,"2021-11-27 12:41:23.960000","","","","","","",""
8.0,0.06351808458566666,0.0012417129046782046,"train",9140.0,"2021-11-27 12:41:28.016279","","","","","","",""
8.0,0.11019564419984818,0.0012453721738833758,"train",9160.0,"2021-11-27 12:41:32.148433","","","","","","",""
8.0,0.06691160053014755,0.001249028318710172,"train",9180.0,"2021-11-27 12:41:36.143761","","","","","","",""
8.0,0.05642668157815933,0.0012526812835367447,"train",9200.0,"2021-11-27 12:41:40.161057","","","","","","",""
8.0,0.08630024641752243,0.0012563310127896242,"train",9220.0,"2021-11-27 12:41:44.171618","","","","","","",""
8.0,0.07995317131280899,0.0012599774509445645,"train",9240.0,"2021-11-27 12:41:48.536108","","","","","","",""
8.0,0.07402577996253967,0.0012636205425273874,"train",9260.0,"2021-11-27 12:41:52.503781","","","","","","",""
8.0,0.09069633483886719,0.0012672602321148268,"train",9280.0,"2021-11-27 12:41:56.475697","","","","","","",""
8.0,0.07780788838863373,0.0012708964643353732,"train",9300.0,"2021-11-27 12:42:00.437970","","","","","","",""
8.0,0.06560203433036804,0.001274529183870114,"train",9320.0,"2021-11-27 12:42:04.413568","","","","","","",""
8.0,0.07293541729450226,0.0012781583354535748,"train",9340.0,"2021-11-27 12:42:08.387210","","","","","","",""
8.0,0.06660861521959305,0.0012817838638745646,"train",9360.0,"2021-11-27 12:42:12.354620","","","","","","",""
8.0,0.10764223337173462,0.001285405713977009,"train",9380.0,"2021-11-27 12:42:16.310206","","","","","","",""
8.0,0.06039975583553314,0.0012890238306607947,"train",9400.0,"2021-11-27 12:42:20.261638","","","","","","",""
8.0,0.07790807634592056,0.001292638158882606,"train",9420.0,"2021-11-27 12:42:24.232833","","","","","","",""
8.0,0.08303741365671158,0.0012962486436567603,"train",9440.0,"2021-11-27 12:42:28.163680","","","","","","",""
8.0,0.0478791669011116,0.0012998552300560484,"train",9460.0,"2021-11-27 12:42:32.162453","","","","","","",""
8.0,0.055616047233343124,0.0013034578632125668,"train",9480.0,"2021-11-27 12:42:36.552145","","","","","","",""
8.0,0.055786702781915665,0.0013070564883185534,"train",9500.0,"2021-11-27 12:42:40.728269","","","","","","",""
8.0,0.08361432701349258,0.001310651050627223,"train",9520.0,"2021-11-27 12:42:44.889403","","","","","","",""
8.0,0.08293980360031128,0.001314241495453598,"train",9540.0,"2021-11-27 12:42:49.008631","","","","","","",""
8.0,0.08593077957630157,0.00131782776817534,"train",9560.0,"2021-11-27 12:42:53.165113","","","","","","",""
8.0,0.046896833926439285,0.0013214098142335837,"train",9580.0,"2021-11-27 12:42:57.336140","","","","","","",""
8.0,0.10021993517875671,0.001324987579133764,"train",9600.0,"2021-11-27 12:43:01.274473","","","","","","",""
8.0,0.0567677766084671,0.0013285610084464463,"train",9620.0,"2021-11-27 12:43:05.211742","","","","","","",""
8.0,0.0882394015789032,0.001332130047808155,"train",9640.0,"2021-11-27 12:43:09.189681","","","","","","",""
8.0,0.09180855751037598,0.001335694642922199,"train",9660.0,"2021-11-27 12:43:13.184083","","","","","","",""
8.0,"","","train",9666.0,"2021-11-27 12:44:58.265094",0.5940915375100051,0.5633041466386606,0.9349376551854518,0.6142141767789965,0.4685273131614155,0.48858627187747816,0.32298323886064384
8.0,"","","val",9666.0,"2021-11-27 12:45:27.412973",0.5724225907456801,0.5362017244913095,0.9273422728467728,0.5900360422802343,0.44977612725929883,0.4672399226740623,0.30201944867567726
9.0,0.07605022192001343,0.0013392547395594985,"train",9680.0,"2021-11-27 12:45:34.301288","","","","","","",""
9.0,0.07972224801778793,0.001342810283559412,"train",9700.0,"2021-11-27 12:45:38.763765","","","","","","",""
9.0,0.050425898283720016,0.0013463612208305564,"train",9720.0,"2021-11-27 12:45:42.830900","","","","","","",""
9.0,0.06840415298938751,0.0013499074973516321,"train",9740.0,"2021-11-27 12:45:46.838813","","","","","","",""
9.0,0.07239802926778793,0.0013534490591722464,"train",9760.0,"2021-11-27 12:45:50.847133","","","","","","",""
9.0,0.08085071295499802,0.0013569858524137305,"train",9780.0,"2021-11-27 12:45:54.836435","","","","","","",""
9.0,0.06325626373291016,0.001360517823269962,"train",9800.0,"2021-11-27 12:45:59.215214","","","","","","",""
9.0,0.06550601869821548,0.0013640449180081834,"train",9820.0,"2021-11-27 12:46:03.221309","","","","","","",""
9.0,0.05543531849980354,0.0013675670829698173,"train",9840.0,"2021-11-27 12:46:07.299824","","","","","","",""
9.0,0.08221712708473206,0.0013710842645712853,"train",9860.0,"2021-11-27 12:46:11.372252","","","","","","",""
9.0,0.07121468335390091,0.0013745964093048219,"train",9880.0,"2021-11-27 12:46:15.428017","","","","","","",""
9.0,0.05946880951523781,0.0013781034637392886,"train",9900.0,"2021-11-27 12:46:19.400816","","","","","","",""
9.0,0.060364194214344025,0.0013816053745209864,"train",9920.0,"2021-11-27 12:46:23.849894","","","","","","",""
9.0,0.06197809800505638,0.0013851020883744697,"train",9940.0,"2021-11-27 12:46:27.853744","","","","","","",""
9.0,0.08081407099962234,0.001388593552103353,"train",9960.0,"2021-11-27 12:46:31.826801","","","","","","",""
9.0,0.0914512649178505,0.0013920797125911233,"train",9980.0,"2021-11-27 12:46:35.851538","","","","","","",""
9.0,0.068712018430233,0.001395560516801947,"train",10000.0,"2021-11-27 12:46:39.758884","","","","","","",""
9.0,0.08592531085014343,0.0013990359117814774,"train",10020.0,"2021-11-27 12:46:43.910556","","","","","","",""
9.0,0.07887908071279526,0.0014025058446576583,"train",10040.0,"2021-11-27 12:46:48.284122","","","","","","",""
9.0,0.08078465610742569,0.0014059702626415317,"train",10060.0,"2021-11-27 12:46:52.429601","","","","","","",""
9.0,0.07502113282680511,0.0014094291130280377,"train",10080.0,"2021-11-27 12:46:56.546051","","","","","","",""
9.0,0.05080338940024376,0.0014128823431968183,"train",10100.0,"2021-11-27 12:47:00.721588","","","","","","",""
9.0,0.05310438573360443,0.001416329900613017,"train",10120.0,"2021-11-27 12:47:04.769282","","","","","","",""
9.0,0.07205422967672348,0.0014197717328280782,"train",10140.0,"2021-11-27 12:47:08.786978","","","","","","",""
9.0,0.0648932084441185,0.0014232077874805457,"train",10160.0,"2021-11-27 12:47:13.201528","","","","","","",""
9.0,0.07884913682937622,0.0014266380122968589,"train",10180.0,"2021-11-27 12:47:17.217302","","","","","","",""
9.0,0.06650207191705704,0.0014300623550921468,"train",10200.0,"2021-11-27 12:47:21.215348","","","","","","",""
9.0,0.09881323575973511,0.0014334807637710243,"train",10220.0,"2021-11-27 12:47:25.367152","","","","","","",""
9.0,0.053889550268650055,0.0014368931863283831,"train",10240.0,"2021-11-27 12:47:29.358152","","","","","","",""
9.0,0.06391091644763947,0.0014402995708501826,"train",10260.0,"2021-11-27 12:47:33.389005","","","","","","",""
9.0,0.06316725164651871,0.0014436998655142422,"train",10280.0,"2021-11-27 12:47:37.738848","","","","","","",""
9.0,0.0720892921090126,0.0014470940185910258,"train",10300.0,"2021-11-27 12:47:41.856729","","","","","","",""
9.0,0.06521566957235336,0.001450481978444431,"train",10320.0,"2021-11-27 12:47:45.918577","","","","","","",""
9.0,0.07764172554016113,0.0014538636935325763,"train",10340.0,"2021-11-27 12:47:49.920266","","","","","","",""
9.0,0.08997447788715363,0.0014572391124085817,"train",10360.0,"2021-11-27 12:47:53.882606","","","","","","",""
9.0,0.09339536726474762,0.0014606081837213525,"train",10380.0,"2021-11-27 12:47:58.029485","","","","","","",""
9.0,0.08711213618516922,0.0014639708562163639,"train",10400.0,"2021-11-27 12:48:02.502896","","","","","","",""
9.0,0.06466156244277954,0.001467327078736435,"train",10420.0,"2021-11-27 12:48:06.696158","","","","","","",""
9.0,0.07271257042884827,0.0014706768002225108,"train",10440.0,"2021-11-27 12:48:10.822259","","","","","","",""
9.0,0.07760898023843765,0.0014740199697144392,"train",10460.0,"2021-11-27 12:48:14.909683","","","","","","",""
9.0,0.07381744682788849,0.0014773565363517442,"train",10480.0,"2021-11-27 12:48:18.952902","","","","","","",""
9.0,0.08403076231479645,0.0014806864493744007,"train",10500.0,"2021-11-27 12:48:22.950365","","","","","","",""
9.0,0.04886004701256752,0.0014840096581236072,"train",10520.0,"2021-11-27 12:48:27.269129","","","","","","",""
9.0,0.07663935422897339,0.001487326112042556,"train",10540.0,"2021-11-27 12:48:31.259237","","","","","","",""
9.0,0.05212070420384407,0.0014906357606772013,"train",10560.0,"2021-11-27 12:48:35.365907","","","","","","",""
9.0,0.08682218194007874,0.0014939385536770291,"train",10580.0,"2021-11-27 12:48:39.478307","","","","","","",""
9.0,0.10250364989042282,0.0014972344407958218,"train",10600.0,"2021-11-27 12:48:43.508951","","","","","","",""
9.0,0.08462926745414734,0.0015005233718924213,"train",10620.0,"2021-11-27 12:48:47.710597","","","","","","",""
9.0,0.10973022878170013,0.0015038052969314946,"train",10640.0,"2021-11-27 12:48:52.108744","","","","","","",""
9.0,0.05987577512860298,0.0015070801659842939,"train",10660.0,"2021-11-27 12:48:56.166328","","","","","","",""
9.0,0.0908416286110878,0.001510347929229414,"train",10680.0,"2021-11-27 12:49:00.201318","","","","","","",""
9.0,0.056756842881441116,0.0015136085369535537,"train",10700.0,"2021-11-27 12:49:04.114085","","","","","","",""
9.0,0.06267113983631134,0.0015168619395522708,"train",10720.0,"2021-11-27 12:49:08.041262","","","","","","",""
9.0,0.08304481208324432,0.0015201080875307349,"train",10740.0,"2021-11-27 12:49:11.907711","","","","","","",""
9.0,"","","train",10740.0,"2021-11-27 12:50:57.289269",0.5987775594848287,0.5786470765148773,0.9430841606130296,0.6163146710091364,0.4751313641194091,0.4846843807403542,0.3270156737325145
9.0,"","","val",10740.0,"2021-11-27 12:51:26.431908",0.5809463063898875,0.5500157753240325,0.9354100105509648,0.595133785544586,0.4570282172575648,0.46397712141053166,0.30740101662706865
10.0,0.0735192596912384,0.0015233469315044834,"train",10760.0,"2021-11-27 12:51:34.787313","","","","","","",""
10.0,0.05369536951184273,0.0015265784222001709,"train",10780.0,"2021-11-27 12:51:38.746278","","","","","","",""
10.0,0.08928203582763672,0.0015298025104563185,"train",10800.0,"2021-11-27 12:51:42.893340","","","","","","",""
10.0,0.09050855040550232,0.001533019147224064,"train",10820.0,"2021-11-27 12:51:46.750633","","","","","","",""
10.0,0.07823164016008377,0.0015362282835679054,"train",10840.0,"2021-11-27 12:51:50.616973","","","","","","",""
10.0,0.07616322487592697,0.0015394298706664469,"train",10860.0,"2021-11-27 12:51:55.009013","","","","","","",""
10.0,0.05802244320511818,0.001542623859813141,"train",10880.0,"2021-11-27 12:51:59.080522","","","","","","",""
10.0,0.09397280216217041,0.00154581020241703,"train",10900.0,"2021-11-27 12:52:03.365097","","","","","","",""
10.0,0.0641486793756485,0.0015489888500034858,"train",10920.0,"2021-11-27 12:52:07.307760","","","","","","",""
10.0,0.09904539585113525,0.0015521597542149444,"train",10940.0,"2021-11-27 12:52:11.272496","","","","","","",""
10.0,0.058672212064266205,0.0015553228668116455,"train",10960.0,"2021-11-27 12:52:15.602297","","","","","","",""
10.0,0.0666455626487732,0.0015584781396723642,"train",10980.0,"2021-11-27 12:52:19.470125","","","","","","",""
10.0,0.07765177637338638,0.0015616255247951432,"train",11000.0,"2021-11-27 12:52:23.672904","","","","","","",""
10.0,0.07572181522846222,0.0015647649742980233,"train",11020.0,"2021-11-27 12:52:27.760943","","","","","","",""
10.0,0.0723656415939331,0.0015678964404197727,"train",11040.0,"2021-11-27 12:52:31.745562","","","","","","",""
10.0,0.054909247905015945,0.0015710198755206112,"train",11060.0,"2021-11-27 12:52:36.061938","","","","","","",""
10.0,0.06421630084514618,0.0015741352320829379,"train",11080.0,"2021-11-27 12:52:40.074157","","","","","","",""
10.0,0.08404418081045151,0.0015772424627120527,"train",11100.0,"2021-11-27 12:52:44.409646","","","","","","",""
10.0,0.062060706317424774,0.0015803415201368761,"train",11120.0,"2021-11-27 12:52:48.381111","","","","","","",""
10.0,0.0873689129948616,0.001583432357210671,"train",11140.0,"2021-11-27 12:52:52.343700","","","","","","",""
10.0,0.0628218874335289,0.001586514926911758,"train",11160.0,"2021-11-27 12:52:56.612236","","","","","","",""
10.0,0.0470973402261734,0.0015895891823442313,"train",11180.0,"2021-11-27 12:53:00.626783","","","","","","",""
10.0,0.07312480360269547,0.0015926550767386717,"train",11200.0,"2021-11-27 12:53:04.909966","","","","","","",""
10.0,0.0799989327788353,0.0015957125634528599,"train",11220.0,"2021-11-27 12:53:08.882797","","","","","","",""
10.0,0.06681416928768158,0.0015987615959724836,"train",11240.0,"2021-11-27 12:53:12.841728","","","","","","",""
10.0,0.060003407299518585,0.0016018021279118457,"train",11260.0,"2021-11-27 12:53:17.124609","","","","","","",""
10.0,0.07388638705015182,0.0016048341130145728,"train",11280.0,"2021-11-27 12:53:21.150145","","","","","","",""
10.0,0.0659974217414856,0.0016078575051543145,"train",11300.0,"2021-11-27 12:53:25.545600","","","","","","",""
10.0,0.08200027048587799,0.0016108722583354478,"train",11320.0,"2021-11-27 12:53:29.612640","","","","","","",""
10.0,0.06841877847909927,0.0016138783266937777,"train",11340.0,"2021-11-27 12:53:33.635812","","","","","","",""
10.0,0.09997668862342834,0.0016168756644972322,"train",11360.0,"2021-11-27 12:53:38.105045","","","","","","",""
10.0,0.06612677872180939,0.0016198642261465587,"train",11380.0,"2021-11-27 12:53:42.358171","","","","","","",""
10.0,0.08228904008865356,0.0016228439661760208,"train",11400.0,"2021-11-27 12:53:46.743398","","","","","","",""
10.0,0.05282534286379814,0.001625814839254086,"train",11420.0,"2021-11-27 12:53:50.745302","","","","","","",""
10.0,0.09744465351104736,0.0016287768001841164,"train",11440.0,"2021-11-27 12:53:54.796753","","","","","","",""
10.0,0.08342941105365753,0.001631729803905059,"train",11460.0,"2021-11-27 12:53:59.217299","","","","","","",""
10.0,0.06816109269857407,0.0016346738054921273,"train",11480.0,"2021-11-27 12:54:03.363176","","","","","","",""
10.0,0.07474206387996674,0.001637608760157486,"train",11500.0,"2021-11-27 12:54:07.794581","","","","","","",""
10.0,0.09607027471065521,0.0016405346232509356,"train",11520.0,"2021-11-27 12:54:11.896082","","","","","","",""
10.0,0.08107815682888031,0.0016434513502605861,"train",11540.0,"2021-11-27 12:54:15.865143","","","","","","",""
10.0,0.053911540657281876,0.0016463588968135383,"train",11560.0,"2021-11-27 12:54:20.150528","","","","","","",""
10.0,0.05008414760231972,0.0016492572186765577,"train",11580.0,"2021-11-27 12:54:24.136332","","","","","","",""
10.0,0.08213315159082413,0.001652146271756747,"train",11600.0,"2021-11-27 12:54:28.359364","","","","","","",""
10.0,0.05211407691240311,0.0016550260121022172,"train",11620.0,"2021-11-27 12:54:32.228800","","","","","","",""
10.0,0.0651993602514267,0.0016578963959027562,"train",11640.0,"2021-11-27 12:54:36.174162","","","","","","",""
10.0,0.09103157371282578,0.001660757379490496,"train",11660.0,"2021-11-27 12:54:40.533549","","","","","","",""
10.0,0.09466487169265747,0.0016636089193405761,"train",11680.0,"2021-11-27 12:54:44.420432","","","","","","",""
10.0,0.06936877965927124,0.0016664509720718049,"train",11700.0,"2021-11-27 12:54:48.754398","","","","","","",""
10.0,0.058358874171972275,0.0016692834944473224,"train",11720.0,"2021-11-27 12:54:52.793316","","","","","","",""
10.0,0.09916868060827255,0.0016721064433752554,"train",11740.0,"2021-11-27 12:54:56.742007","","","","","","",""
10.0,0.07890044152736664,0.0016749197759093734,"train",11760.0,"2021-11-27 12:55:01.006656","","","","","","",""
10.0,0.081891730427742,0.0016777234492497436,"train",11780.0,"2021-11-27 12:55:04.969274","","","","","","",""
10.0,0.09390248358249664,0.0016805174207433808,"train",11800.0,"2021-11-27 12:55:09.218589","","","","","","",""
10.0,"","","train",11814.0,"2021-11-27 12:56:56.893200",0.6012369933784472,0.5898971274325616,0.9421169460718921,0.642769038664293,0.4983416888366832,0.5215046074018944,0.34181762609724237
10.0,"","","val",11814.0,"2021-11-27 12:57:26.355700",0.5753797982140786,0.5487841017476334,0.9321713503448273,0.6126833855525139,0.46489062779202467,0.4847064292707054,0.310069873726782
11.0,0.04332834109663963,0.0016833016478848956,"train",11820.0,"2021-11-27 12:57:31.645235","","","","","","",""
11.0,0.07439175993204117,0.0016860760883171426,"train",11840.0,"2021-11-27 12:57:36.073620","","","","","","",""
11.0,0.05291854590177536,0.001688840699831864,"train",11860.0,"2021-11-27 12:57:40.086943","","","","","","",""
11.0,0.08095337450504303,0.0016915954403703313,"train",11880.0,"2021-11-27 12:57:44.440246","","","","","","",""
11.0,0.06305563449859619,0.0016943402680239862,"train",11900.0,"2021-11-27 12:57:48.480248","","","","","","",""
11.0,0.07969816029071808,0.0016970751410350774,"train",11920.0,"2021-11-27 12:57:52.798020","","","","","","",""
11.0,0.06580875813961029,0.001699800017797296,"train",11940.0,"2021-11-27 12:57:56.907732","","","","","","",""
11.0,0.07759672403335571,0.0017025148568564086,"train",11960.0,"2021-11-27 12:58:01.356875","","","","","","",""
11.0,0.0921262800693512,0.001705219616910888,"train",11980.0,"2021-11-27 12:58:05.663580","","","","","","",""
11.0,0.05647788941860199,0.001707914256812541,"train",12000.0,"2021-11-27 12:58:09.683555","","","","","","",""
11.0,0.06074771657586098,0.0017105987355671352,"train",12020.0,"2021-11-27 12:58:14.040487","","","","","","",""
11.0,0.09453665465116501,0.0017132730123350227,"train",12040.0,"2021-11-27 12:58:18.117176","","","","","","",""
11.0,0.07007427513599396,0.00171593704643176,"train",12060.0,"2021-11-27 12:58:22.587511","","","","","","",""
11.0,0.059284038841724396,0.0017185907973287285,"train",12080.0,"2021-11-27 12:58:26.710320","","","","","","",""
11.0,0.10323827713727951,0.0017212342246537506,"train",12100.0,"2021-11-27 12:58:31.148224","","","","","","",""
11.0,0.06920559704303741,0.0017238672881917032,"train",12120.0,"2021-11-27 12:58:35.089470","","","","","","",""
11.0,0.05263851583003998,0.001726489947885131,"train",12140.0,"2021-11-27 12:58:39.392920","","","","","","",""
11.0,0.0777728334069252,0.0017291021638348543,"train",12160.0,"2021-11-27 12:58:43.722158","","","","","","",""
11.0,0.06619623303413391,0.0017317038963005765,"train",12180.0,"2021-11-27 12:58:47.810632","","","","","","",""
11.0,0.058274656534194946,0.00173429510570149,"train",12200.0,"2021-11-27 12:58:52.225043","","","","","","",""
11.0,0.06245546415448189,0.0017368757526168759,"train",12220.0,"2021-11-27 12:58:56.272948","","","","","","",""
11.0,0.07676626741886139,0.0017394457977867057,"train",12240.0,"2021-11-27 12:59:00.685584","","","","","","",""
11.0,0.061999037861824036,0.0017420052021122378,"train",12260.0,"2021-11-27 12:59:04.803558","","","","","","",""
11.0,0.06940507888793945,0.0017445539266566128,"train",12280.0,"2021-11-27 12:59:09.237946","","","","","","",""
11.0,0.06924644857645035,0.001747091932645445,"train",12300.0,"2021-11-27 12:59:13.334031","","","","","","",""
11.0,0.0657896175980568,0.0017496191814674125,"train",12320.0,"2021-11-27 12:59:17.744516","","","","","","",""
11.0,0.06705732643604279,0.001752135634674846,"train",12340.0,"2021-11-27 12:59:22.175150","","","","","","",""
11.0,0.0697251558303833,0.0017546412539843118,"train",12360.0,"2021-11-27 12:59:26.203320","","","","","","",""
11.0,0.06055788695812225,0.001757136001277194,"train",12380.0,"2021-11-27 12:59:30.520288","","","","","","",""
11.0,0.04614430293440819,0.001759619838600278,"train",12400.0,"2021-11-27 12:59:34.503566","","","","","","",""
11.0,0.07793005555868149,0.0017620927281663229,"train",12420.0,"2021-11-27 12:59:38.842159","","","","","","",""
11.0,0.06657733768224716,0.0017645546323546398,"train",12440.0,"2021-11-27 12:59:42.873304","","","","","","",""
11.0,0.085230253636837,0.0017670055137116636,"train",12460.0,"2021-11-27 12:59:47.119603","","","","","","",""
11.0,0.0729147419333458,0.0017694453349515209,"train",12480.0,"2021-11-27 12:59:51.089095","","","","","","",""
11.0,0.06951676309108734,0.0017718740589566,"train",12500.0,"2021-11-27 12:59:55.414467","","","","","","",""
11.0,0.08654504269361496,0.0017742916487781134,"train",12520.0,"2021-11-27 12:59:59.799857","","","","","","",""
11.0,0.06565424054861069,0.0017766980676366608,"train",12540.0,"2021-11-27 13:00:03.889526","","","","","","",""
11.0,0.12106235325336456,0.001779093278922789,"train",12560.0,"2021-11-27 13:00:08.356254","","","","","","",""
11.0,0.08435068279504776,0.001781477246197548,"train",12580.0,"2021-11-27 13:00:12.504738","","","","","","",""
11.0,0.0786655992269516,0.0017838499331930462,"train",12600.0,"2021-11-27 13:00:16.945925","","","","","","",""
11.0,0.07509377598762512,0.001786211303813001,"train",12620.0,"2021-11-27 13:00:21.102276","","","","","","",""
11.0,0.06174354627728462,0.0017885613221332894,"train",12640.0,"2021-11-27 13:00:25.446084","","","","","","",""
11.0,0.08530936390161514,0.0017908999524024931,"train",12660.0,"2021-11-27 13:00:29.411309","","","","","","",""
11.0,0.07332005351781845,0.0017932271590424438,"train",12680.0,"2021-11-27 13:00:33.712662","","","","","","",""
11.0,0.054979223757982254,0.0017955429066487635,"train",12700.0,"2021-11-27 13:00:38.007499","","","","","","",""
11.0,0.04943930730223656,0.0017978471599914025,"train",12720.0,"2021-11-27 13:00:41.940946","","","","","","",""
11.0,0.09241782873868942,0.0018001398840151778,"train",12740.0,"2021-11-27 13:00:46.159371","","","","","","",""
11.0,0.07624737173318863,0.0018024210438403031,"train",12760.0,"2021-11-27 13:00:50.061176","","","","","","",""
11.0,0.08575025200843811,0.0018046906047629228,"train",12780.0,"2021-11-27 13:00:54.305388","","","","","","",""
11.0,0.08207455277442932,0.0018069485322556372,"train",12800.0,"2021-11-27 13:00:58.329911","","","","","","",""
11.0,0.09315793961286545,0.001809194791968029,"train",12820.0,"2021-11-27 13:01:02.645786","","","","","","",""
11.0,0.09638015180826187,0.0018114293497271863,"train",12840.0,"2021-11-27 13:01:06.610065","","","","","","",""
11.0,0.06652697920799255,0.0018136521715382218,"train",12860.0,"2021-11-27 13:01:10.879370","","","","","","",""
11.0,0.07174947112798691,0.0018158632235847892,"train",12880.0,"2021-11-27 13:01:15.141202","","","","","","",""
11.0,"","","train",12888.0,"2021-11-27 13:03:00.976100",0.6043076475296515,0.5994420018533149,0.9460152036671865,0.645479126946508,0.4963138850248171,0.5165449043492604,0.3409922068727655
11.0,"","","val",12888.0,"2021-11-27 13:03:30.282858",0.5864548301055317,0.5585585369181105,0.9354353767066592,0.618599861921441,0.4713021421786676,0.48790678576361707,0.3174755025835067
12.0,0.08590331673622131,0.0018180624722295999,"train",12900.0,"2021-11-27 13:03:36.968096","","","","","","",""
12.0,0.06010911241173744,0.001820249884014933,"train",12920.0,"2021-11-27 13:03:41.612313","","","","","","",""
12.0,0.05120467022061348,0.001822425425663144,"train",12940.0,"2021-11-27 13:03:46.150895","","","","","","",""
12.0,0.08584168553352356,0.0018245890640771725,"train",12960.0,"2021-11-27 13:03:50.428475","","","","","","",""
12.0,0.0701730027794838,0.0018267407663410452,"train",12980.0,"2021-11-27 13:03:54.855570","","","","","","",""
12.0,0.07503363490104675,0.0018288804997203755,"train",13000.0,"2021-11-27 13:03:59.085305","","","","","","",""
12.0,0.0773690864443779,0.0018310082316628634,"train",13020.0,"2021-11-27 13:04:03.408613","","","","","","",""
12.0,0.08324111998081207,0.0018331239297987893,"train",13040.0,"2021-11-27 13:04:07.422939","","","","","","",""
12.0,0.061834916472435,0.0018352275619415066,"train",13060.0,"2021-11-27 13:04:11.720329","","","","","","",""
12.0,0.057132869958877563,0.0018373190960879326,"train",13080.0,"2021-11-27 13:04:15.943780","","","","","","",""
12.0,0.0847482904791832,0.0018393985004190336,"train",13100.0,"2021-11-27 13:04:19.866140","","","","","","",""
12.0,0.0615059956908226,0.00184146574330031,"train",13120.0,"2021-11-27 13:04:24.241612","","","","","","",""
12.0,0.09111243486404419,0.001843520793282278,"train",13140.0,"2021-11-27 13:04:28.640657","","","","","","",""
12.0,0.09818790853023529,0.0018455636191009464,"train",13160.0,"2021-11-27 13:04:33.043729","","","","","","",""
12.0,0.07910985499620438,0.001847594189678294,"train",13180.0,"2021-11-27 13:04:37.119823","","","","","","",""
12.0,0.06777606159448624,0.0018496124741227415,"train",13200.0,"2021-11-27 13:04:41.515241","","","","","","",""
12.0,0.06891228258609772,0.001851618441729622,"train",13220.0,"2021-11-27 13:04:45.888444","","","","","","",""
12.0,0.06385423243045807,0.0018536120619816467,"train",13240.0,"2021-11-27 13:04:49.916607","","","","","","",""
12.0,0.06409783661365509,0.0018555933045493712,"train",13260.0,"2021-11-27 13:04:54.251034","","","","","","",""
12.0,0.07196298986673355,0.0018575621392916554,"train",13280.0,"2021-11-27 13:04:58.615644","","","","","","",""
12.0,0.09179577976465225,0.0018595185362561225,"train",13300.0,"2021-11-27 13:05:02.905085","","","","","","",""
12.0,0.06838719546794891,0.0018614624656796155,"train",13320.0,"2021-11-27 13:05:06.929684","","","","","","",""
12.0,0.054382845759391785,0.0018633938979886484,"train",13340.0,"2021-11-27 13:05:11.368384","","","","","","",""
12.0,0.05418635159730911,0.0018653128037998568,"train",13360.0,"2021-11-27 13:05:15.676348","","","","","","",""
12.0,0.06874305009841919,0.0018672191539204459,"train",13380.0,"2021-11-27 13:05:19.650855","","","","","","",""
12.0,0.058522749692201614,0.0018691129193486335,"train",13400.0,"2021-11-27 13:05:23.970845","","","","","","",""
12.0,0.06761512905359268,0.0018709940712740908,"train",13420.0,"2021-11-27 13:05:28.289527","","","","","","",""
12.0,0.05230714753270149,0.0018728625810783823,"train",13440.0,"2021-11-27 13:05:32.648612","","","","","","",""
12.0,0.04324967414140701,0.0018747184203353996,"train",13460.0,"2021-11-27 13:05:36.716039","","","","","","",""
12.0,0.056418225169181824,0.0018765615608117947,"train",13480.0,"2021-11-27 13:05:41.195586","","","","","","",""
12.0,0.04652997478842735,0.0018783919744674096,"train",13500.0,"2021-11-27 13:05:45.542162","","","","","","",""
12.0,0.04676085337996483,0.0018802096334557027,"train",13520.0,"2021-11-27 13:05:49.699794","","","","","","",""
12.0,0.058776214718818665,0.0018820145101241712,"train",13540.0,"2021-11-27 13:05:54.101228","","","","","","",""
12.0,0.0511583611369133,0.0018838065770147745,"train",13560.0,"2021-11-27 13:05:58.400673","","","","","","",""
12.0,0.06720544397830963,0.0018855858068643496,"train",13580.0,"2021-11-27 13:06:02.773441","","","","","","",""
12.0,0.07953514158725739,0.001887352172605026,"train",13600.0,"2021-11-27 13:06:06.868134","","","","","","",""
12.0,0.07300125062465668,0.0018891056473646398,"train",13620.0,"2021-11-27 13:06:11.391675","","","","","","",""
12.0,0.06772009283304214,0.0018908462044671395,"train",13640.0,"2021-11-27 13:06:15.896274","","","","","","",""
12.0,0.0697396844625473,0.001892573817432993,"train",13660.0,"2021-11-27 13:06:20.033751","","","","","","",""
12.0,0.05356317013502121,0.0018942884599795914,"train",13680.0,"2021-11-27 13:06:24.434862","","","","","","",""
12.0,0.07787128537893295,0.001895990106021648,"train",13700.0,"2021-11-27 13:06:28.813766","","","","","","",""
12.0,0.0759667158126831,0.0018976787296715943,"train",13720.0,"2021-11-27 13:06:33.290061","","","","","","",""
12.0,0.08063091337680817,0.0018993543052399757,"train",13740.0,"2021-11-27 13:06:37.482175","","","","","","",""
12.0,0.06781353056430817,0.0019010168072358413,"train",13760.0,"2021-11-27 13:06:41.974678","","","","","","",""
12.0,0.04740859940648079,0.0019026662103671305,"train",13780.0,"2021-11-27 13:06:46.440241","","","","","","",""
12.0,0.049967892467975616,0.0019043024895410605,"train",13800.0,"2021-11-27 13:06:50.477327","","","","","","",""
12.0,0.06480501592159271,0.001905925619864506,"train",13820.0,"2021-11-27 13:06:54.869124","","","","","","",""
12.0,0.058680448681116104,0.001907535576644378,"train",13840.0,"2021-11-27 13:06:59.227153","","","","","","",""
12.0,0.07133788615465164,0.0019091323353880008,"train",13860.0,"2021-11-27 13:07:03.594021","","","","","","",""
12.0,0.09863685816526413,0.0019107158718034828,"train",13880.0,"2021-11-27 13:07:07.639987","","","","","","",""
12.0,0.0452907532453537,0.001912286161800088,"train",13900.0,"2021-11-27 13:07:12.029293","","","","","","",""
12.0,0.06256160885095596,0.0019138431814886008,"train",13920.0,"2021-11-27 13:07:16.458092","","","","","","",""
12.0,0.055613476783037186,0.0019153869071816896,"train",13940.0,"2021-11-27 13:07:20.569823","","","","","","",""
12.0,0.052929870784282684,0.0019169173153942693,"train",13960.0,"2021-11-27 13:07:24.807112","","","","","","",""
12.0,"","","train",13962.0,"2021-11-27 13:09:09.908321",0.6175944117005021,0.6164263723693139,0.9482460609937114,0.6481062973050399,0.5166956307414368,0.5357946916129254,0.35859156573015183
12.0,"","","val",13962.0,"2021-11-27 13:09:38.918847",0.5937608720862809,0.5709546669085733,0.9362534564803371,0.6181833657212775,0.4913442408444058,0.5074600310061291,0.3327447055454215
13.0,0.05557174235582352,0.0019184343828438557,"train",13980.0,"2021-11-27 13:09:47.026542","","","","","","",""
13.0,0.0840650349855423,0.0019199380864509208,"train",14000.0,"2021-11-27 13:09:51.448781","","","","","","",""
13.0,0.07517670840024948,0.0019214284033392457,"train",14020.0,"2021-11-27 13:09:55.817069","","","","","","",""
13.0,0.08368491381406784,0.0019229053108362649,"train",14040.0,"2021-11-27 13:10:00.116127","","","","","","",""
13.0,0.07742531597614288,0.0019243687864734145,"train",14060.0,"2021-11-27 13:10:04.181024","","","","","","",""
13.0,0.04813537001609802,0.0019258188079864732,"train",14080.0,"2021-11-27 13:10:08.610028","","","","","","",""
13.0,0.07928456366062164,0.0019272553533158999,"train",14100.0,"2021-11-27 13:10:13.053131","","","","","","",""
13.0,0.06451775133609772,0.0019286784006071697,"train",14120.0,"2021-11-27 13:10:17.496346","","","","","","",""
13.0,0.05732079967856407,0.0019300879282111083,"train",14140.0,"2021-11-27 13:10:21.964900","","","","","","",""
13.0,0.05462509021162987,0.0019314839146842185,"train",14160.0,"2021-11-27 13:10:26.422782","","","","","","",""
13.0,0.07878588140010834,0.0019328663387890076,"train",14180.0,"2021-11-27 13:10:30.912007","","","","","","",""
13.0,0.09127962589263916,0.0019342351794943119,"train",14200.0,"2021-11-27 13:10:35.420833","","","","","","",""
13.0,0.05332564562559128,0.0019355904159756138,"train",14220.0,"2021-11-27 13:10:39.557203","","","","","","",""
13.0,0.09005382657051086,0.0019369320276153613,"train",14240.0,"2021-11-27 13:10:44.024658","","","","","","",""
13.0,0.04987720400094986,0.00193825999400328,"train",14260.0,"2021-11-27 13:10:48.453997","","","","","","",""
13.0,0.0655573382973671,0.0019395742949366843,"train",14280.0,"2021-11-27 13:10:52.761726","","","","","","",""
13.0,0.05835504084825516,0.0019408749104207845,"train",14300.0,"2021-11-27 13:10:57.152889","","","","","","",""
13.0,0.06197322905063629,0.0019421618206689913,"train",14320.0,"2021-11-27 13:11:01.439880","","","","","","",""
13.0,0.07335841655731201,0.0019434350061032163,"train",14340.0,"2021-11-27 13:11:05.686233","","","","","","",""
13.0,0.08871860057115555,0.0019446944473541703,"train",14360.0,"2021-11-27 13:11:09.844548","","","","","","",""
13.0,0.07490521669387817,0.0019459401252616573,"train",14380.0,"2021-11-27 13:11:13.753709","","","","","","",""
13.0,0.04944772273302078,0.001947172020874868,"train",14400.0,"2021-11-27 13:11:18.072037","","","","","","",""
13.0,0.05737549811601639,0.0019483901154526647,"train",14420.0,"2021-11-27 13:11:22.377134","","","","","","",""
13.0,0.05117195472121239,0.0019495943904638694,"train",14440.0,"2021-11-27 13:11:26.639434","","","","","","",""
13.0,0.08773031830787659,0.0019507848275875444,"train",14460.0,"2021-11-27 13:11:30.940848","","","","","","",""
13.0,0.07514210790395737,0.0019519614087132712,"train",14480.0,"2021-11-27 13:11:35.212604","","","","","","",""
13.0,0.07664384692907333,0.0019531241159414263,"train",14500.0,"2021-11-27 13:11:39.544583","","","","","","",""
13.0,0.07540161907672882,0.001954272931583453,"train",14520.0,"2021-11-27 13:11:43.611556","","","","","","",""
13.0,0.12262405455112457,0.0019554078381621306,"train",14540.0,"2021-11-27 13:11:47.964113","","","","","","",""
13.0,0.062442488968372345,0.0019565288184118417,"train",14560.0,"2021-11-27 13:11:52.358520","","","","","","",""
13.0,0.07812982052564621,0.0019576358552788314,"train",14580.0,"2021-11-27 13:11:56.764027","","","","","","",""
13.0,0.08868153393268585,0.0019587289319214713,"train",14600.0,"2021-11-27 13:12:01.174123","","","","","","",""
13.0,0.0681467279791832,0.0019598080317105113,"train",14620.0,"2021-11-27 13:12:05.538243","","","","","","",""
13.0,0.03580203279852867,0.001960873138229337,"train",14640.0,"2021-11-27 13:12:09.873886","","","","","","",""
13.0,0.06332675367593765,0.0019619242352742153,"train",14660.0,"2021-11-27 13:12:14.289513","","","","","","",""
13.0,0.06832180917263031,0.001962961306854543,"train",14680.0,"2021-11-27 13:12:18.347437","","","","","","",""
13.0,0.06329917162656784,0.0019639843371930905,"train",14700.0,"2021-11-27 13:12:22.685784","","","","","","",""
13.0,0.06591964513063431,0.001964993310726241,"train",14720.0,"2021-11-27 13:12:26.998148","","","","","","",""
13.0,0.06253663450479507,0.0019659882121042262,"train",14740.0,"2021-11-27 13:12:31.349178","","","","","","",""
13.0,0.07041887938976288,0.001966969026191363,"train",14760.0,"2021-11-27 13:12:35.818699","","","","","","",""
13.0,0.047645553946495056,0.0019679357380662805,"train",14780.0,"2021-11-27 13:12:40.288281","","","","","","",""
13.0,0.08459307998418808,0.001968888333022148,"train",14800.0,"2021-11-27 13:12:44.711492","","","","","","",""
13.0,0.05129089951515198,0.0019698267965669,"train",14820.0,"2021-11-27 13:12:49.100309","","","","","","",""
13.0,0.0762089341878891,0.0019707511144234557,"train",14840.0,"2021-11-27 13:12:53.254552","","","","","","",""
13.0,0.0940217450261116,0.001971661272529935,"train",14860.0,"2021-11-27 13:12:57.711017","","","","","","",""
13.0,0.10399183630943298,0.001972557257039875,"train",14880.0,"2021-11-27 13:13:02.127536","","","","","","",""
13.0,0.06721927970647812,0.0019734390543224385,"train",14900.0,"2021-11-27 13:13:06.595563","","","","","","",""
13.0,0.05066124349832535,0.001974306650962622,"train",14920.0,"2021-11-27 13:13:11.068189","","","","","","",""
13.0,0.08882468938827515,0.0019751600337614608,"train",14940.0,"2021-11-27 13:13:15.508219","","","","","","",""
13.0,0.0710187554359436,0.0019759991897362284,"train",14960.0,"2021-11-27 13:13:19.903403","","","","","","",""
13.0,0.06822600960731506,0.0019768241061206343,"train",14980.0,"2021-11-27 13:13:23.910046","","","","","","",""
13.0,0.07407239824533463,0.0019776347703650186,"train",15000.0,"2021-11-27 13:13:28.300628","","","","","","",""
13.0,0.08503813296556473,0.001978431170136543,"train",15020.0,"2021-11-27 13:13:32.749262","","","","","","",""
13.0,"","","train",15036.0,"2021-11-27 13:15:20.469559",0.6328021538237648,0.6281773805676154,0.9496632228924755,0.6511284647344903,0.5196735696329996,0.5341224934602108,0.36768526992693246
13.0,"","","val",15036.0,"2021-11-27 13:15:49.430513",0.6080250492867911,0.5784689549166561,0.9370736934822214,0.6200554946099557,0.48844139991600716,0.5018194269274784,0.334366234753165
14.0,0.07883020490407944,0.0019792132933193784,"train",15040.0,"2021-11-27 13:15:54.137338","","","","","","",""
14.0,0.06542623043060303,0.001979981128014888,"train",15060.0,"2021-11-27 13:15:58.262966","","","","","","",""
14.0,0.12081947922706604,0.001980734662541811,"train",15080.0,"2021-11-27 13:16:02.411643","","","","","","",""
14.0,0.0798850804567337,0.0019814738854364374,"train",15100.0,"2021-11-27 13:16:06.403168","","","","","","",""
14.0,0.05408286303281784,0.0019821987854527832,"train",15120.0,"2021-11-27 13:16:10.477345","","","","","","",""
14.0,0.06114828959107399,0.0019829093515627634,"train",15140.0,"2021-11-27 13:16:14.508813","","","","","","",""
14.0,0.06925872713327408,0.001983605572956358,"train",15160.0,"2021-11-27 13:16:18.509400","","","","","","",""
14.0,0.07580897957086563,0.001984287439041775,"train",15180.0,"2021-11-27 13:16:22.931939","","","","","","",""
14.0,0.052010711282491684,0.001984954939445616,"train",15200.0,"2021-11-27 13:16:27.004438","","","","","","",""
14.0,0.059405770152807236,0.0019856080640130295,"train",15220.0,"2021-11-27 13:16:31.109270","","","","","","",""
14.0,0.05542633309960365,0.0019862468028078676,"train",15240.0,"2021-11-27 13:16:35.001431","","","","","","",""
14.0,0.0596289299428463,0.001986871146112837,"train",15260.0,"2021-11-27 13:16:38.843020","","","","","","",""
14.0,0.04021093621850014,0.0019874810844296466,"train",15280.0,"2021-11-27 13:16:42.679769","","","","","","",""
14.0,0.07814310491085052,0.0019880766084791517,"train",15300.0,"2021-11-27 13:16:46.555212","","","","","","",""
14.0,0.07624626159667969,0.0019886577092014953,"train",15320.0,"2021-11-27 13:16:50.648750","","","","","","",""
14.0,0.07406880706548691,0.001989224377756247,"train",15340.0,"2021-11-27 13:16:54.633330","","","","","","",""
14.0,0.08001210540533066,0.0019897766055225353,"train",15360.0,"2021-11-27 13:16:58.766747","","","","","","",""
14.0,0.05077545717358589,0.0019903143840991813,"train",15380.0,"2021-11-27 13:17:02.802761","","","","","","",""
14.0,0.050570305436849594,0.0019908377053048246,"train",15400.0,"2021-11-27 13:17:06.802624","","","","","","",""
14.0,0.058495257049798965,0.001991346561178048,"train",15420.0,"2021-11-27 13:17:11.200174","","","","","","",""
14.0,0.05167756229639053,0.0019918409439775003,"train",15440.0,"2021-11-27 13:17:15.322866","","","","","","",""
14.0,0.08191076666116714,0.0019923208461820117,"train",15460.0,"2021-11-27 13:17:19.444058","","","","","","",""
14.0,0.0553554967045784,0.001992786260490709,"train",15480.0,"2021-11-27 13:17:23.541723","","","","","","",""
14.0,0.06563148647546768,0.0019932371798231287,"train",15500.0,"2021-11-27 13:17:27.556092","","","","","","",""
14.0,0.058469608426094055,0.0019936735973193212,"train",15520.0,"2021-11-27 13:17:31.533169","","","","","","",""
14.0,0.06152154505252838,0.001994095506339958,"train",15540.0,"2021-11-27 13:17:35.395432","","","","","","",""
14.0,0.08106271177530289,0.001994502900466431,"train",15560.0,"2021-11-27 13:17:39.269687","","","","","","",""
14.0,0.04780931398272514,0.0019948957735009517,"train",15580.0,"2021-11-27 13:17:43.123765","","","","","","",""
14.0,0.060538459569215775,0.0019952741194666436,"train",15600.0,"2021-11-27 13:17:46.964127","","","","","","",""
14.0,0.07821515947580338,0.0019956379326076354,"train",15620.0,"2021-11-27 13:17:50.865007","","","","","","",""
14.0,0.05367597937583923,0.001995987207389146,"train",15640.0,"2021-11-27 13:17:55.166048","","","","","","",""
14.0,0.056003257632255554,0.0019963219384975706,"train",15660.0,"2021-11-27 13:17:59.147336","","","","","","",""
14.0,0.06145967170596123,0.001996642120840561,"train",15680.0,"2021-11-27 13:18:03.123102","","","","","","",""
14.0,0.047929491847753525,0.001996947749547103,"train",15700.0,"2021-11-27 13:18:07.100227","","","","","","",""
14.0,0.08866097778081894,0.0019972388199675905,"train",15720.0,"2021-11-27 13:18:11.125072","","","","","","",""
14.0,0.06594239920377731,0.001997515327673896,"train",15740.0,"2021-11-27 13:18:15.179524","","","","","","",""
14.0,0.049390070140361786,0.0019977772684594388,"train",15760.0,"2021-11-27 13:18:19.155702","","","","","","",""
14.0,0.07758387178182602,0.0019980246383392475,"train",15780.0,"2021-11-27 13:18:23.147157","","","","","","",""
14.0,0.09989893436431885,0.0019982574335500225,"train",15800.0,"2021-11-27 13:18:27.189348","","","","","","",""
14.0,0.07148277014493942,0.001998475650550192,"train",15820.0,"2021-11-27 13:18:31.177157","","","","","","",""
14.0,0.05865234509110451,0.0019986792860199657,"train",15840.0,"2021-11-27 13:18:35.198010","","","","","","",""
14.0,0.07830673456192017,0.001998868336861386,"train",15860.0,"2021-11-27 13:18:39.170416","","","","","","",""
14.0,0.077964186668396,0.001999042800198376,"train",15880.0,"2021-11-27 13:18:43.575007","","","","","","",""
14.0,0.0872207060456276,0.00199920267337678,"train",15900.0,"2021-11-27 13:18:47.598884","","","","","","",""
14.0,0.049029070883989334,0.0019993479539644077,"train",15920.0,"2021-11-27 13:18:51.762846","","","","","","",""
14.0,0.04437835142016411,0.0019994786397510697,"train",15940.0,"2021-11-27 13:18:55.942498","","","","","","",""
14.0,0.05659886822104454,0.0019995947287486096,"train",15960.0,"2021-11-27 13:18:59.909058","","","","","","",""
14.0,0.10337800532579422,0.0019996962191909367,"train",15980.0,"2021-11-27 13:19:04.003082","","","","","","",""
14.0,0.04825949668884277,0.0019997831095340513,"train",16000.0,"2021-11-27 13:19:08.060422","","","","","","",""
14.0,0.06409545987844467,0.001999855398456069,"train",16020.0,"2021-11-27 13:19:12.201078","","","","","","",""
14.0,0.06463459134101868,0.00199991308485724,"train",16040.0,"2021-11-27 13:19:16.208135","","","","","","",""
14.0,0.054984044283628464,0.001999956167859967,"train",16060.0,"2021-11-27 13:19:20.195739","","","","","","",""
14.0,0.07354625314474106,0.0019999846468088172,"train",16080.0,"2021-11-27 13:19:24.178030","","","","","","",""
14.0,0.08139843493700027,0.0019999985212705335,"train",16100.0,"2021-11-27 13:19:28.194301","","","","","","",""
14.0,"","","train",16110.0,"2021-11-27 13:21:14.521698",0.6274467001382522,0.6435246941141218,0.9538188377513238,0.6843170687449552,0.5580782192918959,0.5743755879553771,0.39068901732238775
14.0,"","","val",16110.0,"2021-11-27 13:21:43.759942",0.5974718775368202,0.593183567013901,0.9421298891702683,0.648642881770082,0.5232785485603875,0.5373622459645506,0.3529694231704053
15.0,0.062149886041879654,0.0019999995774202316,"train",16120.0,"2021-11-27 13:21:49.785013","","","","","","",""
15.0,0.06830789893865585,0.0019999966438102564,"train",16140.0,"2021-11-27 13:21:53.877230","","","","","","",""
15.0,0.047728028148412704,0.0019999909162942875,"train",16160.0,"2021-11-27 13:21:58.012727","","","","","","",""
15.0,0.06128743663430214,0.001999982394888327,"train",16180.0,"2021-11-27 13:22:02.092060","","","","","","",""
15.0,0.10495715588331223,0.0019999710796161823,"train",16200.0,"2021-11-27 13:22:06.110016","","","","","","",""
15.0,0.08264655619859695,0.0019999569705094686,"train",16220.0,"2021-11-27 13:22:10.192862","","","","","","",""
15.0,0.056762125343084335,0.001999940067607605,"train",16240.0,"2021-11-27 13:22:14.271473","","","","","","",""
15.0,0.09874221682548523,0.001999920370957817,"train",16260.0,"2021-11-27 13:22:18.370554","","","","","","",""
15.0,0.06668849289417267,0.0019998978806151355,"train",16280.0,"2021-11-27 13:22:22.475832","","","","","","",""
15.0,0.06635439395904541,0.0019998725966423976,"train",16300.0,"2021-11-27 13:22:26.457490","","","","","","",""
15.0,0.04257757216691971,0.001999844519110244,"train",16320.0,"2021-11-27 13:22:30.539006","","","","","","",""
15.0,0.05079828202724457,0.001999813648097122,"train",16340.0,"2021-11-27 13:22:35.026679","","","","","","",""
15.0,0.0931653305888176,0.001999779983689282,"train",16360.0,"2021-11-27 13:22:38.988622","","","","","","",""
15.0,0.05284406617283821,0.0019997435259807806,"train",16380.0,"2021-11-27 13:22:43.067140","","","","","","",""
15.0,0.08825916796922684,0.001999704275073478,"train",16400.0,"2021-11-27 13:22:47.165795","","","","","","",""
15.0,0.05665455013513565,0.0019996622310770383,"train",16420.0,"2021-11-27 13:22:51.303370","","","","","","",""
15.0,0.05895591899752617,0.0019996173941089286,"train",16440.0,"2021-11-27 13:22:55.400810","","","","","","",""
15.0,0.06096019595861435,0.0019995697642944212,"train",16460.0,"2021-11-27 13:22:59.476123","","","","","","",""
15.0,0.07236597687005997,0.0019995193417665894,"train",16480.0,"2021-11-27 13:23:03.551666","","","","","","",""
15.0,0.042172737419605255,0.0019994661266663108,"train",16500.0,"2021-11-27 13:23:07.606743","","","","","","",""
15.0,0.06905750185251236,0.001999410119142264,"train",16520.0,"2021-11-27 13:23:11.666591","","","","","","",""
15.0,0.06208754703402519,0.0019993513193509297,"train",16540.0,"2021-11-27 13:23:15.703418","","","","","","",""
15.0,0.061704374849796295,0.0019992897274565906,"train",16560.0,"2021-11-27 13:23:20.141185","","","","","","",""
15.0,0.0737253949046135,0.0019992253436313303,"train",16580.0,"2021-11-27 13:23:24.287235","","","","","","",""
15.0,0.05779426172375679,0.0019991581680550313,"train",16600.0,"2021-11-27 13:23:28.422238","","","","","","",""
15.0,0.05916273966431618,0.0019990882009153785,"train",16620.0,"2021-11-27 13:23:32.496219","","","","","","",""
15.0,0.0737597718834877,0.001999015442407854,"train",16640.0,"2021-11-27 13:23:36.468715","","","","","","",""
15.0,0.07932956516742706,0.0019989398927357403,"train",16660.0,"2021-11-27 13:23:40.619336","","","","","","",""
15.0,0.043880779296159744,0.0019988615521101174,"train",16680.0,"2021-11-27 13:23:44.727587","","","","","","",""
15.0,0.043312251567840576,0.0019987804207498637,"train",16700.0,"2021-11-27 13:23:48.835827","","","","","","",""
15.0,0.03925543650984764,0.0019986964988816533,"train",16720.0,"2021-11-27 13:23:52.899011","","","","","","",""
15.0,0.07380564510822296,0.0019986097867399585,"train",16740.0,"2021-11-27 13:23:56.981675","","","","","","",""
15.0,0.08158782869577408,0.0019985202845670463,"train",16760.0,"2021-11-27 13:24:00.911184","","","","","","",""
15.0,0.07889881730079651,0.0019984279926129798,"train",16780.0,"2021-11-27 13:24:04.838072","","","","","","",""
15.0,0.04955587536096573,0.001998332911135615,"train",16800.0,"2021-11-27 13:24:09.259177","","","","","","",""
15.0,0.0725368782877922,0.0019982350404006036,"train",16820.0,"2021-11-27 13:24:13.253787","","","","","","",""
15.0,0.04204987734556198,0.0019981343806813883,"train",16840.0,"2021-11-27 13:24:17.224578","","","","","","",""
15.0,0.04671239107847214,0.001998030932259205,"train",16860.0,"2021-11-27 13:24:21.383072","","","","","","",""
15.0,0.06426125764846802,0.0019979246954230823,"train",16880.0,"2021-11-27 13:24:25.460305","","","","","","",""
15.0,0.08167417347431183,0.0019978156704698363,"train",16900.0,"2021-11-27 13:24:29.409909","","","","","","",""
15.0,0.048222847282886505,0.001997703857704076,"train",16920.0,"2021-11-27 13:24:33.497492","","","","","","",""
15.0,0.07310904562473297,0.0019975892574381976,"train",16940.0,"2021-11-27 13:24:37.599993","","","","","","",""
15.0,0.04682089015841484,0.001997471869992386,"train",16960.0,"2021-11-27 13:24:41.672513","","","","","","",""
15.0,0.049455322325229645,0.0019973516956946127,"train",16980.0,"2021-11-27 13:24:45.762504","","","","","","",""
15.0,0.06343194097280502,0.0019972287348806366,"train",17000.0,"2021-11-27 13:24:49.915600","","","","","","",""
15.0,0.0794992446899414,0.0019971029878940003,"train",17020.0,"2021-11-27 13:24:54.336785","","","","","","",""
15.0,0.0895959809422493,0.0019969744550860317,"train",17040.0,"2021-11-27 13:24:58.440663","","","","","","",""
15.0,0.057263102382421494,0.0019968431368158433,"train",17060.0,"2021-11-27 13:25:02.450938","","","","","","",""
15.0,0.047178030014038086,0.001996709033450327,"train",17080.0,"2021-11-27 13:25:06.414117","","","","","","",""
15.0,0.0696379616856575,0.0019965721453641585,"train",17100.0,"2021-11-27 13:25:10.477877","","","","","","",""
15.0,0.049218904227018356,0.0019964324729397935,"train",17120.0,"2021-11-27 13:25:14.646722","","","","","","",""
15.0,0.09462887793779373,0.0019962900165674657,"train",17140.0,"2021-11-27 13:25:18.806095","","","","","","",""
15.0,0.06446561217308044,0.0019961447766451887,"train",17160.0,"2021-11-27 13:25:22.846538","","","","","","",""
15.0,0.07380940765142441,0.001995996753578751,"train",17180.0,"2021-11-27 13:25:26.847075","","","","","","",""
15.0,"","","train",17184.0,"2021-11-27 13:27:13.170492",0.6358000436585898,0.655175886038964,0.9524777325532944,0.6936774099966144,0.565959046161951,0.5828000176522612,0.3953009405437652
15.0,"","","val",17184.0,"2021-11-27 13:27:42.236771",0.6032703235532877,0.5958553441845968,0.9389581555162766,0.6572928876511649,0.5242130211753859,0.541675470860257,0.3534679750853899
16.0,0.0496596097946167,0.001995845947781719,"train",17200.0,"2021-11-27 13:27:49.419272","","","","","","",""
16.0,0.0524667426943779,0.001995692359675433,"train",17220.0,"2021-11-27 13:27:53.937912","","","","","","",""
16.0,0.04784483462572098,0.0019955359896890066,"train",17240.0,"2021-11-27 13:27:58.078998","","","","","","",""
16.0,0.06858140230178833,0.0019953768382593258,"train",17260.0,"2021-11-27 13:28:02.219200","","","","","","",""
16.0,0.0835772231221199,0.0019952149058310486,"train",17280.0,"2021-11-27 13:28:06.379042","","","","","","",""
16.0,0.07204104959964752,0.001995050192856602,"train",17300.0,"2021-11-27 13:28:10.835547","","","","","","",""
16.0,0.0701105147600174,0.001994882699796182,"train",17320.0,"2021-11-27 13:28:14.909102","","","","","","",""
16.0,0.036392539739608765,0.001994712427117752,"train",17340.0,"2021-11-27 13:28:18.887857","","","","","","",""
16.0,0.06023916229605675,0.0019945393752970413,"train",17360.0,"2021-11-27 13:28:22.890833","","","","","","",""
16.0,0.08294854313135147,0.001994363544817544,"train",17380.0,"2021-11-27 13:28:27.152124","","","","","","",""
16.0,0.04298402741551399,0.001994184936170517,"train",17400.0,"2021-11-27 13:28:31.180750","","","","","","",""
16.0,0.08715241402387619,0.0019940035498549804,"train",17420.0,"2021-11-27 13:28:35.276812","","","","","","",""
16.0,0.07447884976863861,0.0019938193863777145,"train",17440.0,"2021-11-27 13:28:39.382834","","","","","","",""
16.0,0.04108166694641113,0.001993632446253258,"train",17460.0,"2021-11-27 13:28:43.724546","","","","","","",""
16.0,0.06959768384695053,0.0019934427300039074,"train",17480.0,"2021-11-27 13:28:47.762704","","","","","","",""
16.0,0.05067146569490433,0.001993250238159717,"train",17500.0,"2021-11-27 13:28:51.746228","","","","","","",""
16.0,0.07600516080856323,0.0019930549712584944,"train",17520.0,"2021-11-27 13:28:55.738331","","","","","","",""
16.0,0.0462404228746891,0.001992856929845801,"train",17540.0,"2021-11-27 13:29:00.220765","","","","","","",""
16.0,0.08080674707889557,0.0019926561144749497,"train",17560.0,"2021-11-27 13:29:04.374251","","","","","","",""
16.0,0.06773323565721512,0.001992452525707004,"train",17580.0,"2021-11-27 13:29:08.495119","","","","","","",""
16.0,0.06949370354413986,0.0019922461641107767,"train",17600.0,"2021-11-27 13:29:12.622045","","","","","","",""
16.0,0.09240855276584625,0.001992037030262826,"train",17620.0,"2021-11-27 13:29:17.080817","","","","","","",""
16.0,0.05083227530121803,0.0019918251247474567,"train",17640.0,"2021-11-27 13:29:21.200376","","","","","","",""
16.0,0.04311398044228554,0.001991610448156718,"train",17660.0,"2021-11-27 13:29:25.301199","","","","","","",""
16.0,0.0796872153878212,0.0019913930010903996,"train",17680.0,"2021-11-27 13:29:29.274141","","","","","","",""
16.0,0.07127988338470459,0.001991172784156033,"train",17700.0,"2021-11-27 13:29:33.553195","","","","","","",""
16.0,0.052403099834918976,0.0019909497979688877,"train",17720.0,"2021-11-27 13:29:37.554761","","","","","","",""
16.0,0.06276214122772217,0.0019907240431519713,"train",17740.0,"2021-11-27 13:29:41.594990","","","","","","",""
16.0,0.052606597542762756,0.001990495520336026,"train",17760.0,"2021-11-27 13:29:45.553963","","","","","","",""
16.0,0.07006881386041641,0.0019902642301595284,"train",17780.0,"2021-11-27 13:29:49.848813","","","","","","",""
16.0,0.052464816719293594,0.001990030173268685,"train",17800.0,"2021-11-27 13:29:53.842125","","","","","","",""
16.0,0.04809197783470154,0.0019897933503174345,"train",17820.0,"2021-11-27 13:29:57.793259","","","","","","",""
16.0,0.05690480396151543,0.0019895537619674425,"train",17840.0,"2021-11-27 13:30:01.718001","","","","","","",""
16.0,0.054481133818626404,0.001989311408888101,"train",17860.0,"2021-11-27 13:30:06.026432","","","","","","",""
16.0,0.07086905837059021,0.001989066291756527,"train",17880.0,"2021-11-27 13:30:10.101850","","","","","","",""
16.0,0.055270370095968246,0.00198881841125756,"train",17900.0,"2021-11-27 13:30:14.143488","","","","","","",""
16.0,0.044540900737047195,0.0019885677680837595,"train",17920.0,"2021-11-27 13:30:18.101191","","","","","","",""
16.0,0.08515383303165436,0.001988314362935404,"train",17940.0,"2021-11-27 13:30:22.427585","","","","","","",""
16.0,0.047765102237463,0.0019880581965204896,"train",17960.0,"2021-11-27 13:30:26.424419","","","","","","",""
16.0,0.04539971426129341,0.0019877992695547255,"train",17980.0,"2021-11-27 13:30:30.431526","","","","","","",""
16.0,0.06945215910673141,0.0019875375827615354,"train",18000.0,"2021-11-27 13:30:34.528391","","","","","","",""
16.0,0.0692729726433754,0.0019872731368720527,"train",18020.0,"2021-11-27 13:30:38.935141","","","","","","",""
16.0,0.09224707633256912,0.00198700593262512,"train",18040.0,"2021-11-27 13:30:43.087027","","","","","","",""
16.0,0.05212368443608284,0.001986735970767286,"train",18060.0,"2021-11-27 13:30:47.247120","","","","","","",""
16.0,0.09052124619483948,0.001986463252052804,"train",18080.0,"2021-11-27 13:30:51.235036","","","","","","",""
16.0,0.06499733775854111,0.0019861877772436305,"train",18100.0,"2021-11-27 13:30:55.545347","","","","","","",""
16.0,0.05521731451153755,0.001985909547109422,"train",18120.0,"2021-11-27 13:30:59.568088","","","","","","",""
16.0,0.07542727887630463,0.001985628562427533,"train",18140.0,"2021-11-27 13:31:03.568210","","","","","","",""
16.0,0.10449061542749405,0.001985344823983014,"train",18160.0,"2021-11-27 13:31:07.571207","","","","","","",""
16.0,0.06872019916772842,0.001985058332568609,"train",18180.0,"2021-11-27 13:31:11.911816","","","","","","",""
16.0,0.0741175189614296,0.001984769088984755,"train",18200.0,"2021-11-27 13:31:15.946498","","","","","","",""
16.0,0.07719111442565918,0.001984477094039576,"train",18220.0,"2021-11-27 13:31:19.966351","","","","","","",""
16.0,0.04115346074104309,0.001984182348548885,"train",18240.0,"2021-11-27 13:31:23.997645","","","","","","",""
16.0,"","","train",18258.0,"2021-11-27 13:33:11.764013",0.6355089863930728,0.6604435466074824,0.9568390561319918,0.6817828675611167,0.5581157385192287,0.5763419126055374,0.39130970778765656
16.0,"","","val",18258.0,"2021-11-27 13:33:41.000603",0.603212339093123,0.5984022337589918,0.9461547306142454,0.6414176667137494,0.5168792672816,0.5336526013567032,0.3462277811122275
17.0,0.059757135808467865,0.00198388485333618,"train",18260.0,"2021-11-27 13:33:45.347648","","","","","","",""
17.0,0.05348392203450203,0.0019835846092326396,"train",18280.0,"2021-11-27 13:33:49.531595","","","","","","",""
17.0,0.09376123547554016,0.0019832816170771246,"train",18300.0,"2021-11-27 13:33:53.675992","","","","","","",""
17.0,0.09967829287052155,0.001982975877716172,"train",18320.0,"2021-11-27 13:33:58.097028","","","","","","",""
17.0,0.09208301454782486,0.0019826673920039957,"train",18340.0,"2021-11-27 13:34:02.056206","","","","","","",""
17.0,0.0908786952495575,0.0019823561608024822,"train",18360.0,"2021-11-27 13:34:06.073857","","","","","","",""
17.0,0.053542062640190125,0.0019820421849811886,"train",18380.0,"2021-11-27 13:34:10.318894","","","","","","",""
17.0,0.09850122779607773,0.0019817254654173402,"train",18400.0,"2021-11-27 13:34:14.286842","","","","","","",""
17.0,0.09360828250646591,0.0019814060029958278,"train",18420.0,"2021-11-27 13:34:18.282708","","","","","","",""
17.0,0.06448610126972198,0.001981083798609206,"train",18440.0,"2021-11-27 13:34:22.481059","","","","","","",""
17.0,0.06784085929393768,0.0019807588531576908,"train",18460.0,"2021-11-27 13:34:26.852889","","","","","","",""
17.0,0.07500467449426651,0.0019804311675491555,"train",18480.0,"2021-11-27 13:34:30.810164","","","","","","",""
17.0,0.05983228236436844,0.00198010074269913,"train",18500.0,"2021-11-27 13:34:34.940403","","","","","","",""
17.0,0.0933079943060875,0.0019797675795307965,"train",18520.0,"2021-11-27 13:34:39.346925","","","","","","",""
17.0,0.08785009384155273,0.0019794316789749885,"train",18540.0,"2021-11-27 13:34:43.497399","","","","","","",""
17.0,0.07053562998771667,0.0019790930419701877,"train",18560.0,"2021-11-27 13:34:47.682330","","","","","","",""
17.0,0.05728825554251671,0.0019787516694625214,"train",18580.0,"2021-11-27 13:34:52.117993","","","","","","",""
17.0,0.060315702110528946,0.0019784075624057584,"train",18600.0,"2021-11-27 13:34:56.161154","","","","","","",""
17.0,0.06543996930122375,0.0019780607217613094,"train",18620.0,"2021-11-27 13:35:00.270761","","","","","","",""
17.0,0.07387299835681915,0.001977711148498221,"train",18640.0,"2021-11-27 13:35:04.704936","","","","","","",""
17.0,0.0628761500120163,0.0019773588435931756,"train",18660.0,"2021-11-27 13:35:08.739787","","","","","","",""
17.0,0.054638251662254333,0.0019770038080304873,"train",18680.0,"2021-11-27 13:35:12.861841","","","","","","",""
17.0,0.04463375732302666,0.001976646042802099,"train",18700.0,"2021-11-27 13:35:17.291915","","","","","","",""
17.0,0.04703707620501518,0.0019762855489075808,"train",18720.0,"2021-11-27 13:35:21.297272","","","","","","",""
17.0,0.08108256757259369,0.001975922327354126,"train",18740.0,"2021-11-27 13:35:25.331773","","","","","","",""
17.0,0.08538880944252014,0.001975556379156549,"train",18760.0,"2021-11-27 13:35:29.665794","","","","","","",""
17.0,0.07333286106586456,0.0019751877053372823,"train",18780.0,"2021-11-27 13:35:33.618966","","","","","","",""
17.0,0.037094105035066605,0.001974816306926373,"train",18800.0,"2021-11-27 13:35:37.616045","","","","","","",""
17.0,0.0824187844991684,0.001974442184961482,"train",18820.0,"2021-11-27 13:35:42.017825","","","","","","",""
17.0,0.05436987802386284,0.0019740653404878776,"train",18840.0,"2021-11-27 13:35:46.088916","","","","","","",""
17.0,0.09499835968017578,0.0019736857745584362,"train",18860.0,"2021-11-27 13:35:50.181619","","","","","","",""
17.0,0.076958566904068,0.0019733034882336367,"train",18880.0,"2021-11-27 13:35:54.492529","","","","","","",""
17.0,0.04760771244764328,0.0019729184825815586,"train",18900.0,"2021-11-27 13:35:58.505211","","","","","","",""
17.0,0.05367305874824524,0.0019725307586778806,"train",18920.0,"2021-11-27 13:36:02.528531","","","","","","",""
17.0,0.08414851874113083,0.001972140317605874,"train",18940.0,"2021-11-27 13:36:07.052198","","","","","","",""
17.0,0.0855485126376152,0.0019717471604564028,"train",18960.0,"2021-11-27 13:36:11.028460","","","","","","",""
17.0,0.10488132387399673,0.0019713512883279185,"train",18980.0,"2021-11-27 13:36:15.008778","","","","","","",""
17.0,0.0659438744187355,0.00197095270232646,"train",19000.0,"2021-11-27 13:36:19.342552","","","","","","",""
17.0,0.06925544887781143,0.001970551403565646,"train",19020.0,"2021-11-27 13:36:23.393583","","","","","","",""
17.0,0.047363925725221634,0.0019701473931666765,"train",19040.0,"2021-11-27 13:36:27.380577","","","","","","",""
17.0,0.06659792363643646,0.001969740672258327,"train",19060.0,"2021-11-27 13:36:31.571924","","","","","","",""
17.0,0.04168231785297394,0.0019693312419769454,"train",19080.0,"2021-11-27 13:36:36.043801","","","","","","",""
17.0,0.05987325310707092,0.0019689191034664498,"train",19100.0,"2021-11-27 13:36:40.114800","","","","","","",""
17.0,0.09021482616662979,0.0019685042578783257,"train",19120.0,"2021-11-27 13:36:44.175545","","","","","","",""
17.0,0.09544499218463898,0.00196808670637162,"train",19140.0,"2021-11-27 13:36:48.471561","","","","","","",""
17.0,0.05514080822467804,0.001967666450112942,"train",19160.0,"2021-11-27 13:36:52.444017","","","","","","",""
17.0,0.06055814400315285,0.001967243490276456,"train",19180.0,"2021-11-27 13:36:56.500762","","","","","","",""
17.0,0.06043821945786476,0.0019668178280438818,"train",19200.0,"2021-11-27 13:37:00.794820","","","","","","",""
17.0,0.06699652969837189,0.0019663894646044875,"train",19220.0,"2021-11-27 13:37:04.930618","","","","","","",""
17.0,0.053817376494407654,0.001965958401155089,"train",19240.0,"2021-11-27 13:37:09.034689","","","","","","",""
17.0,0.07132681459188461,0.0019655246389000463,"train",19260.0,"2021-11-27 13:37:13.468861","","","","","","",""
17.0,0.044167786836624146,0.0019650881790512597,"train",19280.0,"2021-11-27 13:37:17.627732","","","","","","",""
17.0,0.05897276848554611,0.001964649022828165,"train",19300.0,"2021-11-27 13:37:21.825136","","","","","","",""
17.0,0.07867835462093353,0.0019642071714577325,"train",19320.0,"2021-11-27 13:37:26.324622","","","","","","",""
17.0,"","","train",19332.0,"2021-11-27 13:39:12.419751",0.6510368915084043,0.671570936226368,0.9575073562167051,0.6833370050583508,0.5584043041534399,0.5824077981962744,0.39922168678628484
17.0,"","","val",19332.0,"2021-11-27 13:39:41.250998",0.615389075727705,0.6041627127286522,0.9443833825479928,0.6414721956929075,0.5179846497233341,0.5364165810170912,0.3541563683360275
18.0,0.05997190251946449,0.0019637626261744634,"train",19340.0,"2021-11-27 13:39:46.936460","","","","","","",""
18.0,0.09414588660001755,0.001963315388220384,"train",19360.0,"2021-11-27 13:39:51.546811","","","","","","",""
18.0,0.04089028760790825,0.0019628654588450443,"train",19380.0,"2021-11-27 13:39:55.715219","","","","","","",""
18.0,0.08275093883275986,0.001962412839305514,"train",19400.0,"2021-11-27 13:40:00.155112","","","","","","",""
18.0,0.04190746694803238,0.0019619575308663785,"train",19420.0,"2021-11-27 13:40:04.196731","","","","","","",""
18.0,0.06792780756950378,0.001961499534799737,"train",19440.0,"2021-11-27 13:40:08.206095","","","","","","",""
18.0,0.05466610938310623,0.001961038852385196,"train",19460.0,"2021-11-27 13:40:12.447495","","","","","","",""
18.0,0.04596312344074249,0.0019605754849098683,"train",19480.0,"2021-11-27 13:40:16.381953","","","","","","",""
18.0,0.05396638810634613,0.0019601094336683693,"train",19500.0,"2021-11-27 13:40:20.645430","","","","","","",""
18.0,0.04453060403466225,0.0019596406999628116,"train",19520.0,"2021-11-27 13:40:24.724876","","","","","","",""
18.0,0.05224597826600075,0.0019591692851028022,"train",19540.0,"2021-11-27 13:40:29.096478","","","","","","",""
18.0,0.043978072702884674,0.001958695190405441,"train",19560.0,"2021-11-27 13:40:33.181748","","","","","","",""
18.0,0.044589072465896606,0.001958218417195312,"train",19580.0,"2021-11-27 13:40:37.599027","","","","","","",""
18.0,0.06885693967342377,0.001957738966804486,"train",19600.0,"2021-11-27 13:40:41.708125","","","","","","",""
18.0,0.07997340708971024,0.001957256840572511,"train",19620.0,"2021-11-27 13:40:45.991648","","","","","","",""
18.0,0.07658518850803375,0.0019567720398464133,"train",19640.0,"2021-11-27 13:40:49.926689","","","","","","",""
18.0,0.043823033571243286,0.00195628456598069,"train",19660.0,"2021-11-27 13:40:54.148741","","","","","","",""
18.0,0.0767601728439331,0.001955794420337307,"train",19680.0,"2021-11-27 13:40:57.970236","","","","","","",""
18.0,0.057877589017152786,0.0019553016042856957,"train",19700.0,"2021-11-27 13:41:02.161606","","","","","","",""
18.0,0.05348288267850876,0.001954806119202748,"train",19720.0,"2021-11-27 13:41:05.955942","","","","","","",""
18.0,0.05618239566683769,0.001954307966472812,"train",19740.0,"2021-11-27 13:41:10.065308","","","","","","",""
18.0,0.07780752331018448,0.0019538071474876914,"train",19760.0,"2021-11-27 13:41:13.887511","","","","","","",""
18.0,0.06096674129366875,0.001953303663646636,"train",19780.0,"2021-11-27 13:41:18.064328","","","","","","",""
18.0,0.03799259290099144,0.0019527975163563436,"train",19800.0,"2021-11-27 13:41:21.984413","","","","","","",""
18.0,0.07995744049549103,0.0019522887070309524,"train",19820.0,"2021-11-27 13:41:26.343608","","","","","","",""
18.0,0.06761298328638077,0.0019517772370920379,"train",19840.0,"2021-11-27 13:41:30.411205","","","","","","",""
18.0,0.06669119000434875,0.0019512631079686104,"train",19860.0,"2021-11-27 13:41:34.435447","","","","","","",""
18.0,0.05209806561470032,0.001950746321097108,"train",19880.0,"2021-11-27 13:41:38.843611","","","","","","",""
18.0,0.06800717115402222,0.0019502268779213957,"train",19900.0,"2021-11-27 13:41:42.930438","","","","","","",""
18.0,0.05111926421523094,0.0019497047798927598,"train",19920.0,"2021-11-27 13:41:47.311219","","","","","","",""
18.0,0.05696967989206314,0.001949180028469903,"train",19940.0,"2021-11-27 13:41:51.405128","","","","","","",""
18.0,0.05690806731581688,0.0019486526251189435,"train",19960.0,"2021-11-27 13:41:55.754328","","","","","","",""
18.0,0.07324037700891495,0.0019481225713134064,"train",19980.0,"2021-11-27 13:41:59.818410","","","","","","",""
18.0,0.04265417531132698,0.0019475898685342235,"train",20000.0,"2021-11-27 13:42:04.152570","","","","","","",""
18.0,0.0519251674413681,0.0019470545182697272,"train",20020.0,"2021-11-27 13:42:08.196207","","","","","","",""
18.0,0.07584571093320847,0.001946516522015647,"train",20040.0,"2021-11-27 13:42:12.530308","","","","","","",""
18.0,0.07566076517105103,0.0019459758812751047,"train",20060.0,"2021-11-27 13:42:16.562586","","","","","","",""
18.0,0.046270325779914856,0.0019454325975586106,"train",20080.0,"2021-11-27 13:42:20.904876","","","","","","",""
18.0,0.06271300464868546,0.0019448866723840602,"train",20100.0,"2021-11-27 13:42:24.950070","","","","","","",""
18.0,0.07778305560350418,0.001944338107276728,"train",20120.0,"2021-11-27 13:42:29.343749","","","","","","",""
18.0,0.05795561522245407,0.0019437869037692644,"train",20140.0,"2021-11-27 13:42:33.372960","","","","","","",""
18.0,0.09008138626813889,0.0019432330634016912,"train",20160.0,"2021-11-27 13:42:37.774725","","","","","","",""
18.0,0.06046544760465622,0.0019426765877213986,"train",20180.0,"2021-11-27 13:42:41.877713","","","","","","",""
18.0,0.0745840072631836,0.0019421174782831383,"train",20200.0,"2021-11-27 13:42:46.277528","","","","","","",""
18.0,0.047969669103622437,0.0019415557366490208,"train",20220.0,"2021-11-27 13:42:50.511610","","","","","","",""
18.0,0.050774283707141876,0.0019409913643885113,"train",20240.0,"2021-11-27 13:42:54.927199","","","","","","",""
